1717524177.00
64.000000
-0.00
-0.00
-0.00
-0.00
-0.00
-0.00
-0.00
-0.00
-0.00
-0.00
0.00
0.01
0.01
-0.00
-0.03
-0.05
-0.05
0.00
0.13
0.36
0.66
1.01
1.37
1.72
2.06
2.40
2.79
3.24
3.80
4.42
5.06
5.66
6.20
6.68
7.15
7.68
8.31
9.14
10.09
11.04
11.88
12.56
13.14
13.76
14.65
15.96
17.91
20.32
22.90
25.38
27.58
29.57
31.68
34.32
37.81
42.54
48.15
54.10
59.83
64.97
69.58
74.14
79.34
85.71
93.76
103.00
112.62
121.73
129.77
136.75
143.30
150.75
157.77
166.64
177.95
191.79
206.97
220.57
228.25
225.36
208.53
176.87
132.76
80.05
23.07
-34.94
-92.44
-149.16
-205.23
-260.37
-313.74
-363.87
-409.83
-450.91
-486.50
-515.74
-537.23
-549.22
-549.96
-538.37
-514.21
-478.67
-433.88
-382.45
-327.02
-269.84
-212.63
-156.66
-102.95
-52.37
-5.90
35.58
71.43
101.35
125.50
144.38
158.69
169.15
176.37
180.75
182.57
182.07
179.51
175.23
169.65
163.18
156.15
148.81
141.30
133.69
126.02
118.33
110.69
103.16
95.80
88.68
81.83
75.25
68.95
62.95
57.25
51.86
46.78
42.03
37.59
33.45
29.61
26.07
22.81
19.83
17.11
14.67
12.48
10.54
8.83
7.35
6.07
4.97
4.05
3.27
2.62
2.09
1.65
1.30
1.01
0.79
0.61
0.47
0.37
0.29
0.23
0.19
0.17
0.15
0.15
0.16
0.18
0.20
0.23
0.27
0.31
0.35
0.39
0.44
0.49
0.54
0.58
0.64
0.69
0.75
0.81
0.88
0.96
1.04
1.13
1.23
1.35
1.48
1.62
1.78
1.96
2.16
2.39
2.64
2.91
3.21
3.54
3.91
4.31
4.74
5.22
5.72
6.27
6.86
7.49
8.17
8.89
9.65
10.47
11.32
12.23
13.17
14.17
15.23
16.35
17.54
18.79
20.07
21.38
22.64
23.79
24.72
25.31
25.43
24.96
23.82
21.93
19.29
15.95
11.98
7.57
2.92
-1.76
-6.22
-10.26
-13.70
-16.41
-18.32
-19.41
-19.72
-19.36
-18.44
-17.10
-15.46
-13.64
-11.71
-9.72
-7.70
-5.63
-3.55
-1.53
0.42
2.31
4.13
5.92
7.72
9.60
11.64
13.75
15.88
18.00
20.10
22.18
24.30
26.53
29.00
31.86
34.94
38.12
41.35
44.62
47.96
51.50
55.41
59.91
65.21
70.97
76.86
82.62
88.07
93.10
97.83
102.48
107.34
112.70
117.99
122.67
126.16
127.92
127.47
124.41
118.14
107.46
95.34
82.36
68.53
53.54
37.13
19.24
0.15
-19.58
-39.25
-58.21
-76.66
-94.94
-113.60
-133.46
-155.54
-180.62
-208.59
-237.81
-264.99
-286.29
-297.88
-297.27
-284.16
-260.46
-229.52
-195.10
-160.62
-128.71
-101.63
-80.79
-66.68
-58.73
-55.39
-54.45
-53.57
-50.90
-45.28
-36.37
-24.43
-10.29
4.63
18.40
28.99
34.82
35.40
31.56
25.15
18.50
13.75
12.40
15.16
21.92
31.88
43.57
55.01
63.97
68.46
67.38
60.95
50.76
39.24
28.86
21.36
17.24
15.97
16.35
17.17
17.64
17.41
16.55
15.19
13.42
11.25
8.75
6.16
3.81
1.99
0.77
-0.07
-0.90
-2.07
-3.71
-5.76
-7.95
-10.08
-12.08
-14.05
-16.21
-18.63
-21.13
-23.27
-24.42
-24.02
-21.83
-18.02
-13.17
-8.05
-3.42
0.20
2.71
4.31
5.41
6.31
7.14
7.75
7.90
7.51
6.70
5.81
5.15
4.89
4.95
5.10
5.21
5.23
5.25
5.35
5.46
5.40
5.01
4.22
3.12
1.88
0.61
-0.69
-2.02
-3.43
-4.89
-6.36
-7.95
-9.81
-12.13
-14.94
-17.98
-20.72
-22.45
-22.64
-21.02
-17.75
-13.31
-8.34
-3.41
1.08
4.97
8.20
10.81
12.76
14.04
14.57
14.36
13.56
12.39
11.23
10.41
10.16
10.50
11.22
11.99
12.46
12.38
11.72
10.58
9.18
7.73
6.39
5.22
4.20
3.21
2.10
0.78
-0.79
-2.55
-4.38
-6.19
-8.00
-10.00
-12.42
-15.46
-19.07
-22.89
-26.30
-28.59
-29.19
-27.85
-24.68
-20.16
-14.93
-9.62
-4.74
-0.61
2.60
4.87
6.24
6.86
6.99
6.91
6.95
7.26
7.91
8.84
9.95
11.20
12.48
13.69
14.64
15.13
15.04
14.47
13.66
12.95
12.50
12.26
11.93
11.14
9.71
7.66
5.28
2.90
0.78
-0.98
-2.47
-3.86
-5.36
-7.11
-9.24
-11.80
-14.77
-18.03
-21.34
-24.34
-26.49
-27.32
-26.43
-23.78
-19.65
-14.63
-9.45
-4.72
-0.77
2.37
4.83
6.79
8.26
9.16
9.36
8.86
7.88
6.78
5.94
5.64
5.95
6.81
8.04
9.52
11.10
12.68
14.11
15.20
15.73
15.51
14.44
12.62
10.30
7.86
5.67
3.99
2.83
2.03
1.23
0.15
-1.42
-3.48
-5.96
-8.75
-11.79
-15.03
-18.40
-21.74
-24.75
-27.01
-28.11
-27.72
-25.71
-22.20
-17.65
-12.65
-7.80
-3.49
0.12
3.11
5.60
7.64
9.19
10.16
10.60
10.72
10.84
11.26
12.09
13.22
14.44
15.52
16.36
16.99
17.49
17.94
18.29
18.38
18.03
17.13
15.75
14.09
12.43
11.00
9.83
8.73
7.46
5.79
3.66
1.25
-1.25
-3.61
-5.82
-8.01
-10.36
-13.00
-15.92
-18.94
-21.73
-23.90
-25.10
-25.02
-23.53
-20.64
-16.59
-11.76
-6.68
-1.84
2.37
5.78
8.44
10.52
12.24
13.76
15.12
16.31
17.29
18.06
18.64
19.10
19.55
20.02
20.53
21.02
21.39
21.58
21.55
21.36
21.07
20.80
20.59
20.40
20.14
19.66
18.74
17.25
15.22
12.83
10.40
8.26
6.55
5.17
3.87
2.39
0.58
-1.55
-3.94
-6.60
-9.61
-13.09
-16.95
-20.84
-24.17
-26.31
-26.87
-25.73
-23.07
-19.25
-14.65
-9.70
-4.78
-0.27
3.58
6.65
8.98
10.77
12.20
13.36
14.26
14.83
15.05
14.99
14.79
14.59
14.46
14.43
14.52
14.83
15.45
16.40
17.60
18.74
19.42
19.35
18.43
16.84
14.98
13.22
11.81
10.71
9.70
8.52
7.09
5.41
3.63
1.85
0.07
-1.77
-3.74
-5.82
-7.92
-10.00
-12.07
-14.29
-16.69
-19.13
-21.14
-22.08
-21.44
-19.04
-15.23
-10.69
-6.20
-2.33
0.69
2.95
4.71
6.17
7.42
8.46
9.23
9.79
10.27
10.83
11.58
12.49
13.44
14.25
14.86
15.28
15.65
16.09
16.52
16.79
16.64
15.94
14.75
13.30
11.91
10.79
9.95
9.27
8.55
7.67
6.60
5.38
4.08
2.71
1.30
-0.18
-1.73
-3.43
-5.34
-7.56
-10.16
-13.07
-16.13
-19.01
-21.38
-22.87
-23.20
-22.27
-20.16
-17.16
-13.66
-10.07
-6.68
-3.63
-0.92
1.46
3.48
5.02
5.96
6.28
6.07
5.59
5.13
4.94
5.11
5.60
6.28
6.98
7.58
7.94
7.97
7.59
6.76
5.52
4.00
2.45
1.08
0.04
-0.70
-1.36
-2.20
-3.40
-4.88
-6.37
-7.53
-8.22
-8.59
-9.08
-10.17
-12.18
-15.06
-18.46
-21.85
-24.71
-26.66
-27.48
-27.05
-25.40
-22.61
-18.99
-14.98
-11.09
-7.71
-5.05
-3.07
-1.54
-0.22
1.05
2.23
3.17
3.69
3.77
3.54
3.30
3.38
3.98
5.07
6.41
7.66
8.53
8.93
8.94
8.76
8.54
8.33
8.03
7.50
6.60
5.30
3.72
2.03
0.42
-0.99
-2.22
-3.38
-4.66
-6.30
-8.47
-11.25
-14.57
-18.23
-21.92
-25.31
-28.08
-29.94
-30.71
-30.28
-28.67
-25.99
-22.47
-18.47
-14.43
-10.73
-7.61
-5.11
-3.08
-1.28
0.45
2.10
3.56
4.69
5.49
6.10
6.81
7.80
9.07
10.43
11.56
12.19
12.24
11.88
11.40
11.09
11.10
11.34
11.58
11.52
10.97
9.91
8.47
6.81
5.10
3.40
1.75
0.15
-1.40
-2.93
-4.58
-6.49
-8.87
-11.80
-15.15
-18.64
-21.82
-24.31
-25.78
-26.12
-25.35
-23.61
-21.16
-18.27
-15.16
-12.00
-8.82
-5.62
-2.38
0.84
3.88
6.57
8.74
10.36
11.53
12.52
13.63
15.13
17.13
19.48
21.87
23.91
25.24
25.77
25.57
24.91
24.03
23.06
21.96
20.61
18.86
16.64
14.03
11.18
8.34
5.71
3.41
1.34
-0.74
-3.16
-6.21
-10.00
-14.48
-19.39
-24.30
-28.67
-32.00
-33.85
-34.06
-32.74
-30.26
-27.13
-23.69
-20.12
-16.41
-12.58
-8.86
-5.71
-3.76
-3.41
-4.72
-7.22
-10.13
-12.55
-13.79
-13.57
-12.11
-10.06
-8.38
-8.05
-9.74
-13.42
-17.90
-20.78
-18.90
-9.33
9.44
36.69
69.22
102.37
131.19
151.98
162.98
164.32
157.35
143.98
126.20
105.95
85.24
66.01
49.70
36.82
26.75
18.01
8.99
-1.34
-12.84
-24.46
-34.65
-42.15
-46.37
-47.56
-46.49
-44.06
-41.03
-37.85
-34.77
-31.94
-29.47
-27.45
-25.92
-24.83
-24.03
-23.43
-23.07
-23.17
-24.06
-25.92
-28.52
-31.16
-32.88
-32.85
-30.75
-26.91
-22.19
-17.53
-13.61
-10.68
-8.53
-6.82
-5.30
-3.96
-2.94
-2.37
-2.22
-2.32
-2.39
-2.29
-2.04
-1.93
-2.35
-3.61
-5.87
-9.03
-12.94
-17.36
-22.04
-26.61
-30.56
-33.24
-34.09
-32.83
-29.67
-25.29
-20.61
-16.49
-13.43
-11.46
-10.18
-9.09
-7.74
-6.00
-3.95
-1.79
0.35
2.51
4.84
7.47
10.29
12.96
15.04
16.13
16.17
15.44
14.57
14.23
14.93
16.73
19.25
21.74
23.46
23.94
23.20
21.67
19.92
18.36
16.97
15.43
13.33
10.49
7.13
3.70
0.68
-1.71
-3.59
-5.28
-7.12
-9.30
-11.86
-14.74
-17.87
-21.11
-24.18
-26.65
-27.90
-27.40
-24.94
-20.77
-15.58
-10.21
-5.38
-1.46
1.60
4.05
6.16
8.09
9.86
11.42
12.71
13.73
14.50
15.07
15.54
15.98
16.55
17.32
18.36
19.61
20.98
22.32
23.51
24.45
25.00
25.04
24.53
23.53
22.30
21.06
20.01
19.09
18.13
16.86
15.13
12.96
10.48
7.89
5.34
2.85
0.34
-2.32
-5.32
-8.78
-12.75
-17.08
-21.44
-25.37
-28.33
-29.93
-29.92
-28.26
-25.06
-20.67
-15.60
-10.49
-6.02
-2.64
-0.52
0.56
1.05
1.42
1.97
2.77
3.70
4.59
5.38
6.13
7.00
8.16
9.69
11.52
13.44
15.20
16.52
17.21
17.19
16.56
15.48
14.10
12.56
10.92
9.20
7.43
5.69
4.12
2.85
1.89
1.13
0.40
-0.53
-1.78
-3.38
-5.30
-7.55
-10.23
-13.41
-17.23
-21.62
-26.31
-30.78
-34.36
-36.42
-36.59
-34.85
-31.61
-27.54
-23.32
-19.49
-16.28
-13.66
-11.54
-9.76
-8.21
-6.74
-5.25
-3.63
-1.91
-0.20
1.28
2.39
3.16
3.79
4.57
5.67
7.07
8.55
9.86
10.83
11.42
11.70
11.80
11.81
11.95
12.42
13.42
15.00
16.89
18.60
19.50
19.18
17.58
15.04
12.09
9.14
6.34
3.53
0.43
-3.17
-7.23
-11.53
-15.72
-19.43
-22.33
-24.11
-24.60
-23.73
-21.64
-18.66
-15.28
-12.01
-9.22
-7.03
-5.29
-3.75
-2.13
-0.30
1.72
3.78
5.65
7.11
8.00
8.26
8.04
7.61
7.34
7.57
8.46
9.87
11.43
12.72
13.46
13.67
13.59
13.47
13.42
13.29
12.83
11.85
10.40
8.73
7.15
5.80
4.58
3.29
1.71
-0.18
-2.27
-4.41
-6.54
-8.78
-11.32
-14.24
-17.36
-20.23
-22.21
-22.76
-21.64
-19.00
-15.34
-11.29
-7.44
-4.09
-1.27
1.14
3.24
4.98
6.18
6.65
6.34
5.44
4.34
3.56
3.52
4.40
6.01
7.94
9.62
10.63
10.81
10.30
9.38
8.36
7.40
6.44
5.35
3.97
2.22
0.20
-1.97
-4.12
-6.16
-8.02
-9.66
-11.13
-12.54
-14.12
-16.16
-18.87
-22.27
-26.10
-29.83
-32.83
-34.45
-34.31
-32.31
-28.68
-23.92
-18.72
-13.78
-9.63
-6.53
-4.41
-2.89
-1.56
-0.15
1.36
2.84
4.11
5.13
6.05
7.12
8.49
10.15
11.88
13.41
14.52
15.18
15.47
15.51
15.38
15.05
14.44
13.49
12.21
10.69
9.00
7.26
5.50
3.69
1.82
-0.14
-2.20
-4.34
-6.54
-8.78
-11.14
-13.71
-16.62
-19.94
-23.61
-27.36
-30.74
-33.15
-34.05
-33.13
-30.48
-26.54
-22.00
-17.52
-13.57
-10.25
-7.40
-4.74
-2.04
0.70
3.29
5.46
7.01
7.93
8.49
9.01
9.84
11.09
12.64
14.19
15.41
16.19
16.60
16.82
16.99
17.09
16.94
16.40
15.45
14.24
13.00
11.87
10.84
9.68
8.18
6.23
3.96
1.61
-0.57
-2.53
-4.42
-6.63
-9.50
-13.21
-17.58
-22.09
-26.02
-28.65
-29.55
-28.60
-26.03
-22.24
-17.71
-12.83
-7.91
-3.23
0.97
4.44
7.05
8.80
9.85
10.43
10.84
11.31
12.01
13.00
14.35
16.03
17.95
19.95
21.76
23.10
23.77
23.65
22.85
21.58
20.07
18.53
17.05
15.62
14.23
12.82
11.40
9.96
8.50
6.95
5.19
3.07
0.47
-2.61
-6.14
-9.98
-14.03
-18.23
-22.44
-26.46
-29.89
-32.19
-32.83
-31.49
-28.21
-23.42
-17.77
-11.97
-6.57
-1.89
1.92
4.91
7.15
8.80
9.94
10.66
11.03
11.10
11.02
11.02
11.31
12.03
13.12
14.36
15.46
16.16
16.36
16.13
15.58
14.82
13.87
12.71
11.29
9.64
7.78
5.83
3.86
1.94
0.12
-1.63
-3.35
-5.13
-7.13
-9.48
-12.31
-15.66
-19.48
-23.60
-27.65
-31.13
-33.48
-34.25
-33.17
-30.29
-25.95
-20.70
-15.14
-9.83
-5.13
-1.20
1.98
4.54
6.67
8.50
10.08
11.41
12.47
13.33
14.08
14.91
15.92
17.13
18.46
19.77
20.89
21.71
22.16
22.21
21.89
21.26
20.41
19.38
18.17
16.69
14.89
12.72
10.27
7.72
5.26
2.97
0.80
-1.39
-3.79
-6.51
-9.63
-13.16
-17.12
-21.53
-26.34
-31.36
-36.15
-40.12
-42.57
-42.87
-40.71
-36.18
-29.83
-22.54
-15.26
-8.77
-3.38
0.95
4.49
7.50
10.12
12.40
14.41
16.42
18.77
21.67
25.09
28.61
31.64
33.71
34.71
34.87
34.63
34.36
34.21
34.03
33.60
32.76
31.52
30.02
28.43
26.86
25.28
23.53
21.49
19.06
16.35
13.55
10.93
8.63
6.58
4.50
1.94
-1.42
-5.73
-10.83
-16.27
-21.50
-25.96
-29.16
-30.72
-30.34
-27.91
-23.52
-17.59
-10.80
-3.96
2.17
7.12
10.71
12.99
14.13
14.29
13.70
12.58
11.33
10.41
10.29
11.23
13.22
15.91
18.76
21.23
22.92
23.76
23.86
23.47
22.81
22.00
21.04
19.89
18.50
16.87
15.08
13.17
11.17
9.09
6.92
4.66
2.30
-0.22
-3.00
-6.22
-10.16
-15.07
-21.04
-27.87
-34.95
-41.34
-45.99
-48.10
-47.35
-44.03
-38.91
-32.92
-26.88
-21.26
-16.15
-11.41
-6.81
-2.31
1.99
5.77
8.73
10.74
11.90
12.54
13.12
13.91
14.97
16.13
17.03
17.35
16.84
15.34
12.84
9.48
5.56
1.54
-2.03
-4.73
-6.39
-7.15
-7.39
-7.51
-7.82
-8.44
-9.37
-10.60
-12.15
-14.05
-16.31
-18.89
-21.70
-24.65
-27.75
-30.97
-34.16
-37.01
-38.97
-39.46
-38.02
-34.53
-29.29
-22.95
-16.26
-9.91
-4.36
0.22
3.85
6.64
8.75
10.31
11.47
12.43
13.38
14.50
15.86
17.45
19.11
20.64
21.86
22.68
23.10
23.18
22.98
22.54
21.80
20.75
19.42
17.91
16.40
15.01
13.72
12.35
10.66
8.48
5.83
2.91
0.00
-2.71
-5.24
-7.82
-10.73
-14.22
-18.31
-22.78
-27.18
-30.95
-33.46
-34.16
-32.74
-29.16
-23.75
-17.16
-10.20
-3.68
1.78
5.89
8.67
10.43
11.58
12.53
13.51
14.61
15.76
16.83
17.76
18.55
19.32
20.19
21.21
22.35
23.50
24.52
25.28
25.65
25.54
24.82
23.39
21.20
18.30
14.90
11.28
7.76
4.57
1.83
-0.51
-2.65
-4.84
-7.30
-10.17
-13.47
-17.18
-21.20
-25.37
-29.38
-32.82
-35.15
-35.85
-34.58
-31.28
-26.28
-20.25
-14.12
-8.74
-4.72
-2.36
-1.60
-2.05
-3.15
-4.34
-5.29
-5.99
-6.68
-7.78
-9.59
-12.16
-15.19
-17.95
-19.87
-20.79
-21.23
-22.13
-24.46
-28.82
-35.11
-42.57
-49.62
-55.05
-58.52
-60.71
-62.83
-66.10
-71.35
-78.99
-88.96
-99.42
-108.00
-112.02
-108.95
-96.82
-74.87
-44.01
-6.75
33.90
77.44
124.26
175.06
229.70
286.70
342.96
394.01
434.50
459.63
469.01
464.30
448.74
426.16
400.67
376.19
355.90
341.54
321.60
291.74
254.79
219.26
192.80
177.55
170.90
168.72
168.38
166.57
164.29
162.96
162.71
161.68
156.63
143.82
123.63
96.97
65.54
33.50
4.39
-20.02
-40.08
-57.64
-74.96
-93.91
-116.08
-142.14
-170.29
-198.43
-224.83
-248.57
-269.58
-288.13
-304.56
-320.02
-336.00
-353.24
-371.62
-389.32
-402.56
-406.20
-395.20
-366.59
-321.14
-263.35
-200.04
-138.97
-87.07
-49.21
-27.59
-21.67
-28.42
-43.28
-61.05
-77.03
-88.12
-93.29
-93.44
-90.59
-86.93
-84.12
-83.03
-83.63
-85.45
-88.21
-92.29
-99.11
-111.03
-131.20
-163.07
-209.47
-271.16
-345.33
-424.98
-499.82
-559.05
-594.85
-605.04
-593.48
-567.95
-536.65
-505.27
-475.91
-448.04
-420.48
-392.89
-365.98
-340.57
-316.46
-292.15
-265.43
-234.59
-199.16
-160.07
-119.50
-80.03
-44.03
-13.10
12.35
33.14
51.05
68.16
86.06
105.22
125.06
144.40
162.24
178.30
193.09
207.50
222.33
237.99
254.54
271.77
289.22
306.03
320.98
332.75
340.62
345.00
347.52
350.73
357.50
370.23
390.25
417.26
448.96
480.82
506.53
519.28
513.65
487.69
443.92
388.80
330.65
277.01
232.60
198.71
173.75
154.45
136.95
117.61
93.72
64.14
29.94
-5.71
-38.41
-63.95
-79.84
-85.99
-84.30
-77.44
-67.69
-56.54
-44.92
-33.80
-24.44
-18.08
-15.31
-15.77
-18.29
-21.54
-24.61
-27.30
-29.97
-33.04
-36.52
-39.86
-42.13
-42.42
-40.24
-35.81
-30.00
-24.06
-19.17
-16.04
-14.57
-13.94
-12.85
-10.12
-5.18
1.56
8.88
15.21
19.36
20.99
20.70
19.57
18.53
17.89
17.25
15.91
13.37
9.77
5.89
2.74
0.99
0.72
1.38
2.20
2.54
2.16
1.15
-0.35
-2.29
-4.85
-8.20
-12.38
-17.23
-22.43
-27.78
-33.29
-39.13
-45.42
-51.90
-57.87
-62.25
-63.99
-62.43
-57.57
-50.07
-40.97
-31.40
-22.26
-14.13
-7.35
-2.02
1.87
4.54
6.39
7.97
9.78
12.12
14.95
17.98
20.85
23.27
25.09
26.26
26.84
26.86
26.45
25.82
25.24
24.86
24.60
24.14
23.06
21.08
18.27
15.00
11.77
8.89
6.38
3.97
1.31
-1.82
-5.46
-9.56
-14.03
-18.78
-23.65
-28.29
-32.04
-34.10
-33.71
-30.45
-24.44
-16.38
-7.43
1.22
8.61
14.30
18.37
21.21
23.26
24.79
25.84
26.33
26.23
25.71
25.12
24.77
24.80
25.05
25.20
24.92
24.08
22.79
21.38
20.19
19.43
19.09
18.91
18.50
17.61
16.15
14.24
12.05
9.75
7.36
4.81
2.12
-0.62
-3.22
-5.46
-7.24
-8.69
-10.14
-12.03
-14.77
-18.49
-23.00
-27.76
-31.94
-34.68
-35.28
-33.39
-29.12
-23.02
-15.95
-8.78
-2.21
3.45
8.20
12.22
15.65
18.48
20.59
21.88
22.41
22.45
22.37
22.49
22.96
23.72
24.60
25.43
26.13
26.70
27.18
27.55
27.72
27.49
26.67
25.12
22.90
20.23
17.43
14.82
12.51
10.44
8.38
6.08
3.49
0.72
-2.02
-4.56
-6.82
-8.87
-10.85
-12.95
-15.31
-18.04
-21.17
-24.64
-28.19
-31.37
-33.57
-34.14
-32.61
-28.90
-23.40
-16.85
-10.14
-3.99
1.17
5.20
8.15
10.09
11.12
11.32
10.82
9.84
8.62
7.41
6.36
5.56
5.05
4.84
4.93
5.26
5.70
6.02
6.01
5.50
4.47
3.03
1.41
-0.13
-1.41
-2.44
-3.39
-4.51
-5.92
-7.58
-9.23
-10.55
-11.30
-11.41
-11.01
-10.44
-10.16
-10.60
-12.06
-14.57
-17.78
-21.02
-23.52
-24.55
-23.66
-20.77
-16.17
-10.41
-4.18
1.84
7.09
11.19
14.04
15.75
16.59
16.89
16.93
16.90
16.92
17.05
17.34
17.81
18.40
19.03
19.58
19.94
20.03
19.79
19.22
18.26
16.91
15.12
12.97
10.64
8.31
6.16
4.18
2.28
0.34
-1.70
-3.78
-5.76
-7.54
-9.12
-10.56
-12.02
-13.69
-15.75
-18.39
-21.66
-25.41
-29.27
-32.63
-34.74
-35.00
-33.06
-28.97
-23.17
-16.43
-9.65
-3.63
1.09
4.32
6.20
7.13
7.56
7.87
8.27
8.76
9.26
9.61
9.75
9.69
9.50
9.34
9.32
9.47
9.76
10.07
10.25
10.16
9.77
9.10
8.28
7.41
6.53
5.60
4.51
3.16
1.58
-0.13
-1.79
-3.31
-4.65
-5.94
-7.34
-9.06
-11.33
-14.22
-17.69
-21.45
-25.01
-27.80
-29.32
-29.21
-27.41
-24.11
-19.70
-14.70
-9.64
-4.97
-0.94
2.33
4.94
7.03
8.71
9.97
10.80
11.21
11.32
11.32
11.32
11.35
11.26
10.94
10.41
9.80
9.28
8.94
8.66
8.24
7.48
6.37
5.05
3.76
2.64
1.63
0.46
-1.16
-3.44
-6.32
-9.54
-12.68
-15.44
-17.76
-19.84
-22.03
-24.70
-27.98
-31.68
-35.32
-38.19
-39.60
-39.02
-36.29
-31.72
-26.03
-20.14
-14.89
-10.84
-8.14
-6.60
-5.90
-5.68
-5.62
-5.54
-5.30
-4.88
-4.36
-3.89
-3.59
-3.46
-3.38
-3.14
-2.62
-1.88
-1.06
-0.34
0.20
0.57
0.81
0.88
0.68
0.05
-1.09
-2.67
-4.46
-6.14
-7.40
-7.99
-7.85
-7.12
-6.15
-5.29
-4.84
-4.89
-5.21
-5.35
-4.79
-3.10
-0.12
3.87
8.27
12.21
14.96
16.10
15.77
14.47
12.83
11.28
9.93
8.75
7.72
7.12
7.33
8.58
10.75
13.31
15.66
17.33
18.29
18.79
19.08
19.22
18.99
18.12
16.44
13.95
10.80
7.14
2.98
-1.64
-6.60
-11.52
-15.93
-19.37
-21.66
-22.97
-23.74
-24.59
-25.98
-28.12
-30.85
-33.70
-36.04
-37.19
-36.56
-33.85
-29.17
-23.05
-16.37
-10.16
-5.16
-1.65
0.60
2.12
3.45
4.89
6.52
8.26
10.02
11.82
13.66
15.51
17.22
18.59
19.45
19.75
19.52
18.89
18.02
17.10
16.24
15.47
14.63
13.44
11.63
9.12
6.11
2.99
0.17
-2.18
-4.09
-5.87
-7.86
-10.35
-13.50
-17.37
-21.86
-26.71
-31.45
-35.37
-37.64
-37.54
-34.72
-29.35
-22.16
-14.16
-6.30
0.75
6.69
11.45
15.02
17.41
18.54
18.51
17.63
16.40
15.40
14.98
15.23
15.90
16.64
17.12
17.18
16.77
15.97
14.88
13.63
12.33
11.04
9.75
8.35
6.70
4.73
2.44
-0.06
-2.72
-5.53
-8.59
-12.03
-15.89
-20.08
-24.42
-28.71
-32.83
-36.71
-40.19
-42.90
-44.25
-43.56
-40.43
-34.92
-27.68
-19.71
-12.00
-5.18
0.59
5.53
9.90
13.83
17.22
19.81
21.41
22.02
21.98
21.75
21.77
22.28
23.24
24.40
25.41
26.02
26.14
25.85
25.34
24.75
24.13
23.40
22.38
20.92
18.94
16.44
13.52
10.29
6.93
3.56
0.27
-2.92
-6.03
-9.13
-12.36
-15.93
-20.01
-24.63
-29.51
-34.06
-37.42
-38.79
-37.70
-34.17
-28.69
-22.01
-14.81
-7.55
-0.47
6.26
12.35
17.39
21.01
23.07
23.80
23.75
23.57
23.77
24.56
25.76
27.03
27.93
28.23
27.93
27.31
26.74
26.57
26.95
27.72
28.32
28.05
26.33
23.19
19.33
15.77
13.42
12.53
12.53
12.34
10.82
7.54
3.01
-1.42
-4.39
-5.14
-3.76
-1.23
1.08
1.84
0.38
-2.97
-6.94
-9.94
-9.74
-3.29
12.81
40.86
80.41
127.55
175.85
218.47
249.32
265.64
268.67
262.57
251.94
239.60
226.33
212.07
197.39
181.85
164.91
146.24
125.85
103.67
79.26
52.36
23.72
-4.88
-34.39
-67.36
-106.95
-155.41
-213.90
-283.02
-362.95
-453.41
-535.87
-590.18
-603.61
-577.28
-520.64
-443.40
-353.79
-260.36
-172.41
-97.86
-43.26
-10.56
3.44
5.37
1.91
-2.93
-7.78
-12.17
-14.93
-16.27
-16.93
-17.88
-19.58
-21.96
-24.98
-28.31
-30.98
-31.53
-30.32
-27.81
-24.90
-22.44
-21.01
-21.05
-22.66
-25.50
-28.75
-32.18
-36.02
-40.49
-45.84
-52.16
-59.54
-67.81
-76.63
-85.47
-94.09
-102.51
-110.52
-118.09
-125.15
-131.56
-136.94
-140.70
-141.86
-138.98
-134.08
-127.83
-120.74
-113.20
-105.55
-98.00
-90.72
-83.85
-77.52
-71.94
-66.82
-62.01
-57.41
-52.96
-48.60
-44.26
-39.90
-35.56
-31.32
-26.98
-22.50
-17.94
-13.40
-8.96
-4.72
-0.74
2.91
6.07
8.80
11.06
12.78
13.90
14.46
14.59
14.50
14.41
14.45
14.71
15.12
15.51
15.72
15.75
15.84
16.37
17.77
20.28
23.84
28.07
32.40
36.36
39.89
43.43
47.80
53.91
62.29
72.82
84.72
96.84
108.20
118.49
128.26
138.74
151.29
166.73
184.92
204.88
225.20
244.76
263.30
281.63
301.38
324.74
354.16
391.92
439.31
495.41
556.06
613.80
659.46
684.90
685.93
663.82
624.52
576.13
525.73
477.45
432.38
389.98
349.83
312.52
279.36
251.39
228.56
209.68
193.17
177.87
163.54
150.85
140.73
133.61
128.87
124.82
119.09
109.37
94.16
73.26
47.87
20.10
-7.67
-33.55
-56.61
-77.05
-95.85
-114.22
-133.02
-152.26
-171.07
-188.18
-202.42
-213.29
-221.34
-227.91
-234.82
-243.99
-257.13
-275.43
-299.13
-326.75
-354.78
-378.02
-391.04
-390.29
-375.68
-350.79
-321.41
-293.04
-268.87
-249.04
-231.66
-214.50
-196.54
-178.27
-161.22
-146.93
-136.25
-129.15
-124.83
-121.97
-118.98
-114.44
-107.36
-97.41
-84.88
-70.43
-54.73
-38.51
-22.70
-8.67
1.72
6.60
4.73
-3.81
-17.42
-33.26
-48.04
-58.90
-64.07
-63.25
-57.64
-49.39
-41.01
-34.57
-31.12
-30.46
-31.44
-32.53
-32.51
-30.91
-27.98
-24.52
-21.40
-19.25
-18.34
-18.49
-19.19
-19.70
-19.25
-17.39
-14.16
-10.17
-6.26
-3.14
-0.99
0.52
1.83
3.00
3.45
2.22
-1.43
-7.36
-14.53
-21.32
-26.29
-28.90
-29.59
-29.43
-29.47
-30.12
-30.97
-31.14
-29.75
-26.53
-22.00
-17.19
-13.21
-10.70
-9.65
-9.40
-9.04
-7.81
-5.38
-1.91
2.05
5.82
8.87
11.09
12.77
14.43
16.51
19.00
21.43
23.05
23.25
21.93
19.67
17.35
15.78
15.22
15.26
15.05
13.80
11.20
7.55
3.60
0.19
-2.16
-3.46
-4.24
-5.39
-7.75
-11.81
-17.34
-23.44
-28.76
-31.99
-32.44
-30.18
-26.02
-20.97
-15.89
-11.14
-6.67
-2.22
2.25
6.58
10.36
13.20
14.90
15.57
15.61
15.63
16.23
17.78
20.17
22.80
24.84
25.58
24.85
22.99
20.67
18.45
16.54
14.74
12.84
10.77
8.75
7.04
5.70
4.47
2.92
0.75
-1.96
-4.83
-7.41
-9.44
-10.90
-11.97
-12.83
-13.69
-14.79
-16.46
-18.99
-22.37
-26.06
-29.00
-30.05
-28.49
-24.40
-18.62
-12.40
-6.83
-2.50
0.52
2.50
3.81
4.73
5.42
6.04
6.68
7.42
8.25
9.10
9.86
10.44
10.77
10.85
10.68
10.24
9.45
8.29
6.80
5.12
3.51
2.18
1.27
0.76
0.45
0.12
-0.42
-1.24
-2.27
-3.31
-4.12
-4.49
-4.37
-3.92
-3.52
-3.64
-4.56
-6.17
-7.89
-8.91
-8.56
-6.58
-3.22
0.84
4.82
8.10
10.41
11.84
12.73
13.50
14.50
15.90
17.64
19.44
20.93
21.80
21.91
21.34
20.29
19.01
17.77
16.81
16.41
16.78
17.90
19.48
20.94
21.58
20.95
19.03
16.23
13.26
10.69
8.81
7.46
6.28
4.95
3.39
1.71
0.11
-1.31
-2.60
-4.00
-5.80
-8.26
-11.53
-15.50
-19.76
-23.63
-26.36
-27.47
-26.95
-25.19
-22.69
-19.73
-16.25
-12.08
-7.26
-2.32
1.93
4.71
5.84
5.77
5.41
5.58
6.56
8.01
9.20
9.51
8.82
7.58
6.59
6.54
7.70
9.67
11.64
12.74
12.49
10.98
8.80
6.67
5.08
4.09
3.47
2.94
2.39
1.95
1.80
1.91
1.98
1.50
0.04
-2.48
-5.68
-8.90
-11.51
-13.25
-14.28
-14.97
-15.60
-16.09
-16.09
-15.14
-13.05
-10.01
-6.59
-3.36
-0.64
1.69
4.04
6.83
10.23
13.95
17.32
19.65
20.44
19.71
17.97
16.02
14.67
14.43
15.38
17.21
19.36
21.15
21.96
21.32
19.05
15.24
10.30
4.87
-0.39
-4.93
-8.47
-10.97
-12.53
-13.36
-13.67
-13.70
-13.74
-14.02
-14.64
-15.43
-16.05
-16.23
-15.95
-15.58
-15.69
-16.74
-18.69
-20.91
-22.39
-22.14
-19.69
-15.31
-9.95
-4.85
-1.04
1.02
1.55
1.22
0.80
0.79
1.30
2.16
3.08
3.98
4.96
6.27
8.08
10.35
12.89
15.50
18.01
20.31
22.16
23.17
22.91
21.15
18.16
14.69
11.65
9.70
8.91
8.75
8.45
7.42
5.51
3.02
0.37
-2.21
-4.76
-7.51
-10.67
-14.24
-17.91
-21.21
-23.63
-24.75
-24.38
-22.60
-19.69
-16.12
-12.32
-8.56
-4.99
-1.59
1.63
4.62
7.20
9.17
10.36
10.71
10.30
9.40
8.44
7.90
8.13
9.16
10.68
12.15
13.10
13.40
13.25
12.99
12.87
12.80
12.50
11.72
10.44
8.91
7.46
6.28
5.29
4.31
3.12
1.69
0.07
-1.65
-3.46
-5.32
-7.21
-9.03
-10.60
-11.78
-12.42
-12.34
-11.35
-9.30
-6.12
-1.93
2.91
7.93
12.62
16.56
19.48
21.38
22.47
23.13
23.76
24.62
25.49
25.69
24.20
20.19
13.71
5.72
-2.14
-8.35
-12.12
-13.66
-13.73
-13.02
-11.47
-8.13
-1.66
8.59
21.95
36.42
49.19
57.75
60.76
58.47
53.05
47.27
43.41
42.64
44.86
49.06
53.78
57.20
57.35
53.53
46.00
36.40
27.57
22.53
22.83
27.27
31.65
30.31
20.26
1.43
-23.74
-51.84
-79.85
-104.97
-123.46
-130.26
-119.55
-85.03
-25.45
52.75
136.11
209.11
260.14
286.08
291.20
271.19
226.98
165.51
101.52
52.93
32.46
41.05
67.81
93.79
100.36
79.78
36.82
-14.13
-57.56
-83.33
-94.46
-98.85
-104.90
-117.60
-135.68
-154.36
-167.81
-171.84
-164.85
-147.99
-123.74
-96.24
-70.49
-48.06
-31.49
-21.81
-17.76
-15.87
-11.51
-0.10
20.17
47.14
75.60
98.27
108.95
104.30
84.51
52.57
12.75
-31.27
-77.22
-123.58
-169.44
-214.11
-257.82
-301.86
-347.66
-394.65
-438.72
-472.55
-487.78
-478.72
-444.83
-391.28
-326.86
-260.55
-198.51
-142.94
-92.96
-46.36
-1.21
43.86
89.72
136.85
184.97
232.39
275.83
310.90
333.57
341.86
336.95
322.86
304.70
286.49
269.72
253.44
235.17
212.88
186.44
157.79
129.98
105.43
84.91
67.80
53.10
39.86
27.66
16.40
5.92
-4.34
-15.46
-28.75
-44.64
-62.08
-79.48
-95.03
-107.66
-117.57
-126.54
-137.37
-152.80
-173.34
-194.22
-208.43
-209.99
-198.74
-180.82
-163.83
-151.11
-139.64
-123.34
-94.92
-52.79
-2.03
48.26
89.26
116.30
130.10
130.92
122.40
109.24
95.40
84.77
81.53
89.72
111.42
144.46
181.61
213.28
230.61
228.48
207.53
173.17
132.93
93.16
57.23
25.70
-1.60
-24.53
-42.58
-55.20
-62.33
-64.21
-60.52
-49.75
-29.84
0.53
39.75
82.64
121.79
150.14
163.30
160.41
143.42
115.49
80.02
40.29
-0.08
-36.93
-66.08
-84.69
-92.40
-91.66
-86.60
-81.33
-78.34
-77.89
-78.54
-78.41
-76.31
-72.31
-67.54
-63.35
-60.65
-59.46
-59.24
-59.21
-58.94
-58.43
-57.99
-57.86
-57.77
-57.06
-54.86
-50.51
-43.89
-35.41
-25.88
-16.28
-7.45
0.06
6.09
10.81
14.62
17.92
20.99
23.90
26.32
27.84
28.30
28.11
28.18
29.64
33.36
39.46
47.29
55.03
60.81
63.51
63.58
62.81
63.54
67.48
75.00
84.84
93.57
97.70
95.31
87.41
77.72
70.84
70.30
77.06
88.92
99.47
100.99
86.73
53.30
1.32
-64.91
-137.71
-206.35
-258.74
-287.02
-289.14
-270.66
-242.39
-216.57
-202.73
-204.43
-218.38
-223.31
-200.74
-142.74
-58.58
32.79
115.58
183.66
238.68
284.70
324.03
353.54
369.57
368.99
352.92
326.71
297.27
269.97
246.87
226.26
201.50
168.76
125.01
71.19
11.98
-46.56
-99.34
-143.71
-179.74
-210.65
-240.46
-273.27
-311.40
-355.46
-404.77
-457.19
-508.49
-552.24
-581.42
-590.26
-576.95
-544.04
-497.71
-445.64
-394.53
-348.20
-307.47
-271.46
-238.93
-209.33
-182.30
-157.22
-132.94
-108.09
-81.66
-53.45
-23.96
5.89
35.35
64.44
94.08
125.52
159.44
195.18
230.51
262.03
286.26
300.69
304.55
298.89
286.02
268.48
248.28
226.36
202.74
177.04
149.33
120.70
93.43
70.51
54.47
46.33
45.07
47.93
51.56
53.44
52.72
50.12
47.15
44.88
43.29
41.21
37.19
30.40
21.22
11.16
2.05
-4.72
-8.74
-10.58
-11.31
-12.02
-13.36
-15.52
-18.52
-22.45
-27.66
-34.62
-43.64
-54.54
-66.47
-78.00
-87.47
-93.40
-94.89
-91.82
-84.81
-75.19
-64.73
-55.35
-48.74
-45.95
-47.02
-51.13
-56.98
-63.43
-69.94
-76.64
-84.01
-92.55
-102.77
-115.17
-130.39
-148.84
-170.11
-192.55
-213.49
-230.14
-240.85
-245.89
-247.37
-248.22
-250.79
-255.81
-262.14
-267.30
-268.38
-262.88
-249.19
-226.65
-195.32
-155.83
-109.16
-56.45
1.07
62.31
126.74
194.79
267.68
346.34
429.75
513.51
589.89
649.58
684.73
691.65
671.99
631.96
580.16
525.36
474.98
434.40
406.87
393.04
390.71
394.90
398.84
395.62
379.78
348.34
301.42
242.39
178.08
118.07
72.60
49.60
51.47
73.67
105.87
135.36
150.90
145.52
117.60
70.50
11.67
-48.39
-98.21
-128.12
-133.49
-116.84
-87.42
-58.19
-40.99
-42.29
-60.87
-88.87
-114.56
-126.28
-115.68
-79.63
-20.88
52.38
128.52
195.21
242.53
265.64
265.32
246.81
217.49
183.96
150.04
116.19
80.82
42.96
4.74
-28.09
-48.27
-50.80
-36.12
-10.98
13.90
28.16
25.55
5.37
-29.44
-75.06
-128.72
-188.33
-250.10
-306.65
-347.40
-361.88
-344.45
-297.92
-233.40
-166.77
-113.49
-83.60
-79.65
-98.06
-132.62
-177.67
-229.32
-284.17
-337.00
-379.57
-401.63
-394.42
-354.98
-289.11
-211.02
-139.09
-89.54
-70.49
-78.91
-101.78
-121.48
-122.86
-99.19
-54.16
0.63
51.36
87.79
106.56
110.71
105.96
97.46
87.83
77.98
69.01
63.18
62.84
67.85
73.91
73.30
58.79
28.53
-11.08
-46.78
-64.04
-53.86
-17.03
35.79
88.80
127.73
145.28
142.74
127.73
109.54
94.88
85.94
81.07
76.98
71.07
62.60
52.54
42.58
33.61
25.28
16.26
4.97
-9.56
-27.54
-49.24
-75.86
-109.46
-151.73
-201.82
-254.85
-302.23
-333.95
-342.25
-324.68
-285.19
-232.17
-174.93
-120.22
-70.49
-24.59
20.28
66.46
114.69
164.06
212.85
259.24
301.62
338.41
367.87
388.00
396.88
393.40
377.92
352.36
319.72
283.06
244.39
204.12
161.55
115.74
66.68
15.80
-34.70
-83.16
-129.80
-176.55
-225.85
-278.08
-329.93
-374.35
-402.56
-407.61
-386.70
-342.00
-279.34
-206.13
-130.10
-59.56
-4.09
26.24
23.73
-12.64
-74.14
-143.07
-198.35
-223.48
-213.11
-174.71
-124.55
-80.66
-56.30
-57.33
-83.25
-129.96
-191.79
-261.71
-330.77
-388.46
-425.07
-435.01
-419.27
-384.95
-342.01
-299.41
-262.01
-230.29
-202.04
-174.68
-146.50
-116.89
-85.76
-52.80
-17.39
21.03
62.50
106.39
151.39
196.01
238.96
279.54
317.69
353.88
388.98
424.09
460.42
498.73
538.76
578.49
614.09
640.58
653.22
649.28
629.10
596.32
556.84
517.10
482.33
455.33
436.25
423.16
413.08
402.96
390.32
373.53
351.79
325.12
294.49
261.94
230.59
203.79
184.02
171.67
164.64
159.19
151.43
139.11
122.67
104.85
89.45
79.74
77.42
82.50
93.88
110.15
130.01
152.30
175.80
198.95
219.83
236.49
247.21
250.88
247.13
236.29
219.11
196.59
169.69
139.28
106.13
71.00
34.83
-1.21
-35.76
-67.40
-94.92
-117.55
-135.20
-148.41
-158.25
-165.94
-172.54
-178.65
-184.42
-189.74
-194.65
-199.59
-205.60
-214.05
-226.22
-242.77
-263.37
-286.81
-311.45
-335.86
-359.38
-382.30
-405.61
-430.52
-458.19
-489.50
-524.80
-563.52
-603.54
-640.79
-669.86
-685.51
-684.81
-668.59
-641.32
-608.95
-576.13
-544.09
-510.76
-472.79
-428.32
-378.56
-327.32
-279.02
-236.41
-199.84
-167.97
-139.51
-114.44
-93.99
-79.59
-71.45
-68.13
-67.20
-66.66
-65.93
-66.02
-68.75
-75.53
-86.54
-100.70
-116.19
-131.15
-144.10
-153.85
-159.28
-159.22
-152.82
-140.16
-122.68
-103.00
-84.03
-67.92
-55.29
-45.19
-35.83
-25.48
-13.21
0.90
16.06
31.37
46.23
60.51
74.44
88.26
101.99
115.39
128.24
140.67
153.51
168.09
185.82
207.22
231.20
254.97
274.83
287.51
291.44
287.24
277.25
264.28
250.45
236.59
222.44
207.50
191.90
176.76
163.88
154.88
150.37
149.51
150.14
149.68
146.14
138.86
128.66
117.22
105.92
95.11
83.96
71.19
56.16
39.53
23.21
9.35
-0.65
-6.86
-10.85
-14.92
-21.33
-31.94
-47.73
-68.64
-93.02
-117.40
-136.73
-145.60
-140.34
-121.26
-93.85
-68.00
-55.32
-65.33
-101.95
-161.83
-235.09
-308.35
-368.99
-408.67
-425.12
-421.43
-403.63
-377.71
-347.76
-315.58
-281.72
-246.95
-212.85
-181.02
-152.11
-124.59
-94.87
-58.75
-13.19
42.71
107.84
180.11
257.07
335.47
410.27
474.21
519.26
540.05
537.27
518.61
495.93
480.00
476.01
482.57
494.57
507.70
521.25
537.34
557.37
578.71
594.26
595.53
577.24
540.27
491.13
438.92
391.11
351.21
318.96
291.94
267.43
243.40
218.54
191.82
162.30
129.11
91.43
48.80
1.15
-50.92
-105.72
-160.74
-213.64
-263.61
-311.93
-360.86
-410.88
-458.59
-496.29
-514.94
-508.74
-478.77
-433.43
-385.22
-346.08
-323.15
-317.49
-325.35
-340.19
-354.56
-361.16
-354.12
-330.05
-289.50
-236.87
-179.43
-125.33
-82.11
-56.40
-53.50
-76.36
-123.49
-186.97
-252.88
-304.74
-329.08
-320.02
-280.80
-221.48
-155.37
-95.34
-51.77
-31.49
-36.66
-63.79
-103.55
-143.14
-170.16
-177.02
-163.21
-134.30
-98.16
-61.03
-25.70
8.11
41.58
75.05
107.41
136.81
161.48
180.32
193.04
200.32
203.76
205.57
207.90
212.03
217.84
223.94
228.33
229.18
225.15
215.63
200.86
182.34
163.21
148.35
143.16
151.61
174.46
208.79
249.20
289.95
326.89
357.82
381.66
397.14
402.41
395.68
376.35
345.73
306.71
262.62
215.78
167.30
117.38
66.12
14.17
-37.71
-89.65
-143.61
-203.14
-271.49
-349.29
-432.66
-513.35
-581.03
-627.08
-647.58
-644.60
-624.87
-596.43
-565.32
-533.79
-500.72
-463.49
-420.11
-369.99
-314.06
-254.03
-191.54
-127.88
-63.95
-0.41
62.11
122.82
181.73
239.37
296.58
353.77
409.86
461.65
503.89
530.63
537.31
524.14
495.32
457.34
416.48
376.92
340.29
306.36
274.23
243.45
217.10
198.21
187.53
182.36
177.46
167.43
148.95
122.16
90.96
66.32
59.30
75.77
113.48
163.55
215.31
261.07
298.46
330.09
366.39
416.36
481.97
556.62
628.86
688.38
729.92
753.64
725.80
627.29
460.90
253.67
43.20
-141.41
-287.61
-395.80
-472.31
-521.59
-547.61
-551.86
-537.07
-509.49
-477.50
-448.36
-426.28
-412.29
-404.09
-394.95
-378.56
-353.22
-322.94
-295.22
-276.53
-268.82
-268.85
-270.38
-264.78
-246.09
-214.15
-174.32
-134.60
-102.58
-83.68
-80.99
-95.02
-121.84
-153.41
-179.70
-191.88
-185.45
-161.64
-126.52
-88.04
-52.74
-23.53
-0.21
18.06
30.65
35.16
29.09
11.87
-14.08
-43.61
-70.54
-89.70
-98.60
-98.18
-92.76
-88.40
-90.64
-101.93
-119.89
-137.55
-145.67
-136.77
-108.45
-64.51
-13.31
35.67
75.30
102.32
117.20
122.82
123.26
123.25
127.86
141.60
166.78
201.88
241.04
275.51
296.72
299.25
282.60
250.85
210.90
170.08
134.24
106.70
87.99
76.35
68.42
60.41
49.12
32.10
7.97
-24.18
-65.07
-114.84
-172.11
-233.07
-291.45
-339.98
-372.80
-387.40
-385.44
-371.72
-351.92
-330.25
-308.10
-284.36
-256.78
-223.50
-184.03
-139.51
-92.42
-46.37
-6.21
22.53
34.77
27.91
4.07
-29.19
-60.54
-78.73
-76.98
-56.22
-24.47
6.84
28.09
35.38
31.34
22.70
16.50
17.26
25.87
40.55
58.44
76.71
92.87
104.52
109.34
105.52
92.56
72.09
48.04
25.70
10.25
4.87
9.17
19.14
28.63
31.83
25.70
11.19
-7.67
-25.87
-39.23
-45.44
-44.19
-37.02
-27.29
-19.62
-18.26
-24.83
-36.68
-47.08
-47.92
-33.67
-4.24
35.12
76.83
114.73
146.78
174.65
200.82
225.41
245.03
254.72
251.45
236.95
217.22
199.81
189.78
187.20
187.51
184.59
173.85
153.96
126.59
94.66
61.17
28.80
0.63
-19.74
-29.19
-26.94
-16.05
-2.84
5.73
5.16
-4.89
-21.06
-38.23
-51.86
-59.41
-60.45
-55.85
-47.11
-35.97
-24.35
-14.44
-8.24
-7.28
-11.87
-20.87
-31.83
-41.76
-48.00
-49.50
-47.85
-47.65
-55.76
-78.74
-119.34
-173.76
-231.42
-278.37
-302.91
-300.80
-276.93
-242.52
-209.44
-185.42
-172.48
-168.98
-172.76
-182.62
-197.31
-213.35
-224.42
-223.38
-206.05
-173.99
-133.91
-94.01
-59.65
-31.06
-4.15
26.13
63.19
107.66
157.92
210.94
262.43
306.98
338.90
354.13
352.31
337.64
317.45
298.89
285.68
276.79
267.91
254.53
234.78
210.26
184.67
161.38
141.70
124.93
109.74
95.89
84.70
78.21
77.67
82.28
88.80
92.77
90.43
80.18
63.32
43.74
26.62
16.84
17.08
26.35
39.71
49.72
49.02
33.64
4.89
-31.10
-65.92
-92.34
-106.73
-109.51
-103.78
-93.35
-81.16
-69.03
-58.03
-49.29
-44.49
-45.59
-54.36
-71.99
-98.92
-134.34
-175.84
-218.94
-257.21
-283.38
-291.06
-276.97
-242.55
-194.12
-141.17
-93.17
-56.35
-31.95
-17.32
-8.67
-4.03
-4.43
-12.68
-30.59
-56.66
-86.02
-112.26
-130.28
-138.14
-137.69
-133.37
-130.46
-133.21
-143.42
-159.70
-177.58
-190.90
-194.08
-184.39
-162.92
-133.69
-101.06
-67.17
-30.75
11.50
62.01
119.65
178.60
229.69
263.21
272.37
255.83
218.87
172.39
129.61
101.77
94.23
104.92
125.80
146.65
159.33
160.45
151.32
135.85
117.90
99.69
81.88
64.67
48.95
36.45
29.04
27.71
31.85
39.27
46.79
51.33
50.93
45.41
36.48
27.07
20.08
17.19
18.15
21.01
23.24
23.14
20.79
18.06
17.48
20.83
28.00
36.91
44.57
48.48
47.72
43.05
36.20
28.88
22.18
16.52
12.06
8.92
7.23
6.85
7.16
7.11
5.68
2.31
-2.84
-8.97
-15.05
-20.21
-23.96
-26.26
-27.34
-27.60
-27.38
-26.93
-26.35
-25.69
-25.01
-24.41
-24.09
-24.26
-25.03
-26.33
-27.95
-29.48
-30.50
-30.60
-29.57
-27.41
-24.37
-20.88
-17.38
-14.32
-12.13
-11.24
-12.03
-14.80
-19.52
-25.80
-32.88
-39.77
-45.52
-49.50
-51.61
-52.32
-52.55
-53.25
-54.94
-57.11
-58.01
-55.03
-45.71
-29.03
-6.24
19.24
42.95
61.16
72.04
76.11
75.58
73.14
70.98
70.20
70.91
72.60
74.51
75.91
76.23
75.06
72.28
68.06
62.78
57.10
51.87
48.14
46.85
48.40
52.22
56.62
59.13
57.36
50.04
37.68
22.60
8.19
-2.31
-7.22
-7.07
-4.34
-2.32
-3.59
-8.89
-16.98
-25.45
-31.99
-35.44
-35.98
-34.79
-33.12
-31.75
-30.81
-29.97
-28.93
-27.32
-24.88
-21.39
-16.84
-11.72
-7.31
-5.63
-8.92
-18.65
-34.40
-53.24
-70.11
-79.54
-77.94
-65.31
-45.53
-24.59
-7.99
1.48
4.31
3.11
0.59
-1.92
-4.65
-8.33
-12.87
-16.92
-18.46
-16.16
-10.32
-2.82
3.69
7.20
7.07
4.16
0.15
-3.29
-5.22
-5.53
-4.78
-3.70
-2.74
-1.92
-0.99
0.25
1.57
2.32
1.74
-0.55
-4.24
-8.28
-11.47
-12.98
-12.72
-11.24
-9.29
-7.26
-5.00
-2.07
1.96
7.03
12.64
18.04
22.56
25.82
27.74
28.46
28.22
27.37
26.30
25.38
24.88
24.95
25.58
26.82
28.84
31.88
35.99
40.69
44.82
46.67
44.66
38.07
27.56
15.00
2.79
-7.10
-13.85
-17.99
-21.01
-24.80
-30.96
-40.39
-53.16
-68.66
-85.72
-102.56
-116.73
-125.14
-124.78
-113.92
-93.38
-67.02
-41.05
-21.94
-13.89
-17.32
-29.04
-44.42
-59.90
-74.46
-88.80
-102.98
-114.42
-118.06
-109.02
-85.78
-52.03
-15.44
15.70
36.22
45.94
48.64
49.32
51.54
56.41
63.25
71.10
79.50
88.26
96.77
103.57
106.95
105.88
100.70
93.12
85.33
79.16
75.43
73.91
73.53
72.83
70.38
65.00
56.24
44.64
31.74
19.56
9.82
3.20
-0.96
-4.38
-9.21
-17.13
-28.66
-42.95
-57.93
-70.86
-79.04
-80.53
-74.65
-62.21
-45.36
-26.96
-9.94
3.48
12.25
16.53
17.49
16.88
16.50
17.77
21.27
26.61
32.60
37.63
40.19
39.39
35.27
28.79
21.54
15.24
10.87
8.27
6.10
2.36
-4.84
-16.70
-33.31
-53.42
-74.23
-91.48
-100.23
-96.45
-78.95
-50.56
-17.86
10.87
28.68
32.50
24.03
8.55
-7.54
-19.10
-23.66
-21.33
-14.04
-4.44
4.70
11.05
13.00
9.99
2.38
-8.52
-20.66
-31.46
-38.89
-42.53
-44.35
-48.18
-57.55
-72.68
-88.90
-97.91
-91.70
-67.33
-29.16
12.83
47.68
68.24
73.23
66.01
51.48
33.64
15.22
-1.32
-13.01
-17.11
-12.74
-2.11
10.00
18.43
20.03
14.86
5.62
-4.19
-11.93
-16.31
-17.31
-15.60
-12.06
-7.66
-3.32
0.34
3.15
5.31
7.25
9.34
11.69
14.24
16.70
18.70
19.90
20.16
19.58
18.55
17.69
17.67
19.03
22.00
26.36
31.49
36.45
40.41
42.98
44.35
45.12
45.92
46.98
47.96
48.10
46.64
43.19
37.91
31.38
24.24
16.98
9.82
2.92
-3.47
-8.90
-12.75
-14.47
-13.74
-10.69
-5.88
-0.16
5.62
10.87
15.39
19.32
22.81
25.82
28.09
29.36
29.71
29.78
30.64
33.41
38.65
46.00
54.23
61.77
67.48
71.20
73.83
76.86
81.59
88.46
96.69
104.65
110.44
112.61
110.36
103.48
91.85
75.04
52.31
22.93
-13.41
-56.40
-105.21
-158.61
-214.91
-271.53
-324.34
-367.72
-395.60
-403.48
-390.49
-359.99
-318.52
-273.09
-228.45
-185.69
-142.92
-97.35
-47.62
5.04
57.13
104.50
143.89
174.01
195.50
209.94
218.50
221.32
217.70
207.61
193.18
179.22
171.82
175.31
189.26
207.72
221.52
222.61
208.00
181.02
149.16
120.02
97.67
81.43
67.57
51.92
32.00
7.42
-20.98
-51.92
-83.43
-111.81
-131.36
-135.79
-121.25
-89.42
-48.44
-10.80
11.07
9.37
-16.94
-63.06
-121.23
-183.59
-243.26
-293.77
-328.37
-340.57
-326.45
-287.36
-230.90
-168.93
-113.33
-71.69
-45.17
-29.49
-18.07
-5.59
9.85
26.82
42.04
52.40
56.23
53.57
45.72
34.43
21.36
7.65
-6.43
-21.80
-40.09
-62.65
-88.90
-115.51
-136.98
-147.88
-145.38
-130.74
-108.85
-85.88
-66.55
-52.34
-41.66
-31.55
-19.62
-5.28
10.54
26.42
41.60
56.35
71.54
87.84
105.02
121.69
135.62
144.52
146.89
142.68
133.47
122.00
111.15
102.97
98.10
95.79
94.46
92.52
89.00
83.80
77.46
70.80
64.33
58.03
51.43
43.87
34.88
24.39
12.93
1.55
-8.37
-15.60
-19.52
-20.39
-19.27
-17.51
-16.20
-15.68
-15.69
-15.68
-15.37
-14.95
-14.83
-15.26
-16.10
-16.81
-16.85
-16.07
-14.76
-13.39
-12.22
-11.20
-10.04
-8.51
-6.66
-4.72
-3.00
-1.59
-0.41
0.69
1.73
2.65
3.38
4.00
4.78
5.96
7.52
9.04
9.89
9.65
8.41
6.87
6.00
6.56
8.61
11.57
14.48
16.57
17.54
17.58
16.95
15.76
13.82
10.92
7.16
3.08
-0.47
-2.77
-3.55
-3.08
-1.88
-0.42
1.11
2.75
4.63
6.72
8.82
10.59
11.69
11.87
11.05
9.30
6.87
4.13
1.57
-0.38
-1.49
-1.84
-1.83
-1.98
-2.80
-4.50
-6.87
-9.39
-11.48
-12.76
-13.35
-13.77
-14.76
-16.87
-20.11
-23.85
-27.11
-29.01
-29.19
-28.04
-26.40
-25.15
-24.76
-25.28
-26.45
-27.84
-28.81
-28.28
-24.54
-15.18
2.33
29.47
65.51
107.20
149.66
188.04
218.95
240.73
252.74
254.21
243.94
220.90
185.75
141.69
93.96
48.01
7.04
-29.52
-65.88
-107.54
-157.94
-215.75
-274.37
-323.92
-354.82
-361.73
-345.30
-311.86
-270.12
-227.29
-186.50
-146.36
-102.68
-51.13
10.47
81.20
157.28
233.24
303.38
362.87
408.54
439.14
455.17
457.85
448.76
429.49
402.00
368.88
333.21
297.95
265.15
235.59
208.97
184.51
161.08
137.26
111.27
81.55
48.22
14.03
-16.03
-36.79
-45.70
-44.85
-40.51
-40.35
-49.84
-70.10
-98.26
-129.77
-160.99
-190.14
-216.83
-240.42
-259.05
-270.25
-272.43
-266.66
-256.60
-246.86
-240.34
-236.55
-231.83
-221.34
-201.69
-172.41
-135.49
-93.71
-48.86
-1.58
47.05
93.95
133.07
156.49
157.24
132.25
84.27
22.09
-41.13
-91.14
-116.48
-112.37
-82.57
-38.35
5.35
35.26
43.67
29.57
-3.65
-51.46
-109.90
-175.00
-240.61
-297.33
-334.22
-343.03
-322.25
-278.33
-223.09
-168.84
-123.62
-89.18
-62.38
-38.69
-16.34
1.79
9.17
-0.48
-28.67
-69.35
-109.64
-134.51
-133.17
-103.97
-55.07
-1.03
43.02
66.68
66.98
48.33
20.16
-6.42
-21.74
-20.37
-2.75
24.84
52.61
71.11
74.92
64.23
43.81
20.04
-1.91
-19.45
-31.79
-38.93
-41.45
-41.00
-40.79
-44.56
-54.30
-68.22
-80.31
-82.87
-70.53
-43.27
-7.02
28.72
54.92
66.61
64.29
52.77
38.51
26.77
19.91
17.46
17.12
16.36
13.36
7.31
-1.83
-13.63
-27.04
-40.22
-50.61
-55.83
-54.67
-48.07
-39.04
-31.27
-27.17
-26.51
-26.81
-25.10
-19.95
-12.49
-5.61
-1.84
-1.84
-4.18
-6.37
-6.63
-4.42
-0.76
2.76
5.19
6.94
9.46
13.93
20.57
27.85
33.79
35.90
32.33
23.06
10.63
-0.16
-4.01
3.68
24.45
57.64
99.84
146.07
192.13
236.48
280.52
326.86
377.78
432.03
485.49
530.94
559.56
565.04
546.63
509.62
462.79
415.76
361.95
297.27
222.13
141.43
63.49
-3.35
-50.56
-80.35
-97.61
-108.39
-117.34
-126.84
-138.27
-152.03
-167.97
-185.33
-202.18
-214.00
-210.13
-190.14
-150.47
-95.67
-36.70
13.04
42.93
49.23
34.94
6.59
-29.26
-67.45
-107.48
-149.41
-191.16
-228.33
-254.46
-266.05
-262.40
-243.95
-210.01
-162.49
-104.70
-42.09
17.17
67.17
100.53
112.92
104.76
80.49
43.28
-4.08
-58.79
-118.23
-173.71
-220.90
-257.33
-281.99
-279.68
-242.09
-171.41
-81.71
-8.63
43.08
75.41
92.33
102.28
108.45
109.08
101.15
82.18
48.86
7.13
-42.63
-99.85
-161.34
-221.21
-272.54
-308.21
-307.01
-289.69
-254.51
-208.27
-158.05
-107.59
-57.15
-5.48
49.16
107.94
168.86
235.94
307.46
379.28
445.22
497.55
529.13
536.16
519.59
482.85
436.22
386.09
336.29
288.74
244.76
206.14
174.97
152.33
135.56
122.09
105.98
81.96
47.83
5.65
-38.66
-77.77
-105.85
-121.46
-126.40
-126.60
-129.08
-139.81
-162.43
-198.05
-245.29
-300.46
-357.86
-409.29
-445.94
-460.18
-447.63
-408.47
-347.63
-274.06
-198.79
-132.49
-82.65
-51.33
-35.02
-26.19
-17.29
-4.43
10.78
22.33
23.00
7.84
-23.97
-69.43
-122.67
-176.18
-221.34
-249.11
-251.84
-226.40
-176.79
-114.41
-54.45
-10.29
11.40
12.46
1.26
-11.57
-17.31
-11.22
7.51
36.86
73.28
111.79
146.21
169.87
177.24
166.42
140.50
106.77
74.19
50.07
37.88
37.01
43.85
53.62
61.99
65.88
63.81
56.26
45.61
35.38
28.82
27.40
29.53
31.06
27.28
15.48
-3.48
-25.02
-42.59
-50.78
-48.04
-37.99
-28.08
-26.01
-35.12
-52.03
-67.29
-70.04
-53.84
-20.31
21.55
60.21
87.61
102.96
111.68
120.90
134.65
151.32
165.24
170.64
165.11
150.54
131.74
113.91
101.14
95.92
99.36
110.92
127.67
144.17
153.51
149.71
129.87
95.40
50.92
2.31
-45.18
-88.10
-124.82
-155.46
-181.77
-206.64
-232.85
-260.93
-287.45
-304.66
-303.35
-277.51
-228.33
-165.54
-104.84
-62.50
-49.91
-70.13
-117.37
-179.20
-240.61
-287.81
-311.37
-307.88
-279.60
-232.28
-172.69
-106.86
-40.40
20.82
70.41
102.98
116.96
116.72
111.90
113.41
128.15
155.42
187.52
214.06
227.17
225.13
212.15
195.04
179.46
167.48
157.77
147.57
134.84
119.32
102.37
86.35
73.27
64.05
58.22
54.24
50.46
46.10
41.76
39.04
39.48
43.12
48.19
51.65
50.77
44.61
34.72
24.48
17.46
15.81
19.03
24.38
28.26
27.98
23.23
16.07
9.78
6.99
8.18
11.42
13.75
12.79
8.13
1.31
-5.21
-9.69
-11.91
-13.02
-14.67
-17.83
-22.30
-26.95
-30.43
-31.88
-31.24
-28.72
-24.68
-19.66
-14.64
-11.48
-12.88
-21.67
-39.68
-66.52
-98.94
-131.21
-156.60
-169.39
-166.90
-150.34
-124.27
-94.94
-68.17
-47.73
-35.07
-29.98
-31.51
-38.97
-52.17
-70.98
-95.09
-123.53
-154.35
-184.46
-209.62
-225.06
-226.84
-213.13
-184.99
-146.04
-100.87
-53.03
-4.09
46.33
99.49
156.37
216.94
279.77
341.88
398.75
444.66
473.80
482.25
469.68
439.70
398.49
352.27
305.32
259.57
215.79
175.17
140.05
112.87
94.39
82.61
73.47
63.07
49.96
36.09
25.68
22.96
29.91
45.16
64.62
82.78
94.64
97.28
90.81
78.61
66.54
61.29
67.98
88.21
119.00
153.47
183.11
200.66
202.35
188.44
162.06
127.01
85.87
39.47
-11.52
-64.28
-112.59
-147.89
-163.07
-156.52
-134.40
-108.85
-93.17
-96.40
-120.55
-161.78
-213.95
-272.07
-333.25
-394.97
-452.67
-499.11
-526.39
-529.49
-508.88
-470.52
-423.11
-374.49
-329.16
-287.68
-247.89
-207.07
-163.31
-116.02
-65.51
-12.60
41.44
94.76
144.65
187.46
219.15
236.52
238.42
226.66
205.82
182.17
161.95
149.47
145.72
148.41
153.09
155.00
150.78
138.94
119.14
90.73
52.24
2.28
-58.07
-123.06
-182.41
-224.23
-239.41
-225.61
-188.07
-136.95
-83.10
-34.39
5.20
34.77
54.82
66.91
74.42
82.82
98.13
123.95
158.85
196.29
227.55
245.97
249.77
241.98
227.59
210.23
190.22
165.43
133.46
93.38
46.21
-5.52
-58.02
-106.36
-144.78
-168.27
-175.19
-169.27
-159.28
-155.58
-166.01
-192.91
-233.27
-280.83
-328.90
-371.50
-403.20
-418.78
-414.16
-388.53
-346.10
-295.49
-246.35
-205.37
-173.70
-147.96
-123.15
-95.56
-63.80
-27.89
12.20
56.42
103.31
148.82
186.92
212.15
222.51
220.96
213.83
207.59
205.80
208.17
211.17
210.04
200.52
180.33
150.31
115.11
82.77
62.34
60.01
75.60
101.83
127.32
142.37
143.97
136.95
130.48
132.02
142.73
156.89
165.52
161.58
143.67
115.96
85.38
58.17
37.52
23.59
15.63
13.49
17.85
28.86
44.33
59.24
67.88
67.20
59.35
51.38
51.77
66.07
93.87
128.83
161.64
184.20
192.31
186.18
168.91
144.28
115.53
84.94
54.18
24.40
-4.19
-32.96
-64.88
-103.29
-149.94
-202.69
-254.86
-296.22
-315.73
-305.38
-263.24
-194.72
-111.04
-26.43
45.70
96.08
121.41
124.68
113.72
98.36
87.20
84.89
91.06
101.28
109.51
110.64
102.12
83.71
56.40
21.46
-20.07
-67.20
-118.61
-172.65
-228.15
-285.13
-344.72
-408.03
-474.42
-539.89
-597.33
-638.41
-656.68
-650.22
-622.30
-579.85
-530.59
-480.27
-431.61
-384.98
-340.11
-297.36
-257.83
-222.30
-190.26
-159.61
-127.60
-92.40
-54.10
-14.80
22.49
55.28
82.99
107.04
130.20
155.54
185.34
221.10
263.25
310.52
358.99
401.63
429.51
435.02
415.75
376.58
328.41
283.65
250.96
232.40
224.26
220.58
216.99
212.32
207.51
203.26
198.48
190.80
178.39
161.71
143.65
127.99
117.53
112.50
110.70
108.47
102.75
92.54
79.27
66.24
57.08
53.85
55.96
60.81
65.20
67.29
67.69
68.99
73.99
83.89
97.14
110.09
118.74
120.36
114.49
102.49
86.41
67.73
47.36
26.38
6.52
-9.68
-19.99
-23.97
-23.65
-22.95
-25.91
-34.73
-49.13
-67.32
-87.57
-109.46
-132.94
-156.85
-177.85
-190.98
-191.79
-179.07
-156.00
-129.09
-105.53
-90.23
-84.31
-85.41
-89.70
-94.28
-98.83
-105.41
-116.61
-133.49
-153.94
-172.75
-183.23
-179.79
-159.93
-124.66
-77.58
-23.60
31.50
81.02
117.90
136.64
136.72
124.68
113.08
115.38
139.42
182.47
232.04
271.58
287.82
275.75
238.59
184.07
120.32
54.35
-6.75
-54.57
-80.53
-79.60
-54.28
-15.61
20.34
38.66
31.33
-0.92
-50.97
-109.52
-168.32
-221.00
-262.03
-285.80
-287.26
-263.99
-218.15
-156.75
-89.62
-26.61
25.25
62.61
85.30
95.41
95.90
89.69
79.16
65.84
49.74
29.31
2.26
-32.92
-74.88
-118.11
-153.57
-171.92
-167.59
-141.52
-101.38
-58.68
-24.70
-7.04
-7.85
-24.02
-48.49
-72.42
-87.79
-90.15
-80.29
-64.22
-50.59
-46.44
-53.17
-65.66
-75.44
-75.72
-65.60
-50.39
-37.88
-32.93
-34.28
-35.15
-27.04
-4.75
31.18
75.03
119.50
159.63
194.98
229.28
267.45
312.67
364.53
419.53
472.77
519.85
557.67
584.46
599.07
600.54
588.41
563.38
527.56
484.31
437.41
390.12
344.62
301.85
261.72
223.29
185.10
145.39
102.60
56.00
6.15
-45.52
-97.31
-148.05
-197.41
-245.56
-292.34
-336.54
-375.93
-408.06
-431.35
-445.68
-452.22
-452.39
-446.80
-434.99
-416.06
-389.63
-356.58
-318.92
-279.05
-239.11
-201.15
-167.42
-140.57
-122.87
-114.60
-112.64
-110.46
-99.89
-74.85
-34.76
14.18
60.58
91.77
98.24
76.68
30.53
-31.77
-99.77
-163.79
-216.68
-254.61
-276.54
-283.41
-277.26
-260.72
-236.98
-210.05
-184.60
-165.05
-154.44
-153.34
-159.59
-169.43
-179.36
-187.44
-193.75
-199.06
-203.29
-204.77
-200.27
-186.79
-163.53
-132.83
-99.69
-70.02
-48.57
-37.55
-36.10
-40.59
-45.73
-45.76
-35.71
-12.59
23.63
69.80
120.13
167.88
207.63
237.01
257.10
271.23
282.66
292.68
300.09
302.34
297.22
284.38
265.25
242.18
217.15
190.68
162.40
132.09
100.89
71.56
47.73
32.31
26.13
27.34
32.23
36.83
38.56
37.10
34.09
32.33
34.57
42.85
58.10
79.99
106.70
134.68
159.05
174.77
178.27
168.95
149.56
125.22
101.35
81.79
67.81
58.46
51.90
46.61
41.97
38.08
35.01
32.37
29.29
24.89
18.87
11.79
4.81
-0.80
-4.27
-5.64
-5.67
-5.45
-5.82
-6.98
-8.45
-9.39
-9.11
-7.49
-5.10
-2.89
-1.80
-2.26
-4.10
-6.71
-9.29
-11.21
-12.06
-11.79
-10.58
-8.86
-7.20
-6.10
-5.82
-6.22
-6.84
-7.14
-6.70
-5.41
-3.38
-0.81
2.16
5.44
8.83
11.89
13.97
14.41
12.89
9.67
5.58
1.71
-0.99
-2.09
-1.82
-0.89
-0.21
-0.39
-1.49
-2.95
-3.84
-3.34
-1.13
2.31
5.92
8.46
9.10
7.83
5.58
3.94
4.56
8.58
16.06
25.79
35.38
41.77
42.22
35.53
23.40
10.81
5.06
13.13
38.34
77.87
122.68
160.29
179.30
173.59
144.07
97.52
43.24
-10.63
-59.31
-101.51
-137.94
-169.61
-196.71
-218.54
-233.98
-242.03
-242.03
-233.62
-216.60
-190.98
-157.47
-117.89
-75.60
-35.11
-1.03
23.26
36.79
41.23
39.98
36.76
34.21
33.28
33.54
34.02
34.11
33.91
33.95
34.75
36.31
38.06
39.23
39.30
38.35
37.06
36.30
36.51
37.41
37.99
37.14
34.22
29.58
24.31
19.62
16.18
13.80
11.64
8.85
5.21
1.22
-2.19
-4.34
-5.23
-5.54
-6.23
-7.89
-10.44
-13.12
-14.99
-15.40
-14.30
-12.20
-9.88
-7.97
-6.81
-6.34
-6.31
-6.43
-6.44
-6.18
-5.49
-4.27
-2.60
-0.74
0.81
1.50
1.02
-0.55
-2.63
-4.38
-5.02
-4.18
-2.03
0.78
3.46
5.32
6.00
5.49
4.03
1.90
-0.56
-3.03
-5.13
-6.44
-6.61
-5.51
-3.39
-0.87
1.23
2.27
2.03
0.80
-0.77
-1.99
-2.48
-2.13
-1.08
0.42
2.21
4.07
5.77
7.06
7.76
7.96
7.99
8.26
8.95
9.85
10.39
9.94
8.18
5.29
1.99
-0.83
-2.35
-2.23
-0.56
2.15
5.27
8.22
10.62
12.21
12.82
12.28
10.48
7.47
3.56
-0.67
-4.42
-7.02
-8.10
-7.77
-6.50
-4.93
-3.58
-2.71
-2.38
-2.55
-3.20
-4.32
-5.81
-7.43
-8.86
-9.80
-10.13
-9.87
-9.11
-7.84
-5.90
-3.14
0.32
3.95
6.88
8.28
7.73
5.50
2.41
-0.47
-2.29
-2.67
-1.78
-0.18
1.47
2.61
2.95
2.45
1.19
-0.63
-2.80
-5.09
-7.15
-8.60
-9.14
-8.64
-7.32
-5.72
-4.49
-4.12
-4.77
-6.13
-7.72
-9.04
-9.85
-10.11
-9.92
-9.38
-8.56
-7.56
-6.53
-5.65
-5.01
-4.48
-3.78
-2.63
-0.98
0.88
2.43
3.16
2.81
1.55
-0.15
-1.67
-2.48
-2.32
-1.27
0.36
2.16
3.78
4.98
5.67
5.84
5.51
4.73
3.63
2.44
1.42
0.74
0.30
-0.19
-1.18
-2.84
-4.98
-6.98
-8.07
-7.75
-6.07
-3.71
-1.68
-0.82
-1.44
-3.22
-5.33
-6.85
-7.10
-5.88
-3.46
-0.42
2.59
5.04
6.57
7.01
6.32
4.57
1.94
-1.22
-4.45
-7.22
-9.14
-10.01
-9.90
-9.07
-7.84
-6.49
-5.16
-3.97
-3.18
-3.31
-5.09
-9.23
-16.02
-25.02
-34.98
-44.25
-51.30
-55.31
-56.32
-54.75
-51.06
-45.32
-37.53
-28.15
-18.47
-10.20
-4.35
-0.11
5.50
16.65
36.61
65.61
99.93
132.69
156.23
164.81
156.29
132.52
98.15
58.81
19.48
-16.47
-47.36
-72.72
-92.67
-107.46
-117.31
-122.78
-124.90
-124.92
-123.66
-120.53
-113.41
-99.37
-76.26
-44.29
-6.60
31.56
64.58
88.28
100.84
102.74
95.96
83.10
66.87
49.84
34.35
22.00
13.24
7.21
2.16
-3.53
-10.21
-16.44
-19.47
-16.60
-7.03
6.93
20.01
25.60
18.39
-3.47
-37.43
-77.63
-116.89
-148.74
-168.46
-173.14
-161.29
-132.87
-89.94
-37.27
18.04
68.22
107.29
132.96
146.65
152.00
152.49
149.70
143.32
132.47
117.58
101.30
87.93
81.53
84.01
93.94
107.01
117.85
122.10
118.01
106.69
91.22
75.02
60.45
48.26
38.05
29.23
21.88
16.77
14.75
15.84
18.75
21.35
21.63
18.83
13.89
8.96
6.23
6.71
9.69
13.08
14.49
12.47
7.18
0.25
-6.12
-10.20
-11.42
-10.52
-9.03
-8.61
-10.50
-15.21
-22.55
-31.83
-42.22
-52.91
-63.38
-73.42
-83.07
-92.54
-101.91
-111.01
-119.39
-126.39
-131.42
-134.21
-134.86
-133.74
-131.16
-126.98
-120.54
-110.88
-97.21
-79.47
-58.55
-36.08
-14.03
5.80
22.10
34.07
41.38
44.08
42.65
37.91
30.90
22.72
14.27
6.15
-1.30
-7.83
-13.17
-16.99
-19.02
-19.20
-17.75
-15.09
-11.72
-8.03
-4.23
-0.25
4.20
9.63
16.64
25.76
37.20
50.63
65.02
78.84
90.43
98.49
102.45
102.57
99.65
94.58
88.02
80.19
71.12
60.83
49.69
38.39
27.88
19.11
12.82
9.42
9.04
11.54
16.68
24.01
32.87
42.33
51.30
58.78
64.24
67.93
70.73
73.58
76.85
79.85
81.09
79.08
73.22
64.06
52.83
40.38
26.39
9.55
-11.48
-36.76
-64.67
-92.61
-118.53
-141.99
-164.00
-185.50
-205.83
-222.17
-230.82
-229.61
-219.77
-205.96
-194.10
-188.07
-187.42
-187.42
-181.60
-165.42
-138.84
-106.39
-74.82
-49.60
-32.36
-20.60
-9.69
4.06
21.14
38.60
51.93
57.73
55.58
48.05
38.95
31.10
24.98
19.00
11.25
1.42
-8.36
-14.35
-13.10
-3.39
13.09
32.50
50.64
64.67
73.79
78.85
81.13
81.27
78.92
73.18
63.59
50.87
36.95
24.37
15.28
10.63
10.02
12.10
15.37
18.79
22.03
25.12
27.95
29.87
29.74
26.44
19.59
9.99
-0.44
-9.46
-15.49
-18.34
-19.23
-20.05
-22.37
-26.76
-32.84
-39.88
-47.44
-55.55
-64.38
-73.59
-82.05
-88.15
-90.49
-88.55
-82.86
-74.57
-64.71
-53.73
-41.53
-27.94
-13.23
1.61
15.12
25.95
33.43
37.86
40.46
42.86
46.48
52.05
59.41
67.73
75.86
82.80
87.87
90.74
91.30
89.51
85.49
79.55
72.36
64.85
58.01
52.61
48.91
46.65
45.21
43.89
42.20
39.95
37.24
34.35
31.56
29.10
27.10
25.58
24.47
23.61
22.74
21.60
19.99
17.85
15.34
12.74
10.30
8.23
6.53
5.06
3.63
2.12
0.51
-1.11
-2.62
-3.92
-5.00
-5.89
-6.65
-7.31
-7.84
-8.22
-8.47
-8.74
-9.24
-10.19
-11.69
-13.63
-15.69
-17.45
-18.54
-18.84
-18.50
-17.89
-17.39
-17.23
-17.37
-17.61
-17.71
-17.49
-16.94
-16.17
-15.30
-14.40
-13.43
-12.29
-10.94
-9.42
-7.89
-6.54
-5.52
-4.84
-4.44
-4.19
-4.02
-3.91
-3.85
-3.81
-3.71
-3.49
-3.16
-2.86
-2.74
-2.91
-3.31
-3.80
-4.19
-4.39
-4.47
-4.61
-4.95
-5.54
-6.21
-6.71
-6.78
-6.35
-5.55
-4.68
-4.09
-4.05
-4.67
-5.86
-7.43
-9.12
-10.70
-12.04
-13.10
-13.89
-14.45
-14.78
-14.82
-14.49
-13.72
-12.48
-10.89
-9.13
-7.47
-6.08
-5.02
-4.20
-3.42
-2.50
-1.32
0.12
1.71
3.34
4.86
6.16
7.16
7.80
8.05
7.97
7.64
7.18
6.65
6.05
5.28
4.22
2.77
0.84
-1.56
-4.40
-7.65
-11.24
-15.04
-18.83
-22.28
-24.98
-26.55
-26.75
-25.62
-23.55
-21.19
-19.29
-18.40
-18.70
-19.88
-21.31
-22.35
-22.60
-22.09
-21.14
-20.12
-19.23
-18.28
-16.90
-14.78
-11.95
-8.86
-6.25
-4.85
-5.02
-6.58
-8.88
-10.97
-11.97
-11.29
-8.76
-4.69
0.16
4.70
7.73
8.26
5.87
0.89
-5.67
-12.44
-18.21
-22.21
-24.26
-24.52
-23.17
-20.20
-15.39
-8.58
0.02
9.63
18.93
26.41
30.79
31.51
28.86
23.84
17.82
12.00
7.15
3.55
1.14
-0.23
-0.60
0.03
1.63
3.93
6.48
8.73
10.33
11.19
11.57
11.88
12.43
13.30
14.29
15.07
15.39
15.20
14.75
14.40
14.45
15.04
16.02
17.19
18.31
19.29
20.19
21.17
22.43
24.07
26.09
28.37
30.77
33.19
35.60
38.10
40.75
43.59
46.56
49.57
52.61
55.77
59.30
63.41
68.03
72.61
76.11
77.25
74.79
67.85
56.07
39.57
18.91
-4.93
-30.48
-55.77
-78.53
-96.63
-108.61
-114.13
-113.95
-109.57
-102.66
-94.62
-86.40
-78.56
-71.46
-65.35
-60.29
-56.12
-52.44
-48.81
-44.92
-40.78
-36.64
-32.87
-29.73
-27.29
-25.41
-23.85
-22.39
-20.80
-18.91
-16.69
-14.22
-11.80
-9.80
-8.61
-8.42
-9.17
-10.51
-11.93
-12.97
-13.36
-13.12
-12.48
-11.77
-11.27
-11.00
-10.76
-10.16
-8.81
-6.59
-3.74
-0.81
1.53
2.78
2.81
1.88
0.49
-0.84
-1.77
-2.19
-2.18
-1.82
-1.18
-0.24
0.98
2.40
3.75
4.73
5.08
4.74
3.93
3.02
2.36
2.14
2.26
2.43
2.30
1.60
0.19
-1.89
-4.41
-7.00
-9.14
-10.25
-9.90
-7.97
-4.78
-1.00
2.61
5.48
7.39
8.44
8.93
9.07
8.96
8.56
7.85
6.88
5.91
5.22
5.09
5.61
6.66
7.89
8.87
9.25
8.87
7.86
6.56
5.39
4.63
4.34
4.36
4.37
4.09
3.34
2.13
0.61
-1.01
-2.51
-3.70
-4.41
-4.56
-4.11
-3.11
-1.70
-0.06
1.66
3.33
4.94
6.51
8.11
9.75
11.34
12.74
13.74
14.18
14.00
13.29
12.27
11.27
10.63
10.52
10.95
11.67
12.35
12.68
12.57
12.09
11.45
10.87
10.40
9.97
9.35
8.37
6.94
5.09
2.93
0.57
-1.84
-4.18
-6.25
-7.80
-8.53
-8.17
-6.64
-4.04
-0.74
2.79
6.10
8.99
11.47
13.70
15.80
17.67
19.02
19.43
18.68
16.90
14.59
12.44
10.94
10.28
10.28
10.58
10.88
11.09
11.20
11.21
10.89
9.86
7.79
4.66
0.81
-3.09
-6.36
-8.56
-9.65
-9.96
-9.89
-9.79
-9.83
-10.04
-10.42
-10.97
-11.70
-12.58
-13.38
-13.82
-13.55
-12.42
-10.50
-8.11
-5.70
-3.65
-2.12
-1.00
0.05
1.34
2.99
4.85
6.57
7.83
8.47
8.60
8.42
8.11
7.65
6.86
5.60
3.88
2.05
0.61
0.02
0.44
1.65
3.10
4.19
4.44
3.71
2.23
0.44
-1.20
-2.35
-3.00
-3.37
-3.83
-4.73
-6.21
-8.18
-10.37
-12.50
-14.37
-15.93
-17.17
-18.10
-18.70
-18.97
-18.97
-18.84
-18.65
-18.34
-17.65
-16.32
-14.19
-11.46
-8.57
-5.96
-3.85
-2.08
-0.28
1.86
4.29
6.57
8.15
8.68
8.28
7.45
6.78
6.66
7.08
7.76
8.35
8.70
8.88
9.13
9.76
11.04
13.24
16.56
21.08
26.55
32.33
37.43
40.77
41.61
39.81
35.90
30.91
25.91
21.64
18.34
15.81
13.73
11.86
10.25
9.07
8.49
8.44
8.60
8.58
8.13
7.34
6.54
6.14
6.35
7.10
8.06
8.84
9.17
9.00
8.44
7.74
7.11
6.66
6.43
6.33
6.23
6.02
5.64
5.15
4.69
4.38
4.27
4.29
4.29
4.12
3.69
3.06
2.37
1.75
1.28
0.88
0.44
-0.21
-1.13
-2.28
-3.48
-4.52
-5.27
-5.77
-6.18
-6.71
-7.46
-8.37
-9.28
-10.03
-10.54
-10.86
-11.03
-10.97
-10.48
-9.29
-7.31
-4.79
-2.26
-0.37
0.53
0.49
0.03
-0.22
0.17
1.24
2.57
3.66
4.14
3.98
3.46
2.90
2.50
2.23
1.92
1.47
0.91
0.44
0.27
0.48
0.95
1.41
1.56
1.23
0.45
-0.56
-1.51
-2.17
-2.42
-2.29
-1.91
-1.47
-1.09
-0.88
-0.82
-0.89
-1.06
-1.31
-1.69
-2.28
-3.13
-4.25
-5.52
-6.72
-7.58
-7.90
-7.62
-6.86
-5.86
-4.87
-4.03
-3.36
-2.78
-2.17
-1.46
-0.66
0.17
0.91
1.45
1.71
1.68
1.37
0.92
0.48
0.24
0.32
0.73
1.35
1.98
2.46
2.68
2.67
2.57
2.50
2.54
2.64
2.64
2.39
1.83
1.04
0.22
-0.44
-0.86
-1.15
-1.50
-2.15
-3.25
-4.78
-6.53
-8.16
-9.32
-9.72
-9.23
-7.91
-6.00
-3.84
-1.84
-0.39
0.18
-0.28
-1.71
-3.79
-6.00
-7.78
-8.69
-8.67
-8.00
-7.15
-6.59
-6.63
-7.32
-8.55
-10.07
-11.55
-12.63
-12.93
-12.22
-10.53
-8.23
-5.91
-4.08
-2.96
-2.31
-1.62
-0.34
1.75
4.45
7.32
9.91
12.02
13.73
15.19
16.45
17.27
17.28
16.16
13.90
10.84
7.49
4.25
1.21
-1.67
-4.26
-6.07
-6.43
-5.12
-2.94
-1.72
-3.62
-9.85
-19.67
-30.37
-38.36
-40.91
-37.51
-30.06
-21.76
-15.43
-12.21
-11.27
-10.74
-8.88
-5.09
0.03
5.25
9.42
12.10
13.54
14.32
14.93
15.44
15.60
15.01
13.57
11.56
9.70
8.78
9.33
11.35
14.27
17.17
19.23
19.99
19.50
18.22
16.74
15.49
14.56
13.73
12.63
10.97
8.74
6.29
4.16
2.89
2.75
3.66
5.24
7.02
8.63
9.94
10.96
11.78
12.44
12.92
13.20
13.30
13.31
13.35
13.52
13.82
14.19
14.55
14.84
15.14
15.62
16.49
17.93
19.94
22.22
24.16
25.04
24.30
21.85
18.29
14.68
12.06
10.77
10.06
8.24
3.43
-5.50
-18.25
-33.24
-48.49
-62.74
-76.10
-89.97
-106.09
-125.54
-148.23
-173.04
-198.45
-222.92
-244.92
-262.34
-272.25
-271.30
-256.67
-227.14
-183.52
-128.09
-63.05
10.62
93.21
184.73
282.71
380.76
469.41
538.85
582.63
600.06
596.14
578.99
556.33
532.81
509.48
485.18
458.71
430.29
401.49
374.14
349.08
325.56
301.79
275.95
247.07
215.48
182.63
150.25
119.64
91.20
64.38
38.07
11.18
-16.89
-46.11
-76.07
-106.35
-136.74
-167.10
-196.90
-224.88
-249.02
-267.21
-278.07
-281.76
-280.10
-275.98
-272.28
-270.84
-271.98
-274.71
-277.49
-278.95
-278.39
-275.68
-271.08
-264.89
-257.35
-248.73
-239.39
-229.85
-220.62
-211.96
-203.70
-195.37
-186.32
-176.19
-165.00
-153.15
-141.23
-129.75
-118.98
-108.85
-98.93
-88.52
-76.72
-62.78
-46.47
-28.48
-10.54
4.93
15.63
20.15
18.55
12.22
3.24
-6.50
-15.92
-24.83
-33.62
-42.71
-52.20
-61.86
-71.30
-80.32
-88.96
-97.43
-105.90
-114.42
-122.97
-131.65
-140.86
-151.16
-162.68
-174.61
-184.80
-190.08
-187.27
-174.29
-150.95
-118.75
-80.24
-38.08
5.31
47.56
85.95
117.44
139.28
150.14
150.78
143.93
133.30
122.14
112.27
103.99
96.72
89.78
82.88
76.12
69.63
63.35
57.08
50.73
44.53
39.01
34.71
31.88
30.27
29.14
27.62
25.09
21.39
16.93
12.50
8.93
6.74
5.89
5.75
5.42
4.10
1.51
-2.02
-5.79
-9.28
-12.61
-16.69
-22.90
-32.51
-46.05
-62.96
-81.75
-100.30
-116.22
-127.09
-130.78
-125.86
-112.02
-90.39
-63.34
-33.96
-5.23
20.63
42.49
60.23
74.34
85.48
94.12
100.46
104.31
105.25
102.77
96.48
86.43
73.24
58.16
42.77
28.62
16.82
7.78
1.08
-4.27
-9.60
-16.18
-24.88
-35.73
-47.48
-57.50
-62.18
-58.11
-43.49
-19.33
10.48
40.34
65.10
82.00
91.30
95.45
97.13
97.52
95.91
90.69
80.92
67.41
52.49
38.80
28.04
20.33
14.66
9.92
5.86
3.24
3.25
6.64
13.15
21.59
30.41
38.30
44.56
49.08
51.96
53.30
53.05
51.07
47.23
41.49
33.99
24.98
14.79
3.88
-7.04
-17.05
-25.01
-29.87
-30.91
-28.13
-22.32
-14.89
-7.48
-1.39
2.71
4.90
5.72
5.80
5.48
4.77
3.49
1.47
-1.17
-4.14
-7.06
-9.76
-12.34
-15.13
-18.47
-22.46
-26.77
-30.73
-33.54
-34.52
-33.41
-30.41
-26.01
-20.85
-15.37
-9.82
-4.20
1.54
7.38
13.13
18.52
23.32
27.55
31.48
35.53
40.05
45.06
50.19
54.82
58.24
59.98
59.94
58.33
55.54
51.89
47.64
43.03
38.40
34.22
30.96
28.88
27.84
27.34
26.69
25.24
22.71
19.20
15.20
11.40
8.52
7.16
7.69
10.14
14.14
19.07
24.15
28.82
32.81
36.21
39.15
41.61
43.22
43.40
41.65
37.89
32.63
26.80
21.44
17.31
14.66
13.34
12.95
13.10
13.48
13.81
13.75
12.82
10.50
6.43
0.57
-6.66
-14.55
-22.27
-29.17
-35.02
-39.97
-44.52
-49.16
-54.14
-59.30
-64.11
-67.86
-69.86
-69.62
-66.99
-62.19
-55.73
-48.41
-41.19
-34.99
-30.58
-28.39
-28.46
-30.41
-33.50
-36.74
-39.11
-39.78
-38.34
-34.93
-30.25
-25.36
-21.29
-18.77
-18.03
-18.95
-21.16
-24.21
-27.58
-30.62
-32.62
-32.94
-31.36
-28.22
-24.38
-20.88
-18.47
-17.30
-16.92
-16.56
-15.56
-13.67
-11.06
-8.16
-5.37
-2.95
-0.96
0.64
2.00
3.32
4.85
6.81
9.30
12.23
15.33
18.26
20.78
22.89
24.77
26.74
29.07
31.82
34.76
37.44
39.27
39.72
38.46
35.45
31.03
25.77
20.36
15.44
11.44
8.52
6.48
4.74
2.50
-0.97
-5.95
-12.01
-17.98
-22.32
-23.77
-21.79
-16.85
-10.27
-3.73
1.29
3.85
3.75
1.32
-2.71
-7.50
-12.29
-16.54
-20.01
-22.66
-24.53
-25.68
-26.05
-25.58
-24.25
-22.05
-19.02
-15.17
-10.55
-5.42
-0.37
3.65
5.61
4.80
1.21
-4.41
-10.77
-16.55
-20.89
-23.66
-25.37
-26.77
-28.47
-30.69
-33.25
-35.74
-37.78
-39.16
-39.87
-40.06
-39.96
-39.80
-39.80
-40.19
-41.17
-42.79
-44.96
-47.34
-49.40
-50.59
-50.49
-49.02
-46.45
-43.32
-40.24
-37.71
-36.01
-35.29
-35.70
-37.45
-40.79
-45.77
-52.11
-59.17
-66.18
-72.61
-78.47
-84.28
-90.74
-98.28
-106.76
-115.61
-124.13
-132.07
-139.80
-148.01
-157.17
-166.85
-175.41
-180.27
-178.55
-167.73
-146.09
-112.98
-69.18
-17.42
37.31
88.29
128.70
153.98
163.50
160.78
151.72
141.95
134.76
130.76
129.19
129.69
133.18
141.13
153.99
169.92
184.88
194.18
194.42
184.78
167.04
144.85
122.48
103.79
91.62
87.39
91.08
101.55
117.05
135.56
155.00
172.93
186.42
192.30
188.11
173.01
148.35
117.37
84.04
51.68
21.93
-5.38
-31.71
-58.72
-87.17
-116.32
-143.82
-166.48
-181.60
-188.23
-187.73
-183.26
-178.27
-175.00
-173.55
-172.34
-169.24
-162.95
-153.52
-142.00
-129.66
-117.27
-105.13
-93.31
-82.22
-72.51
-64.51
-57.76
-51.06
-43.59
-35.94
-30.44
-30.11
-36.50
-47.61
-57.48
-58.10
-42.89
-9.91
36.87
89.07
137.25
173.82
194.21
196.36
179.81
145.79
98.51
46.22
0.35
-27.89
-32.10
-13.93
17.00
46.85
63.39
60.85
41.63
14.33
-10.63
-25.48
-27.83
-20.64
-9.84
-0.77
4.71
8.82
16.00
29.34
47.93
66.63
78.74
79.95
70.77
55.77
39.94
25.05
8.72
-12.82
-40.16
-68.03
-86.68
-87.27
-67.38
-33.22
3.01
28.97
37.64
29.56
11.11
-9.05
-23.63
-28.46
-22.56
-7.44
13.60
35.92
54.45
65.02
65.72
57.48
43.58
28.01
14.00
3.30
-3.72
-7.51
-9.03
-9.83
-12.18
-18.44
-29.80
-44.76
-58.50
-64.36
-56.69
-34.03
-0.38
35.96
65.80
82.67
84.97
75.84
61.25
47.42
39.00
37.98
43.83
54.02
64.92
72.87
75.31
71.58
63.08
52.67
43.50
37.83
36.46
38.59
42.36
45.53
46.24
43.64
38.12
30.92
23.40
16.48
10.34
4.81
-0.16
-4.30
-7.23
-8.89
-9.70
-10.18
-10.49
-10.20
-8.36
-3.97
3.45
13.66
25.70
38.18
49.52
58.31
63.59
65.10
63.25
58.76
52.16
43.65
33.50
22.80
13.90
9.90
13.05
23.18
37.06
49.46
55.75
53.94
45.13
32.05
16.75
-0.42
-20.02
-41.60
-62.26
-77.16
-81.91
-75.19
-59.90
-42.03
-27.86
-20.95
-21.20
-25.68
-30.74
-34.05
-35.34
-35.56
-35.52
-34.97
-32.88
-28.64
-23.01
-18.00
-15.91
-17.40
-20.54
-21.68
-17.38
-6.46
9.26
26.20
41.11
52.65
61.57
69.07
75.07
77.51
73.42
60.91
40.99
17.80
-2.95
-16.15
-19.42
-13.85
-3.24
7.83
15.80
19.26
18.98
16.95
15.23
15.05
16.60
19.46
22.90
26.12
28.32
28.67
26.49
21.58
14.42
6.26
-1.14
-6.04
-7.20
-4.30
1.83
9.45
16.52
21.32
23.19
22.92
22.38
23.73
28.45
36.85
47.92
59.75
70.26
77.57
80.44
78.51
72.52
64.31
56.38
51.13
49.91
52.55
57.43
62.40
65.92
67.73
68.64
69.62
70.59
69.86
64.64
52.25
31.21
1.75
-34.66
-76.07
-120.41
-165.06
-206.09
-238.20
-256.03
-256.50
-240.61
-213.58
-182.78
-154.43
-131.11
-111.31
-91.61
-69.48
-45.12
-21.07
-0.12
16.80
31.26
46.03
62.75
79.99
93.27
97.29
89.08
70.61
48.97
33.72
32.36
46.60
71.33
97.18
114.97
119.51
110.34
89.99
61.27
26.09
-13.45
-52.92
-85.10
-102.11
-99.35
-78.56
-47.80
-18.09
1.54
7.55
2.48
-7.44
-15.63
-17.84
-13.11
-3.37
7.86
16.85
20.78
18.41
10.15
-2.33
-17.02
-32.06
-45.64
-55.84
-60.71
-59.53
-54.06
-48.72
-48.83
-57.53
-72.72
-86.44
-87.64
-66.95
-21.63
42.69
113.84
177.54
221.99
240.98
234.37
206.98
166.82
123.04
83.84
54.59
36.22
25.02
14.04
-4.01
-33.52
-73.63
-117.96
-156.73
-180.32
-182.70
-163.46
-127.67
-83.83
-40.82
-5.40
18.86
31.32
33.19
26.60
14.68
1.48
-8.27
-10.35
-2.64
13.79
34.78
54.39
66.86
68.37
57.82
36.66
8.09
-23.89
-55.15
-81.96
-101.48
-112.11
-114.06
-109.21
-100.78
-92.41
-87.17
-86.85
-91.69
-100.70
-112.04
-123.25
-131.17
-132.26
-123.45
-103.40
-73.57
-38.12
-2.51
28.60
53.11
71.79
86.85
99.63
109.10
112.06
105.44
89.46
69.37
54.27
53.16
70.07
101.27
136.59
163.97
174.81
166.97
144.28
113.43
80.41
49.05
21.55
-0.04
-13.27
-16.25
-9.31
4.09
18.32
27.81
29.25
22.56
10.28
-3.91
-16.38
-24.44
-26.66
-22.91
-14.53
-4.01
5.70
12.09
13.83
11.19
5.92
0.40
-3.37
-4.54
-3.52
-1.52
0.30
1.52
2.63
4.60
8.17
13.40
19.62
25.68
30.29
32.24
30.57
24.88
15.63
4.46
-6.11
-13.59
-16.60
-15.51
-12.01
-7.88
-3.34
3.59
16.39
38.09
69.13
106.30
143.40
173.20
189.77
190.07
174.40
145.49
107.31
63.85
18.37
-26.75
-69.99
-110.82
-149.96
-189.38
-231.82
-279.26
-331.20
-383.67
-429.85
-462.11
-474.89
-466.75
-440.72
-402.81
-359.48
-315.47
-272.98
-232.10
-191.89
-151.28
-109.21
-64.27
-14.46
42.52
107.85
180.09
254.07
321.27
371.95
398.49
398.23
374.69
336.22
292.66
251.82
217.34
188.89
164.06
140.80
118.69
98.72
82.07
68.88
57.91
47.34
35.80
23.26
11.04
1.04
-5.24
-7.50
-6.75
-4.89
-3.93
-5.19
-9.00
-14.65
-20.86
-26.22
-29.71
-30.97
-30.33
-28.60
-26.72
-25.37
-24.79
-24.77
-24.87
-24.71
-24.14
-23.27
-22.31
-21.50
-20.93
-20.58
-20.40
-20.30
-20.19
-19.92
-19.36
-18.42
-17.15
-15.75
-14.54
-13.80
-13.72
-14.26
-15.05
-15.48
-14.76
-12.24
-7.71
-1.64
4.85
10.32
13.53
13.91
11.69
7.77
3.26
-0.89
-4.19
-6.54
-8.08
-9.05
-9.55
-9.63
-9.28
-8.49
-7.31
-5.94
-4.72
-4.08
-4.35
-5.66
-7.72
-9.87
-11.30
-11.33
-9.85
-7.40
-5.07
-4.05
-5.06
-8.04
-12.03
-15.71
-17.94
-18.19
-16.52
-13.48
-9.65
-5.80
-3.07
-2.87
-6.30
-12.99
-20.18
-23.05
-16.62
1.54
29.18
59.47
83.71
95.11
91.83
77.25
57.66
38.82
23.65
12.21
3.54
-2.39
-4.16
-0.05
9.95
22.94
33.80
37.30
30.39
13.61
-9.23
-32.92
-52.65
-65.49
-70.83
-69.60
-63.40
-53.73
-41.67
-27.95
-13.31
1.30
14.79
26.06
34.40
39.61
42.01
42.37
41.69
40.86
40.38
40.16
39.50
37.49
33.47
27.43
20.11
12.63
5.95
0.50
-3.82
-7.36
-10.33
-12.67
-14.13
-14.46
-13.69
-12.16
-10.48
-9.34
-9.37
-10.98
-14.00
-17.62
-20.48
-21.28
-19.44
-15.61
-11.46
-9.05
-9.81
-13.95
-20.45
-27.65
-34.06
-38.95
-42.37
-44.89
-47.13
-49.41
-51.59
-53.27
-53.92
-53.17
-50.97
-47.89
-45.25
-44.75
-47.64
-53.77
-61.19
-66.55
-66.53
-59.39
-45.84
-28.68
-11.63
2.10
10.56
13.01
9.67
1.60
-8.94
-18.42
-22.72
-18.83
-6.67
10.23
26.12
35.86
37.61
33.76
29.54
30.32
39.01
55.27
76.28
98.47
118.68
134.22
142.19
139.15
121.93
89.81
46.49
0.26
-38.30
-60.42
-62.79
-48.68
-26.04
-3.71
11.93
18.05
14.48
1.75
-19.86
-49.48
-84.01
-117.14
-140.38
-146.08
-130.77
-97.16
-53.31
-9.75
24.16
42.99
46.16
36.89
20.29
1.11
-17.82
-35.93
-53.88
-71.63
-86.89
-95.13
-91.51
-73.90
-45.10
-12.67
13.86
26.97
24.37
9.59
-9.85
-25.88
-32.94
-29.52
-17.81
-2.19
12.55
22.66
26.28
23.70
16.80
8.00
-1.03
-10.04
-20.00
-32.10
-46.56
-61.84
-74.97
-82.51
-82.07
-73.49
-59.09
-42.99
-29.47
-21.29
-18.58
-18.96
-18.63
-14.07
-3.37
13.22
33.55
54.41
72.48
85.17
91.06
90.23
84.08
74.67
63.98
53.32
43.26
34.04
26.07
19.96
16.31
15.14
15.67
16.59
16.52
14.81
11.83
8.85
7.58
9.34
14.42
21.85
29.76
36.12
39.66
40.38
39.52
38.79
39.32
40.92
42.00
40.45
34.85
25.50
14.42
4.54
-1.79
-3.79
-2.28
1.08
4.97
8.92
13.27
18.39
23.99
29.03
32.16
32.44
29.87
25.32
20.26
16.06
13.42
12.17
11.35
9.70
6.22
0.69
-6.27
-13.53
-20.07
-25.45
-29.84
-33.62
-36.84
-38.97
-39.26
-37.24
-33.21
-28.23
-23.63
-20.37
-18.56
-17.74
-17.33
-17.25
-18.10
-20.68
-25.19
-30.59
-34.67
-34.90
-29.59
-18.74
-4.06
11.71
25.90
36.68
43.51
47.26
49.96
54.11
61.79
73.76
88.89
104.61
118.02
127.16
131.51
131.40
127.28
119.40
108.32
95.72
84.52
77.59
75.60
75.68
71.76
56.84
25.91
-22.04
-83.49
-151.16
-215.52
-266.64
-296.36
-300.52
-280.51
-243.41
-199.94
-160.63
-132.14
-115.82
-108.58
-105.74
-103.68
-101.12
-98.59
-97.33
-98.45
-102.76
-110.96
-123.21
-138.17
-152.38
-160.44
-156.24
-134.85
-94.35
-36.74
32.09
103.21
166.25
211.64
233.44
231.70
212.92
187.91
167.56
158.34
159.97
166.31
169.00
161.53
141.43
110.38
72.72
34.05
0.35
-22.62
-30.22
-20.33
5.65
42.65
83.56
121.44
151.08
169.13
173.62
163.90
141.17
109.62
76.50
50.41
38.05
41.22
55.79
73.66
86.44
89.05
81.38
67.40
52.54
40.83
33.46
29.09
25.17
19.36
10.24
-2.72
-19.45
-39.57
-62.53
-87.25
-111.82
-133.46
-149.33
-157.79
-159.70
-158.74
-159.90
-166.96
-179.98
-194.76
-204.77
-204.67
-193.15
-173.36
-150.64
-129.16
-109.73
-90.20
-67.94
-42.68
-17.32
3.56
16.42
20.88
19.84
17.87
18.88
24.14
31.62
36.84
34.95
23.36
3.67
-18.04
-33.50
-35.86
-23.17
0.79
28.72
53.83
73.32
89.10
105.47
125.47
148.34
169.70
183.99
187.46
179.63
162.72
139.64
112.57
82.70
51.17
19.91
-8.68
-33.00
-53.67
-73.61
-96.32
-123.21
-151.69
-175.40
-186.83
-180.86
-157.24
-120.80
-79.17
-39.63
-6.85
17.50
33.56
41.76
42.09
34.77
21.23
4.57
-11.49
-24.11
-32.39
-37.01
-38.76
-37.37
-31.56
-20.36
-4.74
11.90
24.85
30.49
28.37
21.48
14.58
11.54
13.47
18.44
22.94
23.81
19.46
9.75
-4.94
-24.35
-48.04
-74.20
-98.68
-115.14
-117.31
-102.00
-71.27
-32.45
4.45
30.59
41.59
38.72
27.69
15.79
9.08
10.54
19.76
33.85
48.85
61.18
68.74
71.41
70.80
69.20
68.37
68.78
69.60
69.60
68.08
65.32
62.27
59.75
57.80
55.61
51.92
45.92
37.81
28.76
20.14
12.56
5.23
-3.66
-15.60
-30.32
-45.17
-56.02
-59.15
-53.22
-40.14
-24.30
-10.71
-3.05
-2.72
-9.30
-21.77
-39.56
-62.36
-88.91
-115.71
-136.95
-146.33
-139.72
-117.48
-84.77
-49.49
-18.82
3.64
18.68
29.93
41.06
53.40
65.53
74.53
78.00
75.35
67.72
57.05
45.22
33.52
22.76
13.30
5.09
-2.38
-9.86
-17.91
-26.53
-35.03
-42.35
-47.61
-50.61
-51.83
-52.21
-52.70
-54.14
-57.20
-62.39
-70.02
-79.78
-90.18
-98.35
-100.51
-93.35
-75.54
-48.81
-17.69
12.08
35.80
51.70
61.28
68.16
75.99
86.64
99.68
113.25
125.45
135.37
143.20
149.26
153.17
153.68
149.32
139.41
124.73
107.39
90.02
74.62
61.84
50.98
40.59
29.38
16.77
3.14
-10.59
-23.55
-35.39
-46.54
-58.06
-71.38
-87.59
-106.90
-128.24
-149.27
-166.63
-176.62
-176.04
-162.99
-137.72
-103.00
-63.48
-24.39
9.90
36.93
56.15
68.16
73.88
74.33
70.92
65.98
62.43
62.77
67.71
75.56
83.00
86.82
85.40
78.81
67.86
53.00
34.66
14.55
-3.23
-13.07
-10.76
3.28
23.04
39.29
44.13
34.85
14.64
-10.39
-35.22
-57.81
-78.10
-95.15
-105.40
-103.84
-87.54
-58.68
-24.56
5.43
23.85
27.57
17.67
-2.48
-28.62
-56.11
-79.46
-92.88
-92.27
-77.37
-52.79
-26.46
-6.26
3.40
3.14
-2.33
-7.15
-7.12
-1.14
9.32
21.81
34.71
47.69
60.96
73.88
84.02
87.67
81.76
66.15
44.40
22.72
7.38
1.96
6.07
16.17
27.52
35.95
38.41
32.95
18.92
-2.22
-25.80
-44.21
-49.18
-35.30
-3.03
40.90
86.37
123.92
147.72
156.34
151.30
135.25
111.42
84.07
58.98
42.43
38.59
46.91
61.55
73.49
74.27
59.49
30.43
-6.86
-43.99
-72.96
-88.25
-88.00
-74.28
-52.29
-28.66
-9.08
3.56
9.96
13.24
16.98
23.46
32.83
43.46
52.81
58.23
57.92
51.88
42.36
33.51
29.59
32.44
39.76
45.28
41.42
23.06
-9.85
-52.48
-97.69
-139.53
-175.00
-203.39
-223.94
-234.10
-230.14
-210.05
-176.11
-135.41
-97.49
-70.31
-57.17
-56.36
-63.78
-76.22
-92.93
-114.47
-139.73
-163.92
-179.34
-178.69
-159.10
-124.10
-81.99
-41.84
-9.50
14.04
31.51
46.29
59.93
71.33
77.87
77.57
70.52
59.04
46.52
36.00
29.00
25.17
22.81
19.78
14.50
6.79
-2.28
-11.11
-18.52
-24.19
-28.41
-31.27
-32.29
-30.43
-24.85
-15.98
-5.71
3.35
9.29
12.14
14.15
18.24
26.66
39.97
56.97
76.15
97.38
122.38
153.75
193.21
238.71
284.63
323.05
346.07
348.77
330.94
296.78
253.02
206.95
162.80
122.20
84.68
48.49
11.91
-25.78
-64.13
-101.92
-136.94
-168.91
-197.85
-219.39
-228.10
-219.55
-192.90
-152.43
-111.89
-77.98
-54.67
-42.23
-38.27
-35.48
-26.30
-4.72
31.51
80.33
139.42
200.00
258.16
310.58
353.39
381.05
387.49
368.72
325.44
264.58
195.41
127.50
66.57
13.54
-34.24
-80.18
-125.72
-169.42
-207.59
-237.47
-257.93
-270.80
-279.78
-288.83
-300.22
-313.24
-324.49
-329.19
-323.76
-306.82
-280.14
-247.50
-213.21
-180.51
-150.82
-123.98
-99.10
-75.71
-54.11
-35.47
-21.10
-11.68
-6.84
-5.22
-5.07
-5.00
-4.54
-4.10
-4.74
-7.53
-12.88
-20.30
-28.30
-34.74
-37.43
-34.78
-26.40
-13.34
2.22
17.69
30.94
41.02
48.19
53.57
58.47
63.84
69.99
76.76
83.71
90.42
96.60
101.98
106.24
108.98
109.74
108.25
104.50
98.86
91.89
83.97
74.97
64.04
49.95
31.69
9.18
-16.33
-42.43
-66.23
-85.18
-97.80
-103.76
-103.71
-98.80
-90.43
-79.94
-68.63
-57.56
-47.43
-38.43
-30.31
-22.67
-15.23
-8.23
-2.47
0.91
0.86
-3.17
-10.96
-21.56
-33.73
-46.34
-58.58
-69.97
-79.97
-87.69
-91.87
-91.14
-84.54
-71.93
-54.08
-32.57
-9.43
13.19
33.37
49.61
61.05
67.55
69.53
67.76
63.06
56.18
47.71
38.25
28.38
18.69
9.59
1.31
-6.07
-12.44
-17.53
-20.88
-21.92
-20.07
-14.87
-6.04
6.24
21.11
36.98
51.67
62.99
69.43
70.53
66.99
60.08
51.13
41.09
30.60
20.24
10.87
3.53
-0.86
-2.06
-0.66
2.02
4.52
5.84
5.78
4.88
4.10
4.30
5.95
8.91
12.62
16.22
18.83
19.82
19.11
17.24
15.21
14.08
14.37
15.79
17.22
17.27
14.90
9.95
3.28
-3.60
-9.14
-12.20
-12.42
-10.08
-5.83
-0.45
5.45
11.47
17.40
23.06
28.18
32.31
34.88
35.40
33.74
30.23
25.59
20.69
16.24
12.62
9.89
7.96
6.71
6.09
6.09
6.66
7.66
8.84
9.92
10.70
11.15
11.41
11.67
11.96
12.01
11.30
9.23
5.48
0.25
-5.60
-10.80
-14.02
-14.38
-11.77
-6.99
-1.55
2.82
4.63
3.19
-1.22
-7.41
-13.64
-18.23
-20.06
-18.94
-15.49
-10.79
-5.89
-1.36
2.77
6.81
10.97
15.04
18.36
20.16
20.04
18.35
16.02
14.14
13.30
13.33
13.40
12.67
10.83
8.45
6.62
6.31
7.72
9.97
11.47
10.67
6.82
0.36
-7.32
-14.45
-19.49
-21.41
-19.56
-13.54
-3.13
11.34
28.63
46.48
62.23
73.71
80.03
81.74
80.21
76.62
71.23
63.44
52.46
38.21
21.60
4.23
-12.50
-28.12
-43.26
-59.02
-76.09
-94.11
-111.62
-126.65
-137.39
-142.68
-142.20
-136.39
-126.23
-113.05
-98.16
-82.43
-65.95
-48.07
-28.07
-6.20
15.61
33.80
44.27
43.97
32.10
10.29
-18.37
-50.39
-82.51
-111.50
-133.77
-145.47
-143.49
-126.83
-97.53
-60.25
-20.76
16.05
47.35
72.45
91.84
106.19
115.80
120.72
121.27
118.22
112.65
105.42
96.76
86.44
74.04
59.48
43.38
26.98
11.81
-0.95
-10.93
-18.85
-26.15
-34.38
-44.27
-55.20
-65.26
-71.85
-72.67
-66.44
-53.29
-34.57
-12.33
11.16
33.88
54.29
71.50
85.29
96.05
104.43
110.98
115.74
118.22
117.60
113.20
104.84
92.86
77.95
60.86
42.26
22.86
3.57
-14.44
-29.93
-42.09
-50.91
-57.37
-63.04
-69.43
-77.37
-86.65
-96.13
-104.15
-109.06
-109.63
-105.32
-96.18
-82.84
-66.23
-47.46
-27.71
-8.22
9.72
24.83
36.07
42.98
45.88
45.86
44.45
43.11
42.70
43.32
44.50
45.55
46.01
45.73
44.76
43.08
40.41
36.32
30.50
23.08
14.76
6.56
-0.60
-6.23
-10.45
-13.74
-16.56
-19.04
-20.98
-22.08
-22.30
-22.01
-21.79
-22.09
-22.79
-23.18
-22.35
-19.77
-15.81
-11.76
-9.21
-9.16
-11.36
-14.19
-15.42
-13.33
-7.70
0.02
7.39
12.18
13.37
11.52
8.25
5.31
3.76
3.67
4.39
5.17
5.53
5.42
4.99
4.35
3.30
1.48
-1.44
-5.40
-9.85
-13.81
-16.23
-16.40
-14.16
-9.89
-4.31
1.63
6.83
9.97
9.71
5.17
-3.30
-13.60
-22.16
-25.27
-20.97
-10.43
2.06
10.85
11.52
3.07
-11.59
-27.11
-38.18
-41.64
-37.33
-27.24
-14.05
0.26
14.78
29.14
42.83
54.77
63.54
67.98
67.66
62.94
54.69
43.85
31.13
17.01
1.86
-13.81
-29.17
-43.01
-53.87
-60.37
-61.63
-57.60
-49.13
-37.85
-25.72
-14.50
-5.39
1.25
5.75
8.71
10.64
11.64
11.50
9.97
7.30
4.38
2.65
3.41
7.11
12.95
19.07
23.33
24.23
21.57
16.46
10.66
5.82
2.85
1.76
2.02
3.09
4.80
7.33
11.02
15.99
21.93
28.20
34.01
38.78
42.33
44.97
47.47
50.81
55.81
62.58
69.98
75.57
76.32
69.93
56.44
39.00
23.36
16.20
22.84
45.29
81.35
124.91
167.39
199.87
215.20
209.73
184.06
142.61
92.01
39.09
-10.98
-55.51
-94.11
-127.76
-157.77
-184.98
-209.31
-229.66
-243.99
-249.88
-245.51
-230.82
-208.13
-181.91
-157.37
-138.67
-127.45
-122.53
-120.84
-118.89
-114.16
-105.55
-93.02
-76.84
-57.27
-34.72
-10.59
12.09
28.91
35.39
29.14
11.65
-11.26
-30.96
-39.18
-31.35
-8.56
22.83
54.02
77.55
90.25
93.83
93.25
93.68
98.13
106.66
117.47
128.74
139.80
151.04
162.91
174.94
185.62
193.40
197.85
200.16
202.57
207.30
215.44
226.65
239.43
251.46
259.80
260.99
251.69
229.94
196.51
155.38
112.71
74.45
43.84
20.14
-0.64
-23.56
-52.43
-88.65
-131.25
-177.63
-224.08
-265.85
-297.58
-314.54
-314.76
-300.94
-280.54
-263.53
-258.41
-268.48
-290.45
-315.95
-335.03
-340.12
-328.05
-300.08
-260.12
-212.72
-161.90
-110.92
-62.64
-19.75
15.25
40.62
55.70
61.20
59.06
52.07
43.15
34.60
27.52
21.80
16.62
11.33
6.15
2.08
0.11
0.00
-0.35
-4.43
-15.52
-34.75
-60.07
-86.78
-109.23
-122.87
-125.32
-116.34
-96.91
-68.58
-33.28
6.33
46.65
83.56
113.54
134.79
147.78
154.63
157.93
159.48
159.68
157.93
153.33
145.61
135.39
123.85
112.28
101.48
91.66
82.58
73.87
65.43
57.52
50.68
45.52
42.34
41.00
40.85
40.91
40.16
37.71
33.01
25.84
16.43
5.50
-5.73
-15.82
-23.51
-28.15
-29.92
-29.64
-28.20
-26.10
-23.14
-18.62
-11.73
-2.05
10.09
23.28
35.12
42.39
41.82
31.34
11.37
-14.33
-39.04
-55.00
-56.24
-41.01
-12.63
21.99
55.27
82.09
101.44
116.03
130.28
147.76
169.61
194.39
219.18
240.92
257.28
266.83
268.57
261.75
245.91
221.18
188.40
148.93
103.93
53.87
-1.41
-61.64
-124.50
-184.56
-233.81
-264.05
-269.98
-251.77
-215.56
-171.67
-131.47
-104.18
-94.70
-103.10
-125.76
-157.20
-191.93
-225.71
-255.87
-280.64
-298.14
-305.72
-300.43
-280.49
-247.29
-206.32
-165.95
-134.41
-116.15
-109.78
-108.52
-103.22
-86.07
-53.40
-6.30
50.57
111.08
169.18
219.65
258.02
280.60
284.98
270.73
240.11
198.12
151.69
108.26
74.09
52.90
45.24
48.50
57.76
67.14
71.44
67.51
54.95
36.04
14.80
-4.39
-18.00
-24.15
-22.92
-16.01
-6.28
3.03
9.20
10.70
7.52
1.04
-6.65
-13.59
-18.64
-21.77
-23.80
-25.83
-28.78
-33.04
-38.49
-44.68
-51.05
-57.05
-62.34
-66.83
-70.76
-74.64
-78.98
-84.04
-89.51
-94.59
-98.10
-98.94
-96.36
-90.23
-80.97
-69.42
-56.61
-43.55
-31.15
-20.24
-11.52
-5.45
-2.24
-1.70
-3.36
-6.67
-11.19
-16.79
-23.53
-31.38
-39.98
-48.46
-55.62
-60.37
-62.16
-61.31
-58.88
-56.41
-55.33
-56.52
-59.93
-64.46
-68.23
-69.09
-65.18
-55.53
-40.23
-20.40
2.13
25.32
47.30
66.64
82.40
94.16
101.90
105.94
106.75
104.83
100.74
95.14
88.85
82.76
77.62
73.69
70.46
66.81
61.39
53.28
42.45
29.85
17.05
5.46
-4.22
-12.17
-19.21
-26.12
-33.06
-39.39
-43.86
-45.23
-42.86
-37.17
-29.50
-21.71
-15.57
-12.13
-11.50
-12.86
-14.80
-15.78
-14.60
-10.79
-4.68
2.62
9.60
14.90
17.79
18.46
17.92
17.58
18.68
21.79
26.63
32.27
37.54
41.40
43.20
42.86
40.76
37.79
34.99
33.18
32.27
30.89
26.69
17.32
1.99
-17.51
-36.76
-50.08
-52.71
-42.66
-21.54
6.07
34.17
57.11
71.06
74.54
68.46
55.53
39.49
24.20
12.72
6.78
6.54
10.84
17.67
24.81
30.31
32.87
32.13
28.76
24.22
20.35
18.58
19.38
22.02
24.90
26.32
25.17
21.33
15.64
9.43
3.93
-0.20
-3.06
-5.39
-8.14
-12.02
-17.16
-22.99
-28.47
-32.52
-34.51
-34.55
-33.46
-32.41
-32.35
-33.59
-35.69
-37.64
-38.29
-36.87
-33.21
-27.84
-21.76
-16.05
-11.61
-8.93
-8.02
-8.53
-9.81
-11.10
-11.65
-10.97
-8.98
-6.13
-3.21
-1.03
-0.00
0.12
0.10
0.78
2.64
5.47
8.54
10.98
12.25
12.36
11.83
11.23
10.91
10.79
10.50
9.71
8.36
6.70
5.12
3.83
2.70
1.28
-0.85
-3.79
-7.23
-10.52
-12.96
-14.19
-14.27
-13.68
-13.06
-13.02
-13.76
-15.01
-16.04
-15.93
-14.03
-10.39
-5.81
-1.59
1.07
1.66
0.63
-0.86
-1.48
-0.35
2.63
6.88
11.57
16.17
20.88
26.54
34.16
44.23
56.16
68.30
78.29
83.80
83.10
75.36
60.74
40.39
16.43
-8.19
-30.07
-46.14
-54.56
-55.24
-49.70
-40.28
-29.23
-17.97
-7.00
3.69
14.23
24.62
34.77
44.60
53.96
62.26
68.27
70.12
65.93
54.66
36.87
15.01
-7.20
-25.88
-38.31
-43.64
-42.89
-38.21
-31.88
-25.65
-20.47
-16.66
-14.20
-12.83
-12.17
-11.75
-11.22
-10.37
-9.10
-7.27
-4.48
-0.22
5.79
13.26
21.10
27.84
32.40
34.78
36.23
38.70
43.81
52.04
62.45
73.06
81.74
86.84
87.20
81.96
70.06
50.23
21.44
-16.69
-63.70
-118.71
-180.67
-248.05
-317.84
-384.72
-441.22
-479.60
-494.76
-486.55
-460.23
-424.47
-387.91
-356.14
-330.59
-309.62
-290.66
-272.01
-253.38
-235.02
-216.76
-197.45
-175.39
-149.31
-118.97
-85.16
-49.24
-12.39
24.77
61.98
98.92
135.09
169.81
202.53
233.04
261.42
287.85
312.40
334.96
355.41
373.72
389.79
403.04
412.25
415.56
411.15
397.91
376.08
347.31
314.34
280.28
248.07
219.79
196.36
177.54
162.39
149.81
139.10
130.06
122.63
116.48
110.76
104.55
97.69
91.44
88.17
90.05
97.45
108.14
118.21
124.18
125.30
124.22
125.49
132.77
146.30
162.39
175.19
179.68
174.05
160.16
141.94
122.96
104.69
86.19
65.21
39.71
9.05
-25.65
-62.03
-97.12
-128.19
-153.07
-170.30
-178.87
-178.04
-167.50
-148.08
-122.39
-95.05
-71.88
-58.11
-56.35
-65.57
-81.37
-97.82
-109.76
-114.67
-113.20
-108.31
-103.61
-101.65
-102.85
-105.50
-106.60
-103.23
-93.94
-79.24
-61.40
-43.51
-28.58
-18.92
-16.00
-20.66
-33.07
-52.78
-78.58
-108.71
-141.14
-173.81
-204.66
-231.57
-252.60
-266.18
-271.40
-268.08
-256.27
-235.88
-206.91
-170.37
-128.83
-86.06
-45.60
-9.10
23.91
54.45
81.63
101.39
108.05
98.30
75.02
48.19
31.26
34.68
60.32
100.05
139.71
165.88
171.92
159.80
137.45
113.77
94.26
79.45
66.27
51.02
32.09
10.65
-10.34
-27.93
-40.71
-49.21
-55.13
-60.09
-64.66
-68.13
-69.15
-66.83
-61.48
-54.85
-49.46
-47.38
-49.26
-53.89
-58.73
-61.06
-59.19
-53.10
-44.34
-35.31
-28.20
-24.12
-22.84
-23.14
-23.54
-23.12
-21.93
-20.89
-21.12
-23.39
-27.64
-33.20
-39.32
-45.60
-52.21
-59.54
-67.79
-76.68
-85.65
-94.22
-102.11
-108.88
-113.42
-113.70
-107.32
-92.80
-70.58
-43.33
-14.81
11.72
34.85
55.13
74.08
92.70
110.64
126.39
138.33
145.71
148.97
149.29
147.70
144.64
140.15
134.47
128.45
123.59
121.30
122.17
125.73
130.75
135.93
140.38
143.67
145.56
145.91
144.82
143.07
142.23
143.99
149.27
157.27
165.56
170.94
170.73
163.35
148.19
124.80
92.58
51.49
3.21
-47.82
-94.98
-131.45
-152.74
-158.29
-151.38
-137.29
-120.71
-104.12
-87.56
-69.85
-50.58
-31.37
-16.09
-9.56
-15.50
-34.34
-62.36
-92.37
-116.26
-128.37
-128.12
-120.62
-114.50
-118.18
-136.06
-167.30
-207.00
-249.13
-289.13
-324.47
-353.51
-373.76
-381.37
-372.23
-344.19
-298.56
-240.09
-175.60
-112.36
-56.90
-14.46
11.90
22.23
20.68
14.95
13.96
24.11
46.58
76.90
107.62
132.13
147.69
155.81
160.18
163.88
167.42
169.01
166.38
158.78
147.79
136.65
128.54
124.94
124.92
125.64
123.87
117.60
106.91
93.81
81.24
71.77
66.57
65.08
65.51
65.69
63.92
59.55
53.08
45.84
39.47
35.25
33.50
33.31
32.92
30.46
25.04
17.25
9.00
2.48
-1.15
-2.44
-3.43
-6.31
-12.10
-19.89
-27.32
-31.91
-32.42
-29.50
-25.27
-22.11
-21.65
-24.28
-29.53
-36.69
-45.13
-54.19
-62.77
-69.10
-71.03
-66.68
-55.42
-38.29
-17.87
2.48
19.81
32.51
40.68
45.85
50.09
55.08
61.39
68.47
74.98
79.41
80.52
77.44
69.89
58.74
46.65
38.28
39.42
54.91
86.38
131.12
182.70
233.37
276.64
308.92
329.38
338.71
337.80
327.35
308.55
283.85
257.12
232.65
213.67
201.24
194.26
190.30
186.94
182.66
177.13
170.88
164.79
159.49
155.19
151.63
148.23
144.57
140.56
136.65
133.65
132.43
133.47
136.49
140.42
143.57
144.21
141.06
133.71
122.62
108.76
92.99
75.49
55.55
31.74
2.64
-32.44
-72.88
-116.78
-161.62
-205.14
-246.14
-284.69
-321.89
-359.03
-397.31
-437.55
-480.33
-525.65
-572.06
-615.99
-651.92
-673.96
-678.38
-665.77
-641.38
-613.03
-587.62
-568.17
-552.99
-537.39
-516.61
-488.31
-453.09
-413.38
-371.57
-329.01
-286.00
-242.74
-200.01
-159.05
-120.89
-85.35
-50.64
-13.70
28.67
78.31
134.23
192.05
244.76
284.66
306.16
308.13
294.60
273.32
252.76
238.80
232.67
231.26
229.30
222.27
208.55
189.64
168.82
149.14
132.11
117.68
105.15
94.21
85.37
79.34
76.20
74.77
73.04
69.15
62.45
53.84
45.14
38.20
33.98
32.38
32.56
33.54
34.46
34.62
33.58
31.25
28.16
25.46
24.60
26.70
31.64
37.56
41.19
38.97
28.68
10.65
-12.03
-34.56
-52.43
-63.06
-66.55
-65.01
-61.03
-56.20
-50.64
-43.58
-34.51
-24.02
-13.78
-5.63
-0.58
1.64
2.24
2.46
2.86
3.06
2.11
-0.77
-5.59
-11.47
-16.99
-20.87
-22.54
-22.39
-21.62
-21.64
-23.46
-27.23
-32.14
-36.79
-39.91
-40.92
-40.29
-39.38
-39.65
-41.70
-44.88
-47.71
-48.95
-48.83
-49.26
-52.87
-61.21
-73.55
-86.86
-97.43
-102.68
-102.30
-97.75
-90.74
-81.58
-68.95
-50.82
-25.97
5.06
40.46
78.65
119.74
165.40
217.27
274.46
331.98
381.39
413.48
421.94
405.82
369.68
321.16
267.53
213.04
158.70
104.10
49.88
-0.81
-43.05
-72.26
-86.38
-86.88
-77.93
-64.48
-50.54
-38.39
-28.70
-21.41
-16.35
-13.40
-12.38
-12.89
-14.23
-15.57
-16.31
-16.14
-15.19
-13.87
-12.58
-11.69
-11.56
-12.30
-13.71
-15.44
-17.24
-19.08
-21.07
-22.92
-24.05
-24.27
-23.70
-22.91
-23.02
-24.94
-28.69
-33.15
-36.14
-36.04
-33.62
-31.00
-30.30
-33.13
-39.90
-50.33
-64.29
-81.48
-101.67
-125.04
-149.27
-168.70
-177.01
-170.05
-148.62
-118.96
-89.56
-68.13
-59.72
-63.00
-70.86
-75.41
-71.84
-60.29
-50.78
-53.06
-61.57
-70.16
-77.26
-80.21
-78.33
-73.15
-67.18
-62.13
-56.94
-48.79
-36.12
-17.85
6.64
36.09
67.95
99.45
128.64
155.93
183.36
212.39
244.43
280.53
319.95
360.40
398.85
432.39
459.29
478.40
487.69
485.01
468.96
439.03
396.38
343.95
285.36
223.84
161.20
98.10
36.24
-19.87
-63.27
-86.90
-86.87
-65.06
-29.18
9.58
40.31
56.08
55.52
41.97
21.19
-1.03
-20.34
-34.27
-42.10
-44.45
-43.07
-40.56
-39.77
-42.98
-51.40
-64.67
-80.97
-97.82
-112.92
-125.07
-134.75
-144.17
-156.18
-172.77
-193.35
-214.27
-229.63
-233.57
-222.81
-197.97
-163.02
-123.25
-83.03
-44.73
-9.32
22.13
47.32
62.96
66.48
57.79
39.97
18.15
-2.57
-19.15
-31.18
-40.02
-47.24
-53.25
-57.18
-57.80
-55.11
-51.15
-49.62
-54.19
-66.57
-85.41
-106.60
-125.10
-136.80
-139.80
-134.53
-123.05
-108.12
-92.54
-78.93
-69.35
-65.07
-66.12
-71.10
-77.41
-81.96
-82.12
-76.57
-65.74
-51.63
-37.28
-25.79
-19.26
-17.91
-20.00
-22.37
-21.74
-16.03
-4.94
9.72
24.50
34.87
36.44
26.65
6.40
-19.13
-41.50
-51.81
-44.38
-19.17
17.95
57.51
90.04
109.15
112.99
103.61
85.31
62.92
40.65
21.71
8.18
0.87
-0.85
1.16
4.27
6.11
5.04
0.61
-6.61
-15.38
-24.12
-31.34
-36.06
-38.22
-38.97
-40.53
-45.58
-56.32
-73.52
-96.06
-121.14
-145.01
-164.16
-176.03
-179.18
-173.18
-158.06
-134.08
-101.46
-60.49
-12.13
41.37
96.18
147.19
189.17
218.09
231.99
230.65
214.46
183.46
137.79
79.36
14.00
-48.07
-94.45
-115.09
-107.02
-75.78
-33.13
7.96
38.15
53.95
56.78
50.20
37.08
18.78
-3.96
-29.65
-55.24
-77.16
-93.27
-104.74
-116.35
-134.84
-165.49
-208.85
-259.21
-305.94
-337.10
-344.17
-325.36
-285.96
-235.37
-182.74
-133.51
-88.44
-44.95
0.41
49.72
102.75
157.29
209.99
257.42
296.90
327.06
347.79
359.58
362.74
356.84
341.01
314.94
279.92
239.33
197.95
160.43
129.94
107.66
93.32
86.33
86.16
91.65
99.83
105.72
103.46
88.99
62.61
29.58
-1.84
-23.95
-33.04
-30.93
-23.48
-17.86
-19.78
-32.26
-56.09
-90.38
-132.46
-177.11
-216.35
-240.87
-243.10
-220.68
-177.89
-124.45
-71.99
-30.28
-4.49
5.36
3.35
-4.32
-11.16
-12.02
-4.35
11.36
31.82
52.16
67.93
76.67
78.49
75.38
69.89
63.89
58.31
53.37
49.16
45.95
43.98
43.14
42.92
42.47
40.84
37.40
32.12
25.56
18.74
12.69
8.10
4.99
2.75
0.43
-2.77
-7.19
-12.61
-18.44
-24.15
-29.52
-34.68
-40.01
-45.84
-52.28
-59.13
-65.97
-72.19
-77.19
-80.55
-82.06
-81.79
-79.93
-76.64
-71.91
-65.59
-57.51
-47.77
-36.86
-25.65
-15.15
-6.22
0.72
5.63
8.73
10.24
10.30
8.96
6.39
3.00
-0.55
-3.49
-5.24
-5.67
-5.07
-3.96
-2.69
-1.19
0.96
4.13
8.36
13.09
17.44
20.60
22.33
23.09
23.72
24.86
26.40
27.39
26.41
22.32
14.98
5.72
-3.04
-8.72
-9.57
-5.39
2.37
11.25
18.82
23.43
24.53
22.45
18.01
12.28
6.58
2.50
1.71
5.38
13.64
25.19
37.60
48.18
54.83
56.58
53.66
47.09
38.22
28.39
18.72
10.06
3.07
-1.86
-4.70
-5.96
-6.87
-9.37
-15.55
-26.45
-41.04
-55.61
-64.66
-63.00
-48.20
-21.96
10.45
42.41
68.64
86.68
96.91
101.04
100.80
97.26
91.11
83.19
74.48
65.10
53.27
35.22
6.81
-33.83
-84.13
-136.71
-181.59
-210.10
-218.34
-208.74
-188.69
-167.27
-151.68
-145.35
-148.28
-158.67
-174.58
-194.38
-215.81
-235.10
-247.03
-246.24
-229.32
-196.28
-150.19
-95.63
-36.61
24.52
86.38
146.49
199.79
238.91
256.79
250.31
223.00
184.73
148.33
124.64
118.41
127.12
143.10
157.57
164.41
161.76
151.31
136.17
118.88
100.77
82.33
64.11
47.25
33.14
22.65
15.72
11.41
8.31
5.20
1.56
-2.37
-6.05
-9.08
-11.55
-14.05
-17.29
-21.65
-26.82
-31.84
-35.52
-37.05
-36.50
-34.85
-33.54
-33.79
-36.05
-39.84
-44.09
-47.63
-49.59
-49.65
-47.91
-44.84
-41.04
-37.12
-33.51
-30.33
-27.35
-24.20
-20.51
-16.18
-11.34
-6.15
-0.81
4.66
10.20
15.52
20.07
23.24
24.61
24.29
22.82
21.00
19.63
19.13
19.53
20.50
21.54
22.15
21.97
20.73
18.25
14.26
8.44
0.66
-8.80
-19.09
-28.93
-36.96
-42.14
-43.95
-42.16
-36.66
-27.33
-14.44
0.93
16.73
30.44
40.04
44.84
45.66
44.24
42.37
41.56
43.20
48.97
60.71
79.52
104.67
133.23
160.96
184.24
201.50
213.27
220.69
223.56
219.51
204.86
177.10
137.16
90.15
43.97
6.30
-18.14
-29.03
-29.85
-26.27
-24.48
-29.96
-46.62
-75.82
-115.33
-158.76
-196.51
-218.41
-217.40
-192.52
-149.77
-99.95
-54.70
-22.46
-6.45
-5.10
-13.85
-26.87
-37.91
-40.73
-30.04
-3.61
35.40
78.13
112.85
129.78
126.01
106.82
82.90
64.55
56.55
56.40
56.80
50.76
35.68
14.09
-9.11
-30.46
-50.34
-72.20
-99.45
-132.26
-166.56
-195.48
-212.75
-215.51
-205.22
-186.29
-163.63
-140.28
-116.92
-92.91
-68.01
-43.62
-22.58
-7.87
-1.08
-1.74
-7.41
-14.85
-21.09
-24.33
-24.05
-20.70
-15.38
-9.44
-4.15
-0.34
1.80
2.87
4.00
6.32
10.47
16.23
22.60
28.30
32.37
34.51
35.11
34.92
34.63
34.60
34.78
34.85
34.48
33.53
32.12
30.63
29.54
29.22
29.73
30.65
31.20
30.49
27.89
23.32
17.36
11.08
5.68
2.17
1.01
2.08
4.71
7.81
10.22
10.91
9.41
5.85
1.02
-4.01
-8.32
-11.54
-13.88
-15.88
-18.02
-20.35
-22.53
-24.12
-24.93
-25.21
-25.46
-26.11
-27.20
-28.42
-29.29
-29.50
-29.09
-28.38
-27.83
-27.82
-28.58
-30.17
-32.55
-35.61
-39.09
-42.69
-46.14
-49.35
-52.47
-55.80
-59.64
-64.08
-68.96
-73.99
-79.02
-84.08
-89.46
-95.50
-102.35
-110.04
-118.65
-128.53
-140.12
-153.44
-167.36
-179.32
-185.72
-183.11
-169.53
-145.31
-112.91
-75.96
-37.96
-1.33
32.81
64.30
93.46
120.82
147.27
174.35
204.35
240.00
283.37
334.40
389.89
443.53
487.42
514.80
522.61
512.58
490.46
463.46
437.47
415.35
396.83
379.85
362.21
342.59
320.64
296.53
270.44
242.55
213.35
183.87
155.67
130.52
110.02
95.08
85.73
81.14
79.86
80.30
81.09
81.51
81.45
81.33
81.60
82.53
84.03
85.73
87.24
88.39
89.35
90.55
92.48
95.48
99.51
104.15
108.74
112.57
115.07
115.96
115.23
113.10
109.87
105.79
101.04
95.69
89.78
83.39
76.63
69.71
62.81
56.02
49.31
42.54
35.51
28.09
20.30
12.34
4.49
-3.01
-10.09
-17.03
-24.29
-32.43
-41.82
-52.53
-64.25
-76.43
-88.56
-100.46
-112.33
-125.23
-140.18
-157.68
-177.33
-198.06
-218.61
-238.00
-255.85
-272.40
-288.84
-306.52
-326.66
-350.06
-376.95
-406.69
-437.28
-465.25
-486.17
-497.08
-496.66
-485.65
-466.42
-442.16
-415.84
-389.37
-363.46
-337.94
-315.59
-298.89
-288.61
-282.96
-278.53
-272.13
-262.00
-247.91
-230.46
-216.65
-211.97
-217.67
-230.07
-243.40
-253.75
-260.89
-267.27
-276.26
-300.45
-348.75
-422.00
-511.36
-602.65
-682.95
-744.52
-785.25
-807.56
-829.86
-869.21
-934.09
-1020.45
-1115.68
-1206.70
-1284.85
-1346.56
-1310.47
-1128.38
-801.13
-386.18
36.39
406.35
698.31
912.55
1061.34
1160.14
1210.65
1215.07
1180.74
1122.49
1057.81
999.50
952.73
917.09
889.89
858.67
814.15
754.15
683.77
611.95
545.65
487.26
435.81
388.88
337.90
278.67
211.22
142.57
84.14
46.20
33.55
44.11
70.06
97.86
115.95
118.46
107.02
87.98
67.91
50.69
37.19
26.56
16.83
7.22
-2.19
-10.64
-17.91
-24.56
-31.47
-39.03
-46.57
-52.85
-56.38
-56.65
-53.97
-49.68
-45.05
-40.84
-36.04
-28.95
-18.23
-3.24
15.06
34.74
53.04
67.97
79.03
87.42
95.46
105.44
119.68
137.43
157.27
174.42
181.86
172.51
142.29
94.33
34.77
-25.00
-72.24
-97.76
-99.62
-83.08
-57.78
-33.65
-16.96
-9.29
-7.49
-6.45
-2.53
4.80
13.75
22.14
28.76
34.20
39.82
46.88
56.16
67.13
79.00
91.34
104.41
117.94
130.28
138.04
133.66
115.59
86.99
54.35
24.57
2.67
-9.98
-14.95
-15.17
-13.01
-9.06
-3.76
1.98
6.20
7.35
4.44
-2.13
-10.82
-20.02
-28.05
-34.61
-40.40
-46.99
-55.01
-64.16
-73.06
-79.29
-80.77
-76.01
-64.75
-44.35
-17.14
13.38
43.47
70.17
92.14
108.32
118.18
121.76
119.29
110.60
96.11
75.80
49.55
17.89
-15.68
-48.24
-77.49
-101.18
-117.81
-126.00
-126.09
-124.82
-122.51
-119.24
-114.99
-109.33
-100.99
-89.12
-73.39
-56.23
-41.53
-33.45
-36.90
-52.18
-80.99
-124.35
-182.03
-243.00
-293.82
-320.60
-314.66
-276.91
-216.63
-147.80
-83.27
-30.98
7.79
33.41
51.72
66.97
80.56
92.44
102.03
109.76
116.79
124.52
132.59
137.34
134.83
122.79
102.11
76.28
50.30
29.14
15.52
9.73
10.55
15.65
22.68
30.18
37.40
44.46
51.68
59.75
68.72
78.10
86.78
93.54
97.64
98.65
96.58
88.64
73.09
49.56
19.35
-15.12
-51.38
-87.13
-120.64
-150.54
-176.11
-196.67
-211.85
-221.80
-227.05
-228.28
-225.60
-219.74
-209.55
-193.95
-172.09
-144.12
-111.23
-75.52
-39.74
-6.18
23.69
49.03
69.20
84.05
93.63
98.21
98.67
92.73
81.05
66.76
54.23
47.88
51.56
67.71
97.17
139.34
192.59
248.53
298.67
335.34
353.74
353.34
337.00
309.09
273.73
234.03
192.67
152.64
116.62
86.69
63.92
47.89
36.87
28.39
20.03
10.42
0.08
-9.37
-16.02
-18.54
-16.94
-12.67
-8.01
-5.03
-4.86
-6.90
-9.54
-10.94
-9.68
-5.02
3.15
14.22
26.32
36.02
38.83
30.54
9.45
-22.05
-57.76
-89.79
-111.80
-121.37
-120.43
-113.32
-104.23
-95.36
-86.72
-77.47
-67.31
-57.19
-48.69
-42.91
-39.62
-37.33
-34.19
-28.69
-20.78
-11.51
-2.63
4.30
8.65
10.87
12.26
14.16
17.23
20.83
23.50
23.37
19.10
10.43
-1.59
-15.07
-28.01
-38.62
-46.92
-53.71
-60.20
-67.27
-74.92
-82.24
-87.83
-90.98
-91.11
-89.06
-86.27
-84.29
-84.34
-87.18
-93.05
-101.36
-110.21
-116.08
-114.89
-103.22
-80.41
-49.43
-16.31
12.17
31.23
39.78
40.26
36.54
31.90
27.58
23.16
17.65
10.95
4.13
-1.12
-3.64
-3.70
-2.65
-2.23
-3.58
-6.63
-9.99
-11.76
-9.94
-3.54
7.02
20.25
34.20
47.49
59.27
69.65
79.00
87.82
96.44
105.18
114.75
124.83
135.50
144.19
147.31
139.10
116.09
79.06
33.32
-12.98
-51.98
-78.69
-92.20
-94.12
-86.86
-72.20
-51.43
-26.45
-0.44
22.79
40.50
52.34
60.60
67.62
73.49
74.95
66.61
44.63
9.86
-31.31
-69.30
-95.13
-105.27
-102.70
-94.57
-88.60
-89.13
-95.96
-106.29
-116.97
-125.35
-130.21
-130.78
-126.60
-117.78
-105.44
-91.54
-77.77
-63.52
-44.14
-14.20
28.75
81.15
133.25
172.50
188.54
177.61
139.89
85.53
29.59
-13.50
-34.37
-30.51
-5.73
31.98
70.95
98.75
108.32
99.90
78.91
51.15
20.24
-12.03
-43.79
-72.45
-94.84
-107.84
-110.85
-106.40
-98.98
-93.07
-91.13
-92.29
-93.65
-91.22
-81.04
-61.13
-32.28
2.44
39.02
71.30
96.01
112.40
121.89
127.36
131.58
136.00
140.37
143.13
142.38
137.35
128.29
116.75
105.24
96.11
90.84
89.81
92.60
98.10
104.57
108.63
105.64
91.08
62.92
23.56
-19.99
-58.32
-83.33
-91.45
-85.08
-70.87
-56.24
-46.21
-41.94
-41.72
-43.03
-44.28
-45.21
-46.37
-47.93
-49.15
-48.68
-45.08
-38.04
-28.64
-18.89
-10.92
-6.13
-4.68
-5.43
-6.67
-7.04
-5.98
-4.13
-2.88
-3.62
-7.12
-13.04
-20.10
-26.63
-31.17
-33.06
-32.57
-30.67
-28.52
-27.03
-26.46
-26.45
-26.30
-25.39
-23.42
-20.66
-17.70
-15.18
-13.64
-13.14
-13.46
-14.13
-14.60
-14.25
-12.49
-8.88
-3.22
3.96
11.93
19.85
27.21
34.05
40.80
47.88
55.24
62.25
67.54
70.17
70.05
68.21
66.34
65.95
67.87
71.79
76.67
80.85
83.22
83.42
81.79
79.26
77.07
76.39
77.60
83.04
92.20
102.77
111.44
115.13
112.40
103.83
91.65
78.53
66.44
55.61
45.41
35.15
24.66
14.44
5.35
-1.88
-6.88
-9.56
-10.39
-10.01
-8.98
-7.93
-7.50
-8.25
-10.59
-14.75
-20.71
-28.44
-37.64
-47.74
-58.05
-67.85
-76.59
-83.99
-90.10
-95.20
-99.74
-104.13
-108.49
-112.80
-116.85
-120.44
-123.43
-125.78
-127.54
-128.76
-129.39
-129.30
-128.33
-126.37
-123.52
-120.06
-116.44
-113.04
-110.02
-107.13
-103.69
-98.73
-91.36
-81.30
-68.93
-55.31
-41.84
-29.84
-20.25
-13.37
-8.95
-6.38
-5.16
-4.88
-5.27
-6.04
-6.82
-7.22
-6.91
-5.71
-3.75
-1.67
-0.24
0.11
-0.55
-1.70
-2.71
-3.10
-2.78
-2.06
-2.29
-4.73
-9.77
-16.53
-23.44
-29.03
-32.39
-33.39
-32.64
-32.75
-36.14
-43.57
-53.65
-63.91
-72.23
-77.36
-78.96
-77.37
-75.66
-76.72
-81.34
-87.71
-92.99
-94.79
-91.37
-81.43
-64.28
-43.62
-25.08
-13.77
-12.79
-23.51
-45.92
-77.96
-115.42
-133.41
-114.04
-57.17
19.28
94.45
156.67
203.80
238.55
264.58
284.29
295.51
294.97
282.25
260.34
233.75
206.00
178.65
151.66
123.49
94.56
64.18
32.98
3.51
-21.04
-38.58
-48.59
-51.66
-49.56
-45.65
-43.42
-44.37
-47.68
-51.41
-54.01
-54.78
-53.65
-51.52
-49.82
-50.04
-52.40
-55.79
-58.58
-59.52
-60.42
-60.25
-59.32
-58.35
-57.93
-57.81
-57.01
-54.46
-49.78
-43.45
-36.89
-32.16
-30.73
-33.15
-38.78
-46.33
-54.40
-62.21
-69.69
-77.84
-88.34
-102.77
-122.66
-149.08
-182.02
-219.88
-259.52
-291.91
-308.96
-305.31
-279.99
-237.11
-184.37
-130.05
-80.20
-37.23
-0.64
30.40
55.69
73.80
83.20
83.97
78.59
71.21
65.92
65.05
68.17
73.38
79.20
85.76
94.61
107.21
123.00
138.70
149.35
150.31
139.96
120.79
98.64
80.58
72.80
78.64
97.89
127.02
160.03
189.99
210.94
219.36
215.02
200.62
180.42
158.41
137.14
117.33
98.45
79.64
60.46
41.31
23.62
9.71
2.19
2.84
11.51
25.54
40.49
51.97
57.63
58.03
55.73
53.27
51.41
48.89
43.99
36.67
29.66
27.69
35.33
54.66
84.40
120.46
157.51
190.43
215.21
229.21
231.15
221.15
200.52
171.53
136.70
98.18
57.40
15.34
-26.95
-68.02
-105.94
-138.58
-164.13
-181.27
-189.35
-188.66
-180.49
-167.19
-151.83
-137.41
-126.14
-118.99
-115.88
-116.23
-119.46
-125.22
-133.08
-142.23
-151.27
-158.24
-161.12
-158.21
-148.55
-132.13
-109.85
-83.20
-53.95
-23.48
7.75
40.33
75.22
112.46
150.00
183.59
208.07
219.69
218.14
206.99
191.94
178.09
167.54
158.71
147.99
132.10
110.24
84.39
58.08
34.61
16.00
3.04
-4.04
-5.12
-0.59
8.00
17.62
24.33
24.77
17.82
5.40
-8.16
-17.84
-20.02
-13.91
-1.80
11.96
22.65
26.82
23.26
13.13
-0.68
-14.57
-25.34
-30.92
-30.64
-25.04
-15.56
-4.16
7.27
17.04
24.06
27.85
28.54
26.74
23.36
19.34
15.37
11.83
8.66
5.61
2.34
-1.33
-5.27
-9.14
-12.46
-14.92
-16.49
-17.51
-18.52
-19.88
-21.47
-22.65
-22.46
-20.08
-15.25
-8.49
-0.94
6.04
11.39
14.59
15.76
15.48
14.46
13.31
12.31
11.45
10.42
8.83
6.33
2.88
-1.22
-5.31
-8.61
-10.50
-10.83
-10.01
-8.86
-8.24
-8.63
-9.83
-11.00
-11.03
-8.96
-4.45
2.00
8.89
13.94
14.44
7.82
-7.37
-30.62
-58.90
-87.06
-109.13
-120.25
-118.23
-104.18
-81.63
-54.87
-27.23
-0.21
26.15
52.20
77.56
100.63
119.11
130.66
133.83
128.29
114.68
94.37
69.12
41.01
12.27
-14.84
-38.42
-57.03
-69.94
-77.18
-79.30
-77.47
-73.19
-68.12
-63.67
-60.60
-58.78
-57.35
-55.20
-51.54
-46.33
-40.34
-34.70
-30.38
-27.81
-26.70
-26.28
-25.77
-24.63
-22.82
-20.76
-19.05
-18.19
-18.40
-19.47
-20.87
-22.03
-22.43
-21.90
-20.57
-18.78
-16.93
-15.29
-14.02
-13.12
-12.63
-12.59
-13.04
-13.92
-14.99
-15.90
-16.35
-16.26
-15.79
-15.30
-15.08
-15.27
-15.74
-16.25
-16.62
-16.84
-17.08
-17.54
-18.34
-19.38
-20.48
-21.45
-22.13
-22.47
-22.42
-21.99
-21.14
-19.92
-18.40
-16.73
-15.05
-13.51
-12.15
-11.03
-10.07
-9.11
-7.99
-6.50
-4.63
-2.53
-0.55
0.96
1.78
1.95
1.77
1.60
1.67
1.95
2.23
2.20
1.68
0.64
-0.74
-2.24
-3.70
-5.02
-6.22
-7.36
-8.57
-9.98
-11.61
-13.38
-15.05
-16.29
-16.77
-16.33
-15.02
-13.05
-10.72
-8.29
-5.97
-3.89
-2.14
-0.84
-0.04
0.25
0.14
-0.12
-0.35
-0.42
-0.31
-0.12
0.03
0.07
-0.01
-0.15
-0.25
-0.21
-0.07
0.10
0.20
0.11
-0.16
-0.57
-1.06
-1.61
-2.22
-2.94
-3.77
-4.75
-5.82
-6.98
-8.26
-9.69
-11.24
-12.85
-14.35
-15.58
-16.37
-16.56
-16.02
-14.69
-12.59
-9.88
-6.81
-3.75
-1.02
1.15
2.62
3.40
3.59
3.34
2.85
2.32
1.90
1.67
1.63
1.76
2.04
2.47
3.09
3.85
4.66
5.38
5.90
6.18
6.23
6.10
5.77
5.17
4.25
2.99
1.49
-0.10
-1.67
-3.25
-4.99
-7.13
-9.79
-12.99
-16.47
-19.82
-22.54
-24.25
-24.68
-23.84
-21.92
-19.20
-15.99
-12.52
-8.96
-5.45
-2.07
1.10
3.93
6.35
8.27
9.65
10.53
11.03
11.30
11.54
11.89
12.46
13.24
14.16
15.09
15.93
16.59
17.01
17.12
16.86
16.14
14.97
13.40
11.50
9.40
7.21
4.97
2.67
0.24
-2.41
-5.35
-8.57
-12.01
-15.56
-19.10
-22.45
-25.41
-27.66
-28.86
-28.61
-26.66
-23.00
-17.93
-12.06
-6.09
-0.64
3.97
7.67
10.62
13.01
14.94
16.40
17.38
17.93
18.24
18.59
19.19
20.08
21.15
22.21
23.03
23.55
23.76
23.71
23.42
22.83
21.86
20.46
18.69
16.72
14.75
12.99
11.46
10.11
8.76
7.27
5.58
3.74
1.88
0.14
-1.46
-3.01
-4.75
-6.91
-9.70
-13.08
-16.79
-20.37
-23.23
-24.87
-24.92
-23.26
-20.05
-15.63
-10.51
-5.23
-0.27
4.01
7.46
10.06
11.96
13.31
14.23
14.77
15.03
15.11
15.20
15.51
16.19
17.26
18.58
19.92
21.01
21.60
21.55
20.76
19.27
17.18
14.69
12.11
9.74
7.83
6.45
5.49
4.68
3.81
2.78
1.66
0.63
-0.13
-0.58
-0.82
-1.04
-1.45
-2.24
-3.58
-5.53
-8.15
-11.29
-14.59
-17.46
-19.20
-19.27
-17.43
-13.87
-9.19
-4.14
0.63
4.70
7.99
10.57
12.62
14.21
15.36
16.05
16.26
16.10
15.77
15.52
15.55
15.91
16.56
17.37
18.19
18.91
19.49
19.92
20.14
20.02
19.40
18.13
16.22
13.90
11.52
9.41
7.76
6.54
5.49
4.32
2.81
0.94
-1.11
-3.01
-4.51
-5.47
-6.02
-6.46
-7.20
-8.57
-10.79
-13.82
-17.38
-21.02
-24.13
-26.10
-26.45
-24.91
-21.62
-17.02
-11.74
-6.46
-1.67
2.34
5.52
7.95
9.76
11.06
11.95
12.56
13.00
13.42
13.91
14.57
15.39
16.39
17.49
18.57
19.45
19.98
20.05
19.65
18.85
17.78
16.56
15.31
14.08
12.91
11.84
10.87
9.94
8.91
7.66
6.07
4.14
1.98
-0.22
-2.28
-4.07
-5.56
-6.79
-7.82
-8.78
-9.82
-11.18
-12.98
-15.29
-17.90
-20.32
-21.93
-22.11
-20.47
-16.98
-11.97
-6.02
0.14
5.84
10.50
13.78
15.76
16.83
17.51
18.21
19.06
19.96
20.68
21.03
21.10
21.37
22.48
24.92
28.66
33.26
37.92
41.93
44.68
46.09
46.68
47.43
49.32
52.82
57.85
63.74
69.57
73.82
75.54
75.02
73.80
73.93
77.00
83.67
93.54
105.33
115.59
120.93
119.59
112.16
100.87
88.31
76.61
66.73
58.25
46.90
27.88
-1.53
-40.60
-85.91
-133.03
-177.70
-216.55
-247.82
-274.72
-301.74
-331.22
-362.06
-390.92
-414.34
-429.69
-435.33
-410.23
-342.79
-238.90
-120.36
-11.00
75.95
139.33
184.89
219.99
250.35
275.72
291.83
296.23
290.33
278.75
265.57
253.14
242.09
232.01
219.84
199.50
167.82
126.05
78.33
29.94
-15.07
-54.83
-90.47
-119.45
-146.69
-177.19
-213.13
-254.28
-298.49
-344.58
-393.35
-446.52
-485.10
-495.30
-469.74
-410.92
-329.52
-237.64
-147.04
-67.36
-3.58
45.05
79.94
102.20
117.41
124.00
122.08
111.61
93.91
73.27
56.06
46.15
43.80
45.08
43.74
36.96
28.51
25.22
33.37
55.06
84.72
112.34
128.26
121.58
90.19
40.60
-15.66
-67.68
-109.24
-140.32
-164.03
-184.36
-202.39
-215.62
-221.40
-219.00
-209.78
-196.49
-181.89
-167.44
-154.24
-142.03
-129.04
-113.89
-96.53
-78.23
-60.85
-45.98
-34.49
-26.35
-20.65
-15.87
-10.91
-5.55
-0.37
3.71
6.03
6.32
4.77
2.05
-0.96
-3.57
-5.48
-6.70
-7.36
-7.56
-7.36
-6.85
-6.02
-4.86
-3.39
-1.51
0.90
4.09
8.24
13.39
19.33
25.72
32.20
38.57
44.96
51.79
59.64
68.92
79.70
91.63
104.08
116.43
128.32
139.77
151.14
163.01
176.10
191.17
208.90
229.41
251.79
273.85
292.30
303.77
305.92
298.41
283.00
262.79
240.96
219.73
200.02
181.76
164.73
149.02
135.17
123.70
114.68
107.47
100.95
94.01
85.97
76.76
66.89
57.04
47.70
38.90
30.24
21.24
11.64
1.64
-8.23
-17.33
-25.24
-31.86
-37.27
-41.45
-44.07
-44.58
-42.43
-37.52
-30.37
-22.05
-13.80
-6.58
-0.84
3.48
6.66
9.00
10.66
11.77
12.48
13.07
13.92
15.26
17.01
18.87
20.48
21.70
22.66
23.66
25.01
26.89
29.16
31.40
33.08
33.84
33.57
32.48
30.97
29.45
28.47
28.25
28.62
29.06
28.93
27.67
24.99
20.89
15.84
11.40
9.06
9.76
13.55
19.66
26.95
34.32
40.87
46.52
53.19
62.55
75.27
90.58
106.75
121.95
134.91
144.84
152.29
160.81
173.48
191.75
214.80
239.86
263.21
280.78
288.32
283.53
269.06
248.88
227.01
206.26
187.90
172.19
158.76
146.35
115.70
57.61
-25.36
-119.12
-206.28
-275.64
-324.91
-353.91
-372.30
-387.85
-402.99
-419.19
-437.84
-460.13
-484.84
-507.23
-520.73
-520.78
-505.76
-476.59
-438.28
-397.58
-360.47
-330.26
-307.34
-290.48
-278.83
-271.19
-264.91
-257.23
-245.65
-228.68
-206.32
-180.00
-152.17
-126.13
-104.03
-86.06
-71.23
-58.05
-45.33
-32.76
-20.99
-11.34
-5.35
-3.37
-4.37
-6.12
-5.99
-1.64
8.26
24.02
45.19
70.31
97.20
123.01
144.98
161.54
172.87
180.81
187.71
194.90
201.83
206.49
206.72
201.61
192.00
179.75
166.51
152.80
138.25
122.63
106.78
93.02
84.39
83.62
92.41
111.73
141.47
180.46
225.58
271.28
309.85
333.10
335.22
315.09
277.02
229.21
180.51
137.45
102.53
74.80
51.77
31.54
13.78
-0.80
-11.66
-19.41
-25.72
-32.40
-40.21
-48.41
-55.10
-58.23
-56.86
-51.61
-44.48
-37.91
-33.74
-32.50
-33.35
-34.62
-34.66
-32.61
-28.62
-23.82
-19.63
-17.31
-17.38
-19.50
-22.63
-25.41
-26.70
-25.92
-23.25
-19.42
-15.42
-12.05
-9.76
-8.59
-8.41
-9.16
-10.84
-13.47
-16.90
-20.64
-24.08
-26.64
-28.10
-28.69
-28.98
-29.63
-31.06
-33.32
-36.02
-38.49
-39.95
-39.80
-37.75
-33.92
-28.81
-23.15
-17.67
-12.82
-8.75
-5.30
-2.25
0.57
3.10
5.18
6.69
7.70
8.46
9.28
10.36
11.61
12.76
13.50
13.71
13.58
13.54
14.07
15.42
17.52
19.91
22.04
23.48
24.19
24.54
25.21
26.88
29.89
34.06
38.70
42.86
45.83
47.41
48.12
48.98
51.17
55.47
61.95
69.83
77.77
84.25
88.19
89.31
88.33
86.92
87.23
91.16
99.48
111.02
122.71
130.30
129.85
119.27
99.21
72.55
43.13
13.93
-13.88
-41.09
-69.47
-100.82
-136.41
-176.80
-221.40
-268.12
-313.11
-351.31
-378.06
-390.97
-391.08
-382.19
-368.77
-353.49
-336.06
-314.07
-285.32
-249.93
-210.83
-172.30
-137.52
-107.05
-78.85
-50.03
-18.91
13.76
45.27
72.25
92.46
105.80
114.15
120.26
126.28
132.94
139.35
143.66
144.24
140.52
133.36
124.65
116.42
109.91
105.09
100.75
95.23
87.24
76.47
63.72
50.43
37.99
27.17
17.86
9.30
0.50
-9.15
-19.59
-30.17
-40.03
-48.65
-56.20
-63.53
-71.74
-81.62
-93.26
-106.01
-118.78
-130.52
-140.45
-148.11
-153.33
-156.41
-158.53
-161.75
-168.32
-179.30
-193.22
-205.71
-210.72
-202.83
-179.34
-141.22
-92.13
-36.57
21.67
79.79
135.21
184.61
223.99
249.80
260.51
257.49
244.32
225.09
202.79
178.77
153.35
127.16
101.91
80.16
64.12
54.21
48.63
44.04
37.29
26.90
13.80
0.73
-9.14
-13.38
-10.92
-1.86
13.04
32.50
54.75
77.54
98.38
115.07
126.38
132.23
133.52
131.60
127.75
122.86
117.36
111.17
103.66
93.73
80.16
62.34
40.93
18.00
-3.45
-20.56
-31.68
-36.87
-37.63
-36.15
-34.46
-33.79
-34.43
-35.97
-37.73
-39.15
-39.91
-40.01
-39.65
-39.11
-38.64
-38.43
-38.48
-38.62
-38.46
-37.49
-35.25
-31.43
-26.10
-19.69
-12.96
-6.77
-1.82
1.57
3.47
4.26
4.36
4.14
3.78
3.42
3.15
3.07
3.23
3.55
3.80
3.70
3.06
1.91
0.52
-0.72
-1.41
-1.30
-0.39
0.99
2.31
2.95
2.43
0.62
-2.21
-5.52
-8.76
-11.55
-13.72
-15.30
-16.32
-16.76
-16.58
-15.87
-14.92
-14.14
-13.98
-14.71
-16.34
-18.63
-21.18
-23.57
-25.39
-26.36
-26.33
-25.27
-23.29
-20.56
-17.31
-13.81
-10.38
-7.38
-5.11
-3.77
-3.34
-3.58
-4.08
-4.43
-4.40
-3.98
-3.38
-2.82
-2.47
-2.34
-2.27
-2.04
-1.53
-0.72
0.29
1.35
2.36
3.16
3.62
3.60
2.97
1.69
-0.11
-2.17
-4.11
-5.58
-6.35
-6.41
-6.00
-5.52
-5.37
-5.80
-6.77
-8.00
-9.15
-10.03
-10.71
-11.48
-12.56
-13.92
-15.15
-15.63
-14.78
-12.42
-8.84
-4.71
-0.81
2.22
4.08
4.74
4.39
3.29
1.65
-0.33
-2.47
-4.59
-6.48
-7.94
-8.81
-9.02
-8.57
-7.53
-6.01
-4.20
-2.34
-0.74
0.29
0.58
0.09
-0.97
-2.26
-3.41
-4.18
-4.53
-4.56
-4.49
-4.52
-4.81
-5.47
-6.53
-7.92
-9.50
-11.11
-12.61
-14.00
-15.43
-17.04
-18.93
-20.91
-22.61
-23.55
-23.39
-22.02
-19.65
-16.64
-13.34
-10.00
-6.73
-3.57
-0.61
1.99
4.01
5.29
5.79
5.64
5.11
4.47
3.95
3.65
3.61
3.83
4.33
5.11
6.14
7.27
8.26
8.84
8.82
8.18
7.08
5.78
4.52
3.45
2.50
1.53
0.33
-1.20
-2.97
-4.72
-6.17
-7.14
-7.72
-8.27
-9.19
-10.78
-13.04
-15.64
-18.10
-19.89
-20.69
-20.38
-18.98
-16.67
-13.66
-10.24
-6.69
-3.38
-0.57
1.53
2.87
3.53
3.68
3.54
3.25
2.88
2.45
1.97
1.52
1.23
1.25
1.70
2.56
3.70
4.87
5.82
6.35
6.39
5.97
5.22
4.27
3.23
2.13
0.96
-0.33
-1.75
-3.29
-4.91
-6.55
-8.25
-10.09
-12.17
-14.58
-17.33
-20.29
-23.23
-25.81
-27.64
-28.33
-27.56
-25.20
-21.36
-16.48
-11.14
-6.01
-1.56
1.95
4.60
6.61
8.27
9.75
11.11
12.27
13.11
13.49
13.38
12.87
12.23
11.86
12.16
13.32
15.23
17.38
19.13
19.90
19.47
18.06
16.11
14.12
12.37
10.87
9.46
7.89
6.06
3.95
1.70
-0.53
-2.63
-4.60
-6.56
-8.77
-11.50
-14.90
-18.87
-22.99
-26.60
-28.96
-29.52
-28.01
-24.57
-19.64
-13.88
-7.99
-2.59
1.89
5.26
7.61
9.24
10.59
11.99
13.57
15.21
16.60
17.45
17.69
17.47
17.17
17.17
17.67
18.64
19.80
20.82
21.40
21.42
20.94
20.07
18.94
17.60
16.00
14.11
11.93
9.55
7.12
4.78
2.65
0.74
-0.97
-2.57
-4.17
-6.01
-8.28
-11.13
-14.52
-18.15
-21.48
-23.90
-24.90
-24.27
-22.11
-18.77
-14.66
-10.19
-5.65
-1.28
2.73
6.22
9.09
11.34
13.05
14.31
15.17
15.64
15.74
15.53
15.26
15.22
15.67
16.75
18.30
19.99
21.39
22.09
21.90
20.86
19.18
17.15
15.07
13.13
11.39
9.80
8.22
6.51
4.59
2.51
0.39
-1.69
-3.71
-5.83
-8.26
-11.15
-14.45
-17.86
-20.97
-23.30
-24.52
-24.49
-23.20
-20.74
-17.19
-12.65
-7.37
-1.72
3.74
8.39
11.75
13.58
14.03
13.56
12.74
12.09
11.88
12.09
12.56
13.08
13.62
14.26
15.11
16.17
17.25
18.02
18.12
17.38
15.85
13.86
11.83
10.09
8.80
7.90
7.14
6.24
5.03
3.51
1.83
0.10
-1.60
-3.29
-5.06
-6.97
-9.01
-11.20
-13.59
-16.26
-19.26
-22.50
-25.62
-28.12
-29.47
-29.26
-27.35
-23.87
-19.15
-13.68
-7.95
-2.48
2.32
6.13
8.85
10.57
11.54
12.10
12.55
13.02
13.48
13.80
13.88
13.80
13.82
14.29
15.43
17.16
19.09
20.63
21.28
20.80
19.36
17.36
15.29
13.47
12.01
10.81
9.69
8.50
7.20
5.80
4.32
2.71
0.92
-1.11
-3.33
-5.59
-7.74
-9.69
-11.51
-13.39
-15.51
-17.92
-20.43
-22.62
-23.96
-24.03
-22.63
-19.87
-16.09
-11.76
-7.30
-3.07
0.70
3.82
6.20
7.85
8.86
9.40
9.64
9.68
9.55
9.27
8.94
8.75
8.94
9.70
10.96
12.45
13.79
14.61
14.80
14.43
13.73
12.94
12.13
11.27
10.23
8.93
7.41
5.83
4.41
3.28
2.41
1.61
0.59
-0.86
-2.77
-5.04
-7.45
-9.83
-12.13
-14.39
-16.71
-19.07
-21.26
-22.87
-23.45
-22.59
-20.19
-16.50
-12.01
-7.40
-3.19
0.32
3.05
5.11
6.71
8.01
9.12
10.06
10.74
11.07
10.95
10.39
9.55
8.79
8.47
8.88
10.06
11.77
13.55
14.88
15.33
14.72
13.15
10.91
8.44
6.10
4.11
2.50
1.18
0.01
-1.10
-2.17
-3.22
-4.27
-5.40
-6.71
-8.28
-10.16
-12.37
-14.85
-17.50
-20.12
-22.47
-24.28
-25.32
-25.38
-24.32
-22.06
-18.64
-14.28
-9.43
-4.66
-0.51
2.66
4.83
6.20
7.08
7.66
7.99
7.98
7.56
6.82
5.98
5.35
5.26
5.84
7.08
8.74
10.47
11.86
12.58
12.45
11.53
10.06
8.41
6.90
5.70
4.76
3.92
3.02
1.97
0.76
-0.57
-1.99
-3.54
-5.22
-6.95
-8.64
-10.19
-11.65
-13.19
-15.00
-17.16
-19.52
-21.73
-23.41
-24.22
-23.97
-22.60
-20.12
-16.62
-12.40
-7.87
-3.61
-0.16
2.19
3.45
3.95
4.11
4.27
4.52
4.72
4.72
4.46
4.09
3.93
4.26
5.19
6.57
8.04
9.16
9.63
9.38
8.61
7.60
6.65
5.89
5.31
4.78
4.14
3.29
2.25
1.08
-0.13
-1.29
-2.38
-3.36
-4.22
-4.94
-5.53
-6.14
-7.00
-8.37
-10.41
-13.08
-16.14
-19.12
-21.51
-22.85
-22.85
-21.48
-18.98
-15.81
-12.51
-9.53
-7.09
-5.17
-3.64
-2.38
-1.50
-1.28
-2.01
-3.81
-6.38
-9.11
-11.27
-12.37
-12.51
-12.28
-12.66
-14.44
-17.88
-22.46
-27.12
-30.84
-33.16
-34.62
-36.48
-40.33
-47.26
-57.46
-70.02
-83.26
-95.24
-104.24
-109.29
-110.61
-110.14
-111.57
-119.75
-139.08
-171.47
-214.59
-261.56
-302.72
-328.65
-333.58
-317.20
-284.49
-243.49
-202.35
-167.06
-140.57
-123.24
-113.82
-110.33
-110.33
-110.97
-109.08
-101.60
-86.30
-62.40
-30.70
6.93
48.31
91.85
137.25
185.46
237.96
295.36
356.06
415.57
467.20
504.01
521.29
518.33
498.74
468.86
435.36
402.96
373.33
345.55
317.39
286.88
253.21
216.85
179.10
141.50
105.43
71.98
41.96
15.98
-5.47
-22.28
-34.86
-44.22
-51.78
-58.91
-66.38
-74.01
-80.76
-85.16
-86.06
-83.07
-76.77
-68.41
-59.43
-51.01
-43.80
-37.94
-33.20
-29.31
-26.10
-23.49
-21.56
-20.31
-19.69
-19.50
-19.50
-19.43
-19.19
-18.76
-18.31
-18.01
-17.98
-18.24
-18.70
-19.23
-19.73
-20.18
-20.58
-20.91
-21.07
-20.95
-20.49
-19.77
-19.07
-18.73
-18.99
-19.89
-21.22
-22.60
-23.61
-24.02
-23.76
-22.92
-21.63
-20.01
-18.14
-16.05
-13.81
-11.48
-9.19
-7.11
-5.37
-4.08
-3.30
-2.97
-2.95
-2.99
-2.89
-2.48
-1.74
-0.78
0.24
1.15
1.83
2.28
2.55
2.72
2.83
2.85
2.72
2.35
1.68
0.69
-0.59
-2.10
-3.75
-5.45
-7.14
-8.83
-10.55
-12.38
-14.35
-16.44
-18.48
-20.24
-21.42
-21.78
-21.17
-19.58
-17.13
-14.04
-10.57
-6.99
-3.55
-0.48
1.96
3.55
4.13
3.59
1.95
-0.65
-3.93
-7.54
-11.09
-14.20
-16.57
-18.06
-18.70
-18.67
-18.23
-17.61
-16.97
-16.44
-16.14
-16.24
-16.93
-18.26
-20.07
-21.98
-23.45
-24.02
-23.42
-21.69
-19.11
-16.08
-12.99
-10.14
-7.78
-6.07
-5.05
-4.62
-4.48
-4.24
-3.48
-1.95
0.37
3.27
6.46
9.59
12.45
14.90
16.86
18.24
18.96
19.01
18.48
17.58
16.59
15.72
15.10
14.70
14.44
14.27
14.13
14.03
13.96
13.85
13.57
13.01
12.08
10.73
9.00
7.00
4.86
2.73
0.74
-1.01
-2.50
-3.80
-5.12
-6.65
-8.61
-11.14
-14.26
-17.82
-21.49
-24.80
-27.22
-28.32
-27.86
-25.85
-22.54
-18.34
-13.69
-9.04
-4.68
-0.80
2.54
5.38
7.70
9.48
10.64
11.17
11.18
10.91
10.69
10.79
11.34
12.28
13.42
14.54
15.46
16.09
16.42
16.45
16.18
15.61
14.71
13.48
11.90
10.01
7.91
5.74
3.68
1.86
0.31
-1.06
-2.44
-4.09
-6.22
-8.92
-12.08
-15.43
-18.45
-20.59
-21.33
-20.36
-17.73
-13.83
-9.23
-4.55
-0.25
3.49
6.61
9.17
11.22
12.70
13.58
13.89
13.77
13.46
13.24
13.27
13.60
14.18
14.89
15.68
16.51
17.36
18.14
18.71
18.89
18.55
17.69
16.47
15.12
13.85
12.70
11.57
10.24
8.57
6.56
4.39
2.28
0.40
-1.26
-2.89
-4.73
-6.99
-9.70
-12.72
-15.75
-18.42
-20.31
-21.05
-20.43
-18.41
-15.18
-11.15
-6.85
-2.74
0.85
3.83
6.29
8.38
10.24
11.89
13.23
14.14
14.48
14.29
13.74
13.10
12.67
12.64
13.01
13.61
14.20
14.59
14.71
14.58
14.28
13.84
13.26
12.48
11.50
10.36
9.16
8.03
7.01
6.09
5.16
4.11
2.85
1.37
-0.26
-1.93
-3.54
-5.04
-6.49
-7.98
-9.61
-11.44
-13.46
-15.48
-17.16
-18.11
-17.93
-16.43
-13.76
-10.36
-6.85
-3.77
-1.43
0.21
1.37
2.35
3.32
4.30
5.20
5.93
6.52
7.08
7.75
8.60
9.57
10.50
11.20
11.56
11.59
11.44
11.30
11.26
11.30
11.25
10.96
10.34
9.45
8.43
7.47
6.64
5.95
5.33
4.65
3.83
2.78
1.44
-0.25
-2.32
-4.78
-7.53
-10.43
-13.23
-15.73
-17.83
-19.50
-20.80
-21.73
-22.18
-21.93
-20.74
-18.50
-15.32
-11.54
-7.64
-4.04
-1.06
1.20
2.76
3.71
4.19
4.30
4.15
3.87
3.57
3.32
3.18
3.17
3.28
3.47
3.72
3.95
4.13
4.23
4.25
4.18
4.06
3.91
3.69
3.37
2.92
2.30
1.57
0.77
-0.01
-0.71
-1.30
-1.81
-2.26
-2.76
-3.37
-4.22
-5.39
-6.93
-8.78
-10.79
-12.70
-14.20
-15.03
-14.98
-13.99
-12.11
-9.56
-6.60
-3.60
-0.88
1.33
2.96
4.09
4.87
5.46
5.90
6.13
6.06
5.66
5.01
4.27
3.64
3.26
3.16
3.28
3.51
3.80
4.10
4.36
4.50
4.38
3.87
2.98
1.83
0.65
-0.35
-1.11
-1.73
-2.38
-3.20
-4.18
-5.23
-6.21
-7.06
-7.83
-8.61
-9.50
-10.48
-11.55
-12.68
-13.92
-15.25
-16.61
-17.71
-18.17
-17.58
-15.71
-12.66
-8.85
-4.90
-1.41
1.25
2.98
3.93
4.33
4.38
4.24
3.97
3.63
3.31
3.05
2.90
2.85
2.85
2.87
2.88
2.92
2.97
3.03
3.05
2.96
2.76
2.45
2.10
1.72
1.34
0.91
0.37
-0.36
-1.34
-2.54
-3.89
-5.27
-6.55
-7.61
-8.41
-8.96
-9.39
-9.86
-10.52
-11.47
-12.66
-13.85
-14.74
-14.98
-14.31
-12.67
-10.24
-7.38
-4.50
-1.94
0.10
1.63
2.76
3.62
4.28
4.69
4.81
4.55
4.00
3.31
2.71
2.41
2.53
3.03
3.76
4.52
5.12
5.45
5.47
5.25
4.83
4.26
3.56
2.77
1.94
1.17
0.53
0.04
-0.38
-0.87
-1.56
-2.54
-3.76
-5.09
-6.42
-7.67
-8.85
-10.11
-11.49
-12.92
-14.13
-14.69
-14.28
-12.75
-10.30
-7.36
-4.45
-1.91
0.17
1.87
3.34
4.65
5.67
6.18
6.03
5.22
3.97
2.68
1.69
1.24
1.35
1.85
2.51
3.14
3.62
3.97
4.20
4.32
4.27
3.95
3.30
2.36
1.23
0.04
-1.18
-2.38
-3.60
-4.80
-5.91
-6.87
-7.68
-8.47
-9.45
-10.80
-12.54
-14.49
-16.29
-17.56
-17.97
-17.38
-15.83
-13.52
-10.73
-7.73
-4.78
-2.03
0.39
2.40
3.91
4.85
5.19
4.98
4.37
3.59
2.90
2.50
2.47
2.81
3.43
4.21
5.00
5.67
6.09
6.18
5.88
5.27
4.48
3.62
2.74
1.81
0.78
-0.41
-1.75
-3.14
-4.48
-5.69
-6.73
-7.64
-8.52
-9.46
-10.56
-11.90
-13.46
-15.08
-16.44
-17.13
-16.80
-15.31
-12.79
-9.62
-6.29
-3.18
-0.53
1.63
3.34
4.70
5.68
6.27
6.47
6.31
5.95
5.56
5.31
5.30
5.48
5.72
5.89
5.90
5.78
5.62
5.52
5.51
5.51
5.42
5.15
4.64
3.91
2.96
1.83
0.55
-0.84
-2.22
-3.52
-4.66
-5.69
-6.73
-7.92
-9.39
-11.17
-13.12
-15.02
-16.55
-17.39
-17.28
-16.10
-13.93
-11.02
-7.69
-4.32
-1.21
1.47
3.63
5.23
6.26
6.69
6.52
5.85
4.88
3.91
3.30
3.26
3.80
4.70
5.65
6.34
6.67
6.70
6.59
6.50
6.46
6.37
6.13
5.64
4.93
4.03
2.98
1.77
0.38
-1.21
-2.93
-4.70
-6.44
-8.13
-9.83
-11.65
-13.63
-15.69
-17.61
-19.02
-19.55
-18.99
-17.29
-14.63
-11.36
-7.83
-4.33
-1.06
1.89
4.43
6.42
7.73
8.26
8.08
7.40
6.55
5.86
5.55
5.68
6.18
6.91
7.65
8.21
8.45
8.30
7.77
7.00
6.16
5.42
4.85
4.37
3.76
2.74
1.13
-1.11
-3.77
-6.49
-8.85
-10.55
-11.55
-12.10
-12.66
-13.79
-15.96
-19.40
-23.93
-28.90
-33.27
-35.79
-35.33
-31.29
-23.82
-13.89
-2.87
7.92
17.82
26.97
36.18
46.34
57.81
70.09
81.93
91.85
98.78
102.49
103.56
103.05
102.00
101.00
100.01
98.55
96.02
91.95
86.17
79.01
71.35
64.47
59.68
57.72
58.48
60.97
63.72
65.32
64.96
62.65
59.11
55.39
52.15
49.84
48.66
48.70
50.05
52.80
57.07
62.94
70.41
78.51
86.18
92.56
97.39
101.22
105.20
110.67
118.44
128.00
135.44
135.86
124.78
99.77
61.46
13.24
-39.68
-91.88
-139.21
-182.44
-224.00
-266.65
-312.05
-360.34
-411.00
-463.36
-516.41
-567.71
-615.65
-655.28
-679.60
-682.69
-663.38
-627.60
-586.26
-550.71
-505.46
-438.27
-341.69
-219.18
-84.72
44.36
154.08
238.60
299.88
344.37
375.56
395.23
403.32
399.45
384.72
360.96
332.06
303.47
278.50
255.70
231.97
204.04
169.94
130.08
84.83
35.89
-14.49
-63.78
-110.46
-151.89
-184.33
-204.36
-200.66
-173.68
-132.23
-88.90
-54.29
-33.82
-27.63
-30.24
-36.15
-40.92
-42.93
-40.25
-30.12
-9.39
22.50
62.28
102.33
132.17
142.90
130.61
100.69
66.15
42.12
39.36
60.14
98.80
145.88
193.79
238.88
281.57
322.88
360.68
389.10
401.05
391.97
362.01
316.01
260.79
202.79
146.96
96.51
54.20
23.20
7.01
8.42
28.26
64.11
110.01
157.38
196.39
218.60
219.58
200.18
165.65
123.67
80.98
40.47
1.02
-41.35
-89.41
-141.85
-193.48
-237.83
-269.82
-287.54
-292.72
-288.54
-279.31
-268.34
-257.09
-245.93
-235.06
-224.16
-212.26
-197.93
-178.50
-153.16
-123.25
-92.19
-66.19
-52.51
-56.85
-80.86
-121.69
-170.84
-219.40
-260.06
-288.81
-296.84
-279.48
-238.45
-180.56
-123.55
-67.15
-5.45
65.90
149.23
237.39
319.79
387.21
435.46
465.23
474.46
461.63
426.35
380.08
323.27
254.13
170.13
75.79
-21.63
-114.34
-197.93
-271.56
-335.17
-388.80
-428.20
-446.53
-437.66
-400.89
-341.46
-269.78
-197.58
-133.55
-82.61
-43.61
-12.55
14.57
39.11
60.41
77.12
88.51
95.22
97.92
98.05
96.67
94.22
90.50
85.50
79.88
74.77
71.33
69.77
69.91
71.01
72.03
71.90
69.88
65.91
60.48
54.41
48.36
42.85
37.97
33.39
28.49
22.64
15.67
8.01
0.59
-5.44
-9.21
-10.48
-9.68
-7.68
-5.36
-3.29
-1.54
0.10
1.94
4.07
6.40
8.64
10.60
12.18
13.45
14.50
15.39
16.11
16.60
16.90
17.15
17.57
18.33
19.49
20.90
22.23
23.12
23.25
22.50
20.96
18.90
16.63
14.40
12.28
10.19
7.93
5.32
2.30
-1.03
-4.45
-7.64
-10.24
-11.88
-12.32
-11.37
-9.06
-5.58
-1.32
3.20
7.50
11.20
14.08
16.14
17.46
18.15
18.31
17.97
17.20
16.09
14.81
13.55
12.53
11.86
11.53
11.42
11.39
11.32
11.17
10.96
10.70
10.33
9.73
8.76
7.34
5.52
3.45
1.31
-0.78
-2.80
-4.87
-7.13
-9.66
-12.44
-15.29
-17.91
-19.94
-21.01
-20.88
-19.45
-16.87
-13.44
-9.61
-5.79
-2.27
0.80
3.45
5.76
7.79
9.54
10.92
11.84
12.28
12.33
12.20
12.08
12.13
12.38
12.70
12.99
13.14
13.14
13.05
12.91
12.65
12.18
11.38
10.19
8.64
6.86
4.94
2.96
0.90
-1.27
-3.55
-5.91
-8.32
-10.73
-13.16
-15.61
-17.97
-19.99
-21.30
-21.50
-20.37
-17.94
-14.49
-10.48
-6.38
-2.55
0.87
3.90
6.64
9.13
11.30
12.97
13.96
14.18
13.73
12.92
12.14
11.69
11.70
12.05
12.50
12.83
12.94
12.84
12.60
12.22
11.65
10.76
9.48
7.86
6.05
4.29
2.76
1.56
0.65
-0.15
-1.06
-2.26
-3.85
-5.77
-7.85
-9.91
-11.84
-13.65
-15.42
-17.20
-18.85
-20.01
-20.19
-18.91
-15.96
-11.56
-6.33
-1.18
3.03
5.79
7.06
7.30
7.19
7.34
8.05
9.16
10.29
10.98
10.90
9.97
8.20
5.69
2.53
-1.10
-5.04
-9.22
-13.95
-20.17
-29.23
-42.36
-59.76
-79.81
-99.01
-112.94
-117.91
-112.49
-98.08
-78.20
-57.02
-38.15
-24.11
-16.77
-17.86
-29.01
-50.97
-82.46
-119.75
-157.07
-187.89
-206.32
-208.41
-192.91
-161.64
-119.42
-73.47
-32.06
-2.54
10.61
6.68
-11.72
-40.03
-73.32
-107.34
-138.61
-164.48
-183.11
-193.85
-197.38
-195.42
-189.72
-181.17
-169.43
-153.41
-132.26
-106.14
-76.78
-47.10
-20.31
1.29
16.83
26.85
32.44
34.30
32.27
25.85
15.33
2.85
-7.74
-12.14
-7.45
6.35
26.36
47.96
66.56
79.01
84.11
82.49
76.03
66.87
56.42
44.74
30.59
12.44
-9.89
-34.03
-55.10
-67.23
-66.04
-50.51
-22.94
12.82
53.37
96.31
139.00
176.89
203.36
211.74
198.94
168.58
130.95
99.82
86.93
97.05
126.14
164.44
200.70
227.18
242.65
251.67
261.24
276.40
297.40
319.74
338.60
350.67
356.13
358.43
362.22
370.75
384.33
400.19
414.17
425.44
435.00
444.53
454.75
464.82
472.52
475.19
470.45
456.80
437.04
415.18
394.87
378.15
365.37
355.88
348.73
342.98
316.12
255.75
162.25
49.79
-60.61
-151.73
-216.38
-256.65
-279.71
-290.68
-294.54
-293.07
-286.41
-275.63
-263.41
-253.66
-250.61
-258.38
-278.38
-308.64
-346.10
-388.24
-433.00
-477.33
-515.80
-541.07
-546.54
-529.62
-492.41
-441.84
-387.54
-338.36
-299.55
-272.00
-253.62
-241.58
-233.79
-228.51
-223.90
-217.90
-208.61
-194.93
-177.10
-156.68
-135.95
-117.29
-102.12
-90.41
-80.89
-71.75
-61.39
-49.24
-35.95
-23.00
-11.95
-3.71
1.91
6.05
10.08
15.12
21.52
28.93
36.42
42.93
47.56
49.87
49.98
48.40
45.91
43.23
40.86
39.08
37.92
37.34
37.25
37.51
37.93
38.34
38.68
39.08
39.85
41.26
43.30
45.59
47.51
48.46
48.17
46.85
45.02
43.23
41.72
40.41
39.05
37.45
35.64
33.85
32.31
31.04
29.86
28.43
26.49
24.03
21.18
18.19
15.18
12.16
9.00
5.61
1.95
-1.79
-5.36
-8.38
-10.49
-11.43
-11.06
-9.45
-6.85
-3.66
-0.38
2.57
4.92
6.60
7.76
8.62
9.35
10.04
10.55
10.71
10.33
9.34
7.87
6.17
4.56
3.25
2.32
1.70
1.18
0.59
-0.19
-1.22
-2.43
-3.74
-5.09
-6.46
-7.92
-9.62
-11.69
-14.21
-17.13
-20.34
-23.62
-26.70
-29.30
-31.11
-31.81
-31.10
-28.84
-25.13
-20.34
-14.99
-9.69
-4.85
-0.70
2.68
5.36
7.35
8.67
9.39
9.63
9.64
9.66
9.90
10.38
11.04
11.66
12.07
12.18
11.99
11.61
11.11
10.56
9.90
9.04
7.87
6.32
4.47
2.46
0.49
-1.26
-2.77
-4.12
-5.50
-7.11
-9.05
-11.24
-13.46
-15.32
-16.43
-16.47
-15.29
-12.95
-9.69
-5.93
-2.11
1.36
4.20
6.28
7.65
8.43
8.81
8.95
8.93
8.80
8.56
8.27
8.00
7.83
7.79
7.87
8.01
8.10
8.07
7.88
7.51
6.92
6.06
4.88
3.39
1.72
0.06
-1.41
-2.62
-3.67
-4.79
-6.26
-8.23
-10.66
-13.32
-15.82
-17.72
-18.64
-18.36
-16.81
-14.12
-10.53
-6.41
-2.16
1.80
5.14
7.69
9.38
10.32
10.62
10.43
9.87
9.12
8.31
7.69
7.46
7.70
8.36
9.22
10.04
10.58
10.74
10.55
10.09
9.40
8.50
7.33
5.88
4.21
2.42
0.69
-0.87
-2.22
-3.40
-4.54
-5.80
-7.38
-9.40
-11.93
-14.87
-17.92
-20.66
-22.56
-23.19
-22.28
-19.87
-16.22
-11.80
-7.17
-2.80
0.91
3.80
5.86
7.25
8.24
9.02
9.69
10.25
10.64
10.87
11.02
11.21
11.50
11.88
12.23
12.47
12.56
12.58
12.59
12.63
12.60
12.36
11.78
10.82
9.51
8.01
6.43
4.83
3.22
1.52
-0.33
-2.36
-4.54
-6.82
-9.15
-11.52
-13.87
-16.11
-17.99
-19.15
-19.21
-17.93
-15.32
-11.72
-7.66
-3.70
-0.21
2.72
5.17
7.34
9.32
11.06
12.36
13.04
13.01
12.37
11.40
10.48
9.92
9.87
10.25
10.85
11.41
11.75
11.82
11.65
11.30
10.79
10.07
9.09
7.86
6.45
4.96
3.50
2.10
0.77
-0.51
-1.74
-2.91
-4.06
-5.25
-6.62
-8.28
-10.31
-12.64
-15.07
-17.24
-18.74
-19.19
-18.40
-16.40
-13.43
-9.87
-6.10
-2.43
0.90
3.74
6.03
7.73
8.81
9.29
9.19
8.62
7.77
6.92
6.36
6.30
6.75
7.57
8.48
9.21
9.63
9.72
9.58
9.29
8.88
8.32
7.53
6.46
5.11
3.52
1.81
0.10
-1.49
-2.91
-4.15
-5.29
-6.46
-7.81
-9.44
-11.42
-13.69
-16.11
-18.38
-20.11
-20.84
-20.28
-18.30
-15.07
-11.07
-6.84
-2.94
0.32
2.85
4.74
6.11
7.06
7.60
7.67
7.29
6.59
5.80
5.22
5.08
5.45
6.19
7.08
7.81
8.21
8.19
7.81
7.19
6.43
5.58
4.69
3.78
2.86
1.91
0.91
-0.20
-1.50
-2.99
-4.63
-6.32
-7.97
-9.56
-11.18
-12.92
-14.88
-17.08
-19.39
-21.58
-23.33
-24.27
-24.13
-22.79
-20.33
-17.01
-13.21
-9.31
-5.60
-2.26
0.65
3.11
5.10
6.55
7.43
7.78
7.74
7.53
7.37
7.42
7.71
8.17
8.65
9.01
9.14
9.03
8.73
8.30
7.79
7.26
6.71
6.18
5.66
5.10
4.37
3.33
1.88
0.00
-2.15
-4.33
-6.30
-7.93
-9.25
-10.44
-11.68
-13.14
-14.85
-16.73
-18.63
-20.34
-21.58
-22.04
-21.44
-19.64
-16.68
-12.84
-8.56
-4.39
-0.77
2.07
4.11
5.52
6.55
7.36
8.07
8.68
9.16
9.50
9.78
10.08
10.53
11.15
11.92
12.75
13.49
14.01
14.24
14.12
13.66
12.91
11.89
10.68
9.35
8.00
6.68
5.42
4.16
2.82
1.29
-0.47
-2.44
-4.49
-6.48
-8.29
-9.94
-11.56
-13.36
-15.52
-18.01
-20.54
-22.59
-23.58
-23.15
-21.24
-18.12
-14.26
-10.12
-6.03
-2.19
1.25
4.17
6.40
7.89
8.67
8.89
8.81
8.63
8.46
8.34
8.26
8.23
8.30
8.50
8.85
9.28
9.69
9.98
10.09
10.01
9.74
9.28
8.63
7.75
6.67
5.42
4.08
2.76
1.47
0.21
-1.06
-2.40
-3.81
-5.31
-6.93
-8.70
-10.68
-12.88
-15.19
-17.36
-19.07
-20.00
-19.89
-18.65
-16.33
-13.12
-9.35
-5.38
-1.54
1.89
4.75
6.98
8.61
9.73
10.44
10.82
10.97
10.94
10.77
10.54
10.33
10.23
10.31
10.57
10.95
11.30
11.47
11.34
10.92
10.28
9.56
8.84
8.11
7.24
6.07
4.50
2.50
0.22
-2.18
-4.48
-6.57
-8.41
-10.06
-11.58
-13.05
-14.56
-16.19
-18.04
-20.11
-22.32
-24.38
-25.83
-26.19
-25.07
-22.39
-18.42
-13.68
-8.80
-4.37
-0.72
2.05
4.04
5.46
6.51
7.34
8.00
8.52
8.90
9.19
9.47
9.86
10.46
11.26
12.18
13.01
13.53
13.60
13.22
12.52
11.65
10.78
9.94
9.04
7.99
6.70
5.18
3.53
1.85
0.21
-1.38
-3.02
-4.77
-6.70
-8.81
-11.08
-13.51
-16.12
-18.86
-21.55
-23.79
-25.04
-24.84
-22.99
-19.68
-15.45
-10.97
-6.79
-3.18
-0.15
2.45
4.73
6.64
8.07
8.92
9.19
9.06
8.77
8.58
8.64
9.00
9.63
10.41
11.22
11.90
12.30
12.33
11.95
