1722446732.00
64.000000
-0.00
-0.00
-0.00
-0.00
-0.00
-0.00
-0.00
-0.00
-0.00
-0.00
0.00
0.01
0.01
-0.00
-0.03
-0.05
-0.05
0.00
0.13
0.36
0.66
1.01
1.37
1.72
2.06
2.40
2.79
3.24
3.80
4.42
5.06
5.66
6.20
6.68
7.15
7.68
8.31
9.14
10.09
11.04
11.88
12.56
13.14
13.76
14.65
15.96
17.91
20.32
22.90
25.38
27.58
29.57
31.68
34.32
37.81
42.54
48.15
54.10
59.83
64.97
69.58
74.14
79.34
85.71
93.76
103.00
112.62
121.73
129.77
136.75
143.30
150.75
157.77
166.64
177.95
191.79
206.97
220.57
228.25
225.36
208.53
176.87
132.76
80.05
23.07
-34.94
-92.44
-149.16
-205.23
-260.37
-313.74
-363.86
-409.81
-450.87
-486.45
-515.66
-537.12
-549.07
-549.77
-538.13
-513.91
-478.32
-433.46
-381.97
-326.47
-269.22
-211.94
-155.89
-102.10
-51.44
-4.89
36.69
72.64
102.67
126.94
145.95
160.41
171.03
178.43
183.02
185.07
184.82
182.54
178.58
173.35
167.26
160.65
153.78
146.78
139.74
132.68
125.66
118.74
111.98
105.46
99.23
93.33
87.77
82.57
77.72
73.24
69.15
65.43
62.11
59.19
56.67
54.55
52.81
51.41
50.32
49.45
48.69
47.90
46.90
45.53
43.61
40.98
37.57
33.32
28.30
22.54
16.25
9.64
2.96
-3.50
-9.50
-14.81
-19.27
-22.76
-25.26
-26.76
-27.34
-27.12
-26.23
-24.79
-22.95
-20.81
-18.45
-15.96
-13.34
-10.65
-7.93
-5.18
-2.43
0.34
3.11
5.88
8.68
11.53
14.39
17.26
20.15
23.09
26.11
29.28
32.66
36.31
40.31
44.59
49.10
53.78
58.60
63.54
68.56
73.67
78.89
84.30
89.72
95.08
100.35
105.53
110.63
115.70
120.80
125.98
131.31
136.54
141.40
145.68
149.08
151.33
152.05
150.76
146.78
141.45
135.25
128.45
121.24
113.75
106.09
98.43
90.92
83.77
77.18
70.96
65.00
59.18
53.42
47.71
42.10
36.72
31.73
27.24
23.05
18.90
14.54
9.81
4.68
-0.70
-6.05
-11.03
-15.47
-19.58
-23.75
-28.46
-34.09
-40.76
-48.23
-56.01
-63.57
-70.59
-77.24
-84.04
-91.68
-100.70
-111.26
-123.00
-135.25
-147.29
-158.70
-169.50
-180.17
-191.45
-204.30
-219.74
-238.58
-260.95
-285.59
-309.68
-329.18
-340.02
-339.57
-327.70
-306.79
-280.76
-253.49
-227.59
-203.98
-182.38
-162.25
-143.46
-126.40
-111.55
-99.01
-88.31
-78.61
-69.11
-59.40
-49.49
-39.69
-30.25
-21.20
-12.27
-3.14
6.32
15.92
25.11
33.26
39.89
44.86
48.36
50.70
52.12
52.63
52.13
50.55
47.99
44.76
41.27
37.88
34.72
31.68
28.58
25.21
21.50
17.56
13.56
9.72
6.25
3.27
0.86
-1.01
-2.43
-3.61
-4.83
-6.42
-8.69
-11.73
-15.33
-18.93
-21.78
-23.13
-22.48
-19.57
-14.32
-6.79
2.89
14.37
26.91
39.38
50.45
59.00
64.52
67.20
67.75
66.98
65.45
63.35
60.66
57.39
53.76
50.08
46.69
43.63
40.73
37.64
34.10
30.05
25.73
21.47
17.51
13.84
10.23
6.40
2.11
-2.74
-8.12
-13.85
-19.46
-24.24
-27.45
-28.65
-27.99
-26.17
-23.97
-21.79
-19.15
-14.95
-7.96
2.42
15.76
30.73
45.68
59.37
71.23
81.34
89.94
97.28
103.63
109.55
116.14
124.89
137.17
153.55
173.27
194.38
214.33
230.95
243.29
251.67
257.25
261.06
263.09
262.16
256.34
243.98
224.53
199.02
169.76
139.46
110.42
83.75
59.20
35.51
11.04
-15.55
-44.91
-76.91
-111.01
-146.44
-182.65
-219.36
-256.65
-294.93
-335.12
-378.71
-427.30
-481.59
-539.94
-597.60
-647.05
-680.03
-690.35
-676.28
-641.24
-592.41
-537.91
-484.15
-434.39
-389.09
-347.40
-308.59
-272.79
-240.60
-212.33
-187.47
-164.66
-142.35
-119.35
-95.07
-69.35
-41.84
-11.84
21.26
57.17
94.05
128.73
157.85
179.37
193.62
203.18
211.65
222.00
235.40
251.16
267.43
282.20
293.88
301.38
303.92
301.06
292.84
279.99
263.84
245.92
227.40
208.96
190.87
173.34
156.80
141.85
129.09
118.73
110.55
103.95
98.32
93.11
87.92
82.42
76.45
70.12
64.02
58.97
55.83
54.96
56.02
58.21
60.70
63.12
65.79
69.63
75.57
84.08
94.76
106.18
116.21
122.59
123.64
118.84
109.07
96.32
82.91
70.45
59.11
47.48
33.32
14.55
-9.55
-37.79
-67.17
-93.76
-113.90
-125.33
-127.82
-122.90
-113.06
-100.56
-86.70
-71.64
-54.77
-35.36
-13.03
12.27
40.36
70.84
103.01
135.56
166.58
193.89
216.03
232.80
245.51
256.36
267.02
277.41
285.16
286.47
277.91
258.14
228.79
194.18
159.60
129.17
104.50
84.47
66.45
47.96
27.75
5.73
-17.25
-40.34
-63.20
-85.98
-108.88
-131.54
-152.83
-171.38
-187.09
-200.39
-212.08
-222.77
-232.32
-239.82
-243.83
-242.47
-234.84
-222.97
-209.44
-196.70
-186.20
-178.06
-171.63
-166.15
-160.58
-155.53
-155.37
-164.06
-184.06
-215.34
-255.46
-300.97
-348.54
-394.76
-438.71
-484.14
-533.87
-588.60
-646.06
-701.33
-749.04
-784.84
-805.16
-782.60
-699.48
-550.72
-349.58
-124.18
94.56
283.24
421.31
514.75
573.62
603.20
607.90
592.12
560.97
521.53
479.06
436.44
394.09
348.31
292.45
223.31
143.12
59.31
-17.49
-79.26
-116.62
-127.21
-117.73
-100.45
-85.51
-77.01
-78.39
-84.88
-92.10
-97.95
-102.22
-105.87
-108.40
-109.45
-108.54
-105.69
-100.67
-94.49
-88.05
-82.05
-76.90
-72.36
-67.79
-62.47
-56.22
-48.87
-41.21
-33.97
-27.79
-22.80
-18.41
-13.84
-8.30
-1.54
6.48
15.03
23.32
30.60
36.62
41.67
46.24
50.96
56.20
62.11
68.32
74.23
79.24
83.01
85.70
87.80
90.04
93.11
97.37
102.69
108.56
114.39
119.76
124.66
129.47
134.81
141.41
149.94
160.91
174.43
190.00
206.20
220.77
231.21
235.66
233.80
227.11
218.35
210.47
205.41
203.50
203.68
204.27
203.82
201.59
197.45
191.48
183.57
173.38
160.58
145.23
128.00
110.15
93.19
78.38
66.33
56.83
49.09
42.15
35.40
28.79
22.77
17.92
14.53
12.37
10.74
8.72
5.51
0.57
-6.28
-14.88
-24.68
-34.76
-43.91
-50.81
-54.44
-54.35
-50.84
-44.75
-37.18
-29.10
-21.13
-13.61
-6.73
-0.69
4.24
7.83
9.96
10.72
10.32
9.10
7.36
5.38
3.35
1.43
-0.30
-1.82
-3.19
-4.54
-6.02
-7.75
-9.80
-12.15
-14.73
-17.51
-20.57
-24.14
-28.61
-34.29
-41.12
-48.47
-55.06
-59.29
-59.69
-55.53
-47.05
-35.40
-22.26
-9.32
2.08
11.15
17.64
21.68
23.79
24.63
24.98
25.47
26.47
28.01
29.83
31.53
32.71
33.12
32.63
31.31
29.37
27.11
24.85
22.75
20.71
18.41
15.42
11.37
6.13
-0.22
-7.37
-14.89
-22.18
-28.45
-32.82
-34.50
-33.04
-28.60
-21.92
-14.10
-6.28
0.64
6.12
9.89
11.87
11.98
10.24
6.80
2.05
-3.47
-9.15
-14.48
-19.11
-22.94
-26.05
-28.63
-30.90
-32.99
-34.96
-36.71
-38.14
-39.25
-40.12
-41.00
-42.12
-43.67
-45.60
-47.53
-48.79
-48.55
-46.07
-40.92
-33.18
-23.45
-12.66
-1.78
8.44
17.53
25.30
31.58
36.17
38.84
39.46
38.15
35.27
31.36
26.97
22.51
18.24
14.37
11.11
8.75
7.62
7.98
9.87
13.16
17.53
22.61
27.99
33.24
37.73
40.69
41.19
38.47
32.26
23.01
11.88
0.44
-9.72
-17.42
-22.10
-23.74
-22.78
-19.81
-15.54
-10.63
-5.65
-1.08
2.83
5.96
8.38
10.20
11.56
12.51
13.09
13.36
13.35
13.10
12.55
11.57
9.98
7.73
4.95
2.00
-0.64
-2.59
-3.73
-4.30
-4.76
-5.67
-7.43
-10.26
-14.25
-19.27
-24.97
-30.68
-35.39
-37.98
-37.52
-33.62
-26.63
-17.50
-7.47
2.26
10.85
17.81
22.91
26.07
27.27
26.61
24.38
21.05
17.22
13.47
10.23
7.71
5.85
4.41
3.08
1.61
-0.05
-1.81
-3.46
-4.78
-5.70
-6.29
-6.84
-7.70
-9.19
-11.56
-14.96
-19.40
-24.73
-30.53
-36.02
-40.15
-41.82
-40.21
-35.19
-27.36
-17.93
-8.30
0.34
7.27
12.30
15.52
17.18
17.52
16.78
15.21
13.16
11.00
9.13
7.86
7.35
7.57
8.29
9.15
9.77
9.93
9.63
9.07
8.45
7.88
7.28
6.40
5.02
2.94
0.12
-3.43
-7.62
-12.27
-16.99
-21.17
-24.02
-24.77
-22.96
-18.61
-12.23
-4.66
3.19
10.55
16.85
21.74
25.03
26.64
26.63
25.16
22.58
19.32
15.87
12.65
10.01
8.13
7.08
6.78
7.03
7.56
8.04
8.18
7.73
6.53
4.53
1.84
-1.27
-4.45
-7.36
-9.83
-11.95
-14.15
-16.96
-20.83
-25.82
-31.41
-36.62
-40.23
-41.15
-38.76
-33.06
-24.74
-14.85
-4.64
4.81
12.71
18.65
22.53
24.46
24.69
23.51
21.30
18.49
15.55
12.93
10.95
9.78
9.34
9.40
9.68
9.99
10.20
10.33
10.38
10.30
9.95
9.11
7.54
5.14
1.94
-1.83
-5.75
-9.40
-12.51
-15.03
-17.24
-19.59
-22.45
-25.87
-29.43
-32.31
-33.54
-32.36
-28.44
-22.03
-13.86
-4.89
3.90
11.73
18.14
22.88
25.89
27.18
26.80
24.93
21.92
18.34
14.87
12.15
10.55
10.04
10.23
10.54
10.47
9.79
8.58
7.12
5.72
4.56
3.58
2.51
0.97
-1.42
-4.84
-9.19
-14.08
-18.95
-23.27
-26.74
-29.38
-31.54
-33.65
-36.04
-38.71
-41.26
-43.01
-43.17
-41.11
-36.62
-29.92
-21.68
-12.79
-4.15
3.54
9.88
14.80
18.40
20.84
22.21
22.53
21.84
20.29
18.17
15.88
13.81
12.25
11.27
10.83
10.77
10.96
11.28
11.66
12.00
12.17
11.99
11.34
10.15
8.43
6.31
3.95
1.46
-1.18
-4.14
-7.63
-11.75
-16.33
-20.85
-24.48
-26.38
-25.94
-22.96
-17.77
-11.02
-3.54
3.89
10.61
16.14
20.18
22.60
23.44
22.92
21.38
19.19
16.68
14.10
11.68
9.53
7.77
6.37
5.29
4.40
3.64
3.03
2.71
2.76
3.15
3.61
3.74
3.16
1.68
-0.57
-3.21
-5.78
-7.99
-9.90
-11.89
-14.53
-18.29
-23.29
-29.12
-34.85
-39.37
-41.59
-40.86
-37.12
-30.87
-23.00
-14.46
-6.15
1.31
7.54
12.37
15.76
17.80
18.62
18.49
17.70
16.60
15.46
14.52
13.89
13.60
13.58
13.74
14.01
14.40
14.92
15.58
16.30
16.93
17.24
16.96
15.90
13.94
11.07
7.42
3.18
-1.38
-6.01
-10.52
-14.86
-19.12
-23.47
-27.99
-32.54
-36.63
-39.49
-40.31
-38.53
-34.08
-27.47
-19.62
-11.57
-4.21
1.92
6.60
9.84
11.71
12.33
11.86
10.52
8.67
6.70
4.98
3.73
3.05
2.92
3.25
3.89
4.69
5.53
6.31
7.02
7.66
8.27
8.74
8.94
8.71
7.97
6.83
5.46
4.07
2.71
1.22
-0.76
-3.56
-7.32
-11.83
-16.41
-20.17
-22.16
-21.75
-18.79
-13.65
-7.13
-0.18
6.31
11.78
15.96
18.85
20.59
21.30
21.10
20.14
18.60
16.77
15.01
13.66
12.93
12.85
13.29
14.00
14.72
15.25
15.48
15.39
14.98
14.27
13.25
11.86
10.04
7.74
5.02
2.06
-0.91
-3.66
-6.14
-8.58
-11.35
-14.79
-18.94
-23.51
-27.88
-31.40
-33.54
-34.00
-32.77
-30.05
-26.20
-21.70
-17.19
-13.30
-10.56
-9.25
-9.31
-10.42
-12.12
-13.97
-15.71
-17.21
-18.41
-19.24
-19.61
-19.42
-18.56
-16.98
-14.60
-11.39
-7.30
-2.35
3.30
9.33
15.20
20.25
23.79
25.33
24.61
21.73
17.04
11.07
4.36
-2.70
-9.91
-17.16
-24.36
-31.22
-37.20
-41.52
-43.46
-42.52
-38.63
-32.18
-23.98
-15.03
-6.40
1.07
6.87
10.86
13.27
14.46
14.82
14.66
14.19
13.61
13.24
13.41
14.34
16.02
18.09
20.05
21.44
22.05
21.98
21.51
20.92
20.28
19.45
18.16
16.23
13.68
10.76
7.82
5.13
2.82
0.81
-1.07
-3.09
-5.51
-8.56
-12.44
-17.18
-22.51
-27.80
-32.18
-34.73
-34.82
-32.32
-27.64
-21.56
-14.88
-8.25
-2.00
3.76
8.98
13.56
17.30
19.92
21.31
21.54
20.96
20.07
19.32
18.99
19.08
19.38
19.59
19.48
18.93
17.99
16.77
15.33
13.68
11.74
9.40
6.62
3.52
0.26
-2.90
-5.76
-8.23
-10.35
-12.29
-14.29
-16.58
-19.35
-22.65
-26.40
-30.26
-33.68
-35.95
-36.36
-34.42
-30.04
-23.62
-15.91
-7.76
0.02
6.85
12.41
16.54
19.18
20.29
19.98
18.48
16.23
13.74
11.50
9.86
8.95
8.71
8.97
9.53
10.27
11.10
11.98
12.84
13.54
13.89
13.65
12.60
10.63
7.82
4.42
0.81
-2.58
-5.49
-7.88
-9.96
-12.14
-14.84
-18.32
-22.57
-27.23
-31.63
-34.97
-36.50
-35.71
-32.52
-27.28
-20.65
-13.44
-6.37
-0.02
5.28
9.35
12.14
13.65
13.99
13.32
11.92
10.10
8.24
6.69
5.74
5.50
5.94
6.89
8.10
9.34
10.49
11.51
12.43
13.21
13.71
13.62
12.64
10.58
7.52
3.81
-0.01
-3.45
-6.20
-8.28
-9.97
-11.74
-14.02
-17.14
-21.16
-25.91
-30.95
-35.62
-39.12
-40.79
-40.21
-37.36
-32.66
-26.77
-20.44
-14.30
-8.79
-4.18
-0.55
2.07
3.77
4.67
5.02
5.11
5.25
5.71
6.66
8.13
10.07
12.33
14.72
17.02
19.06
20.71
21.86
22.46
22.49
21.91
20.66
18.70
16.08
12.94
9.50
6.09
2.96
0.26
-2.10
-4.35
-6.84
-9.97
-13.99
-18.92
-24.44
-29.90
-34.45
-37.23
-37.66
-35.53
-31.10
-24.95
-17.82
-10.45
-3.39
2.91
8.16
12.11
14.58
15.44
14.70
12.53
9.31
5.58
2.02
-0.69
-2.00
-1.60
0.57
4.32
9.30
15.07
21.14
27.03
32.29
36.49
39.26
40.34
39.60
37.10
33.06
27.87
21.96
15.75
9.58
3.69
-1.79
-6.82
-11.39
-15.54
-19.17
-22.04
-23.73
-23.78
-21.91
-18.14
-12.94
-7.09
-1.43
3.37
7.02
9.51
11.07
11.94
12.25
12.03
11.35
10.33
9.23
8.41
8.15
8.56
9.51
10.67
11.69
12.34
12.59
12.57
12.49
12.45
12.41
12.14
11.36
9.83
7.51
4.55
1.26
-2.05
-5.17
-8.06
-10.84
-13.77
-17.07
-20.89
-25.18
-29.63
-33.71
-36.75
-38.09
-37.25
-34.11
-28.90
-22.24
-14.95
-7.85
-1.64
3.27
6.74
8.86
9.81
9.79
9.02
7.72
6.17
4.72
3.70
3.39
3.84
4.88
6.21
7.47
8.41
8.96
9.18
9.23
9.20
9.11
8.81
8.05
6.55
4.12
0.78
-3.26
-7.60
-11.80
-15.52
-18.60
-21.07
-23.07
-24.85
-26.57
-28.29
-29.89
-31.05
-31.23
-29.92
-26.72
-21.54
-14.72
-6.91
1.04
8.30
14.27
18.63
21.35
22.61
22.66
21.78
20.25
18.33
16.31
14.50
13.20
12.61
12.81
13.65
14.85
16.03
16.91
17.41
17.62
17.68
17.60
17.23
16.26
14.37
11.51
7.90
3.97
0.15
-3.28
-6.31
-9.10
-11.84
-14.70
-17.74
-21.03
-24.60
-28.44
-32.36
-35.91
-38.41
-39.17
-37.71
-33.96
-28.31
-21.50
-14.30
-7.42
-1.28
3.90
8.07
11.19
13.27
14.36
14.61
14.25
13.56
12.78
12.05
11.44
10.97
10.65
10.56
10.83
11.55
12.77
14.38
16.10
17.57
18.37
18.17
16.84
14.52
11.55
8.42
5.52
3.02
0.85
-1.28
-3.73
-6.78
-10.55
-14.91
-19.54
-23.87
-27.19
-28.73
-27.87
-24.37
-18.49
-11.01
-2.95
4.69
11.18
16.14
19.50
21.38
21.93
21.31
19.75
17.60
15.28
13.21
11.71
10.90
10.68
10.84
11.08
11.17
11.04
10.70
10.22
9.65
8.88
7.72
5.95
3.44
0.28
-3.21
-6.63
-9.57
-11.85
-13.52
-14.90
-16.45
-18.61
-21.62
-25.37
-29.37
-32.79
-34.67
-34.14
-30.72
-24.43
-15.84
-5.95
4.12
13.33
21.07
27.21
32.09
36.27
40.31
44.50
48.80
52.95
56.66
59.88
62.91
66.31
70.77
76.74
84.20
92.62
101.10
108.67
114.78
119.63
124.14
129.67
137.30
147.22
158.43
168.88
176.21
178.49
174.91
166.01
153.63
140.41
128.99
121.10
116.82
114.31
110.12
100.53
82.95
57.23
26.09
-5.65
-32.59
-50.74
-58.92
-59.15
-55.91
-54.57
-59.74
-73.97
-97.53
-128.96
-166.23
-207.79
-253.32
-303.44
-358.69
-418.01
-477.62
-531.03
-570.54
-589.84
-586.50
-562.93
-525.61
-482.61
-440.77
-403.93
-373.07
-347.56
-326.83
-310.88
-299.78
-292.57
-286.75
-278.76
-265.49
-245.76
-220.81
-193.66
-167.73
-145.11
-125.77
-107.77
-88.45
-65.87
-39.90
-12.21
14.46
37.70
56.61
72.15
86.89
104.10
126.71
156.17
191.53
228.98
262.41
285.22
292.85
285.11
267.00
247.29
235.41
237.96
256.45
287.18
322.99
355.79
378.97
388.89
385.12
370.02
347.70
322.69
298.71
277.92
260.83
247.09
236.24
228.03
222.17
217.55
211.87
202.20
186.44
164.63
139.54
115.78
97.94
88.78
88.03
92.64
98.03
99.91
95.42
83.40
63.97
37.93
6.78
-27.03
-60.21
-89.48
-113.11
-131.95
-149.32
-169.38
-195.00
-225.87
-258.11
-285.60
-302.05
-302.97
-286.90
-255.15
-210.94
-158.39
-101.28
-42.28
17.57
78.45
140.59
202.95
262.34
314.02
353.45
378.26
389.18
389.34
382.75
372.73
361.00
348.01
333.56
317.39
299.21
278.59
254.99
228.06
198.08
166.06
133.28
100.74
68.95
38.35
10.05
-13.80
-30.76
-39.15
-39.48
-34.67
-29.04
-26.87
-31.16
-43.32
-63.20
-89.11
-117.21
-141.14
-152.97
-145.79
-117.37
-72.51
-22.56
18.59
39.85
37.07
13.56
-23.00
-65.30
-109.75
-156.59
-206.95
-259.28
-307.65
-343.05
-357.27
-346.60
-313.77
-267.04
-216.82
-172.01
-137.46
-113.60
-98.10
-88.04
-81.66
-78.66
-79.38
-83.57
-89.69
-95.21
-97.57
-95.29
-88.57
-79.26
-69.93
-62.85
-59.06
-58.09
-58.28
-57.66
-54.85
-49.61
-42.92
-36.51
-32.15
-31.04
-33.45
-38.78
-45.78
-53.05
-59.36
-63.83
-66.02
-65.83
-63.41
-59.03
-53.01
-45.67
-37.29
-28.24
-18.91
-9.82
-1.43
5.89
11.91
16.60
20.00
22.25
23.48
23.89
23.71
23.19
22.51
21.73
20.83
19.73
18.38
16.75
14.84
12.62
9.98
6.80
3.02
-1.35
-6.26
-11.56
-17.03
-22.33
-26.92
-30.08
-31.11
-29.51
-25.22
-18.65
-10.62
-2.14
5.89
12.86
18.43
22.56
25.29
26.70
26.91
26.03
24.29
22.02
19.59
17.35
15.47
13.99
12.78
11.66
10.43
8.96
7.13
4.90
2.29
-0.60
-3.62
-6.61
-9.45
-12.12
-14.77
-17.64
-21.03
-25.15
-29.94
-34.97
-39.45
-42.36
-42.77
-40.10
-34.44
-26.46
-17.22
-7.83
0.92
8.66
15.39
21.28
26.48
30.92
34.43
36.82
38.00
38.07
37.27
35.96
34.47
33.02
31.74
30.67
29.82
29.15
28.62
28.05
27.22
25.83
23.60
20.40
16.31
11.54
6.37
1.00
-4.61
-10.65
-17.28
-24.37
-31.28
-36.98
-40.28
-40.22
-36.48
-29.49
-20.25
-10.00
0.10
9.24
16.98
23.17
27.75
30.73
32.14
32.06
30.72
28.47
25.75
23.05
20.78
19.23
18.49
18.43
18.77
19.10
19.04
18.34
16.94
14.95
12.56
9.94
7.21
4.40
1.48
-1.66
-5.16
-9.31
-14.38
-20.53
-27.49
-34.52
-40.39
-43.75
-43.50
-39.24
-31.35
-20.83
-9.08
2.58
13.10
21.87
28.65
33.46
36.45
37.80
37.74
36.50
34.38
31.72
28.91
26.25
23.96
22.12
20.74
19.79
19.20
18.91
18.69
18.27
17.29
15.48
12.76
9.33
5.52
1.71
-1.83
-5.05
-8.18
-11.56
-15.53
-20.28
-25.60
-30.82
-34.91
-36.74
-35.39
-30.56
-22.67
-12.74
-2.13
7.93
16.54
23.22
27.83
30.44
31.22
30.45
28.50
25.90
23.18
20.85
19.22
18.40
18.31
18.73
19.40
20.08
20.58
20.82
20.72
20.23
19.30
17.89
15.95
13.53
10.71
7.63
4.45
1.25
-2.03
-5.55
-9.52
-14.06
-19.05
-24.00
-28.06
-30.27
-29.80
-26.27
-19.98
-11.80
-2.93
5.51
12.69
18.25
22.15
24.51
25.46
25.11
23.58
21.14
18.20
15.29
12.90
11.36
10.77
10.96
11.63
12.41
12.98
13.10
12.65
11.60
10.03
8.04
5.78
3.41
1.02
-1.37
-3.83
-6.53
-9.69
-13.48
-17.83
-22.36
-26.33
-28.75
-28.73
-25.75
-19.90
-11.94
-3.06
5.52
12.80
18.30
21.88
23.72
24.01
23.01
20.99
18.30
15.39
12.71
10.62
9.23
8.48
8.14
7.96
7.71
7.21
6.36
5.11
3.50
1.59
-0.50
-2.71
-5.00
-7.37
-9.83
-12.35
-14.97
-17.80
-20.96
-24.54
-28.42
-32.12
-34.90
-35.95
-34.67
-30.88
-24.85
-17.27
-8.98
-0.82
6.49
12.45
16.75
19.28
20.11
19.48
17.80
15.52
13.08
10.87
9.11
7.93
7.30
7.11
7.18
7.26
7.14
6.68
5.84
4.69
3.34
1.88
0.35
-1.31
-3.13
-5.11
-7.20
-9.32
-11.44
-13.62
-15.97
-18.57
-21.32
-23.87
-25.65
-25.98
-24.34
-20.50
-14.69
-7.53
0.09
7.30
13.43
18.08
21.12
22.65
22.85
21.94
20.20
17.95
15.51
13.25
11.43
10.26
9.73
9.69
9.91
10.10
10.03
9.54
8.53
6.98
4.88
2.28
-0.78
-4.14
-7.57
-10.77
-13.41
-15.28
-16.43
-17.16
-17.94
-19.30
-21.45
-24.21
-26.99
-28.92
-29.18
-27.29
-23.29
-17.65
-11.17
-4.70
1.08
5.73
9.06
11.09
11.99
11.94
11.16
9.86
8.28
6.65
5.20
4.14
3.61
3.66
4.23
5.17
6.27
7.37
8.32
9.04
9.48
9.57
9.24
8.46
7.19
5.52
3.56
1.43
-0.82
-3.20
-5.75
-8.46
-11.14
-13.47
-14.99
-15.23
-13.86
-10.81
-6.32
-0.93
4.66
9.73
13.74
16.39
17.68
17.74
16.79
15.04
12.72
10.10
7.55
5.48
4.19
3.81
4.14
4.86
5.51
5.82
5.67
5.14
4.31
3.21
1.82
0.10
-1.88
-3.91
-5.74
-7.24
-8.45
-9.66
-11.25
-13.48
-16.36
-19.58
-22.50
-24.37
-24.55
-22.70
-18.91
-13.71
-7.88
-2.25
2.57
6.25
8.78
10.28
10.88
10.69
9.78
8.31
6.54
4.78
3.26
2.08
1.20
0.51
-0.04
-0.39
-0.46
-0.23
0.13
0.34
0.07
-0.96
-2.80
-5.32
-8.24
-11.19
-13.82
-15.88
-17.26
-18.13
-18.79
-19.68
-21.07
-23.00
-25.10
-26.73
-27.21
-26.05
-23.17
-18.89
-13.90
-9.00
-4.98
-2.33
-1.17
-1.16
-1.61
-1.72
-0.81
1.43
4.89
9.17
13.72
18.04
21.77
24.66
26.63
27.66
27.83
27.26
26.03
24.24
21.90
19.03
15.71
12.07
8.26
4.39
0.58
-3.04
-6.22
-8.65
-10.08
-10.41
-9.84
-8.72
-7.42
-6.08
-4.61
-2.74
-0.23
2.86
6.19
9.18
11.26
12.10
11.67
10.22
8.10
5.63
3.04
0.46
-1.97
-4.10
-5.69
-6.54
-6.55
-5.79
-4.54
-3.15
-1.96
-1.21
-0.95
-1.15
-1.69
-2.47
-3.47
-4.67
-6.02
-7.43
-8.76
-9.94
-10.93
-11.81
-12.61
-13.21
-13.27
-12.38
-10.24
-6.84
-2.53
2.05
6.24
9.60
11.95
13.35
13.93
13.78
12.88
11.22
8.89
6.13
3.27
0.65
-1.42
-2.81
-3.51
-3.62
-3.31
-2.86
-2.50
-2.49
-2.94
-3.85
-5.13
-6.57
-7.97
-9.15
-10.04
-10.70
-11.27
-11.99
-13.13
-14.92
-17.44
-20.47
-23.51
-25.82
-26.69
-25.62
-22.55
-17.87
-12.26
-6.49
-1.16
3.35
6.96
9.65
11.46
12.37
12.39
11.66
10.40
8.91
7.50
6.37
5.60
5.16
4.97
4.94
5.02
5.15
5.25
5.17
4.77
3.92
2.57
0.81
-1.24
-3.39
-5.50
-7.51
-9.46
-11.46
-13.70
-16.30
-19.19
-22.11
-24.52
-25.74
-25.17
-22.47
-17.82
-11.81
-5.28
0.94
6.24
10.37
13.28
15.04
15.80
15.72
15.03
14.05
13.10
12.41
12.00
11.76
11.49
11.07
10.49
9.85
9.24
8.68
8.08
7.24
6.00
4.26
2.10
-0.31
-2.73
-4.96
-6.92
-8.67
-10.40
-12.29
-14.52
-17.16
-20.14
-23.23
-26.06
-28.07
-28.69
-27.42
-24.09
-18.96
-12.71
-6.24
-0.35
4.43
8.00
10.51
12.20
13.24
13.70
13.61
13.05
12.22
11.34
10.65
10.28
10.23
10.48
10.90
11.38
11.81
12.06
12.04
11.69
10.99
9.93
8.52
6.77
4.73
2.53
0.31
-1.79
-3.80
-5.89
-8.34
-11.39
-14.91
-18.39
-20.97
-21.74
-20.10
-16.07
-10.22
-3.59
2.81
8.22
12.31
15.06
16.59
17.02
16.42
14.95
12.86
10.54
8.43
6.89
6.09
6.01
6.46
7.22
8.06
8.78
9.22
9.26
8.76
7.66
5.97
3.79
1.27
-1.45
-4.24
-7.06
-9.86
-12.68
-15.52
-18.46
-21.62
-25.07
-28.71
-32.18
-34.78
-35.66
-34.15
-30.01
-23.62
-15.93
-8.11
-1.14
4.48
8.76
12.03
14.67
16.84
18.44
19.21
18.93
17.57
15.28
12.43
9.49
7.01
5.64
6.00
8.48
13.01
18.87
24.68
28.76
29.57
26.26
18.91
8.54
-3.31
-14.95
-25.08
-32.95
-38.44
-41.89
-43.86
-44.94
-45.54
-45.81
-45.62
-44.58
-42.24
-38.24
-32.53
-25.35
-17.38
-9.40
-2.18
3.71
8.05
10.89
12.49
13.17
13.20
12.82
12.28
11.82
11.75
12.28
13.49
15.26
17.29
19.29
21.00
22.31
23.23
23.79
23.94
23.57
22.65
21.25
19.61
18.05
16.82
15.96
15.23
14.14
12.10
8.65
3.61
-2.78
-9.81
-16.46
-21.66
-24.57
-24.85
-22.68
-18.70
-13.67
-8.31
-3.05
1.88
6.36
10.27
13.40
15.65
17.03
17.74
18.09
18.41
18.90
19.64
20.59
21.66
22.76
23.78
24.59
25.05
24.96
24.18
22.63
20.30
17.28
13.69
9.72
5.57
1.39
-2.73
-6.85
-11.14
-15.70
-20.48
-25.13
-29.01
-31.32
-31.41
-28.99
-24.30
-18.05
-11.16
-4.55
1.13
5.52
8.52
10.13
10.48
9.78
8.43
6.95
5.92
5.80
6.77
8.74
11.34
14.18
16.87
19.18
21.02
22.39
23.35
23.91
23.99
23.38
21.79
18.92
14.60
8.92
2.19
-5.16
-12.69
-20.06
-27.06
-33.46
-38.86
-42.71
-44.32
-43.15
-38.98
-32.08
-23.14
-13.14
-3.15
5.91
13.36
18.81
22.17
23.61
23.50
22.33
20.67
18.96
17.53
16.48
15.76
15.26
14.88
14.53
14.23
13.98
13.78
13.64
13.52
13.38
13.15
12.69
11.82
10.38
8.26
5.58
2.54
-0.51
-3.30
-5.70
-7.83
-9.96
-12.47
-15.62
-19.41
-23.42
-26.92
-29.08
-29.24
-27.11
-22.92
-17.32
-11.19
-5.35
-0.42
3.32
5.85
7.27
7.74
7.41
6.45
5.09
3.62
2.35
1.53
1.24
1.35
1.60
1.75
1.69
1.55
1.50
1.68
2.05
2.32
2.17
1.37
-0.10
-2.03
-4.10
-6.04
-7.74
-9.23
-10.68
-12.26
-14.14
-16.40
-19.01
-21.69
-23.95
-25.10
-24.48
-21.69
-16.77
-10.25
-2.93
4.33
10.88
16.36
20.59
23.53
25.14
25.43
24.48
22.52
19.92
17.06
14.23
11.59
9.19
7.09
5.39
4.20
3.63
3.65
4.09
4.64
4.96
4.82
4.16
3.08
1.80
0.51
-0.70
-1.88
-3.23
-5.04
-7.57
-10.97
-15.12
-19.61
-23.82
-26.93
-28.18
-27.03
-23.30
-17.23
-9.45
-0.83
7.67
15.10
20.75
24.19
25.35
24.57
22.47
19.80
17.17
14.82
12.54
9.86
6.33
1.87
-3.04
-7.49
-10.50
-11.43
-10.33
-8.03
-5.84
-5.24
-7.35
-12.65
-20.87
-30.98
-41.45
-50.59
-57.01
-60.17
-60.69
-60.31
-61.34
-65.66
-73.72
-83.87
-92.59
-95.61
-89.42
-72.76
-47.20
-16.75
13.45
38.72
56.03
64.51
65.11
59.90
51.31
41.65
32.91
26.71
24.20
25.85
31.23
39.07
47.62
55.25
61.06
65.11
68.19
71.30
75.03
79.25
83.22
86.02
87.06
86.41
84.80
83.27
82.79
83.92
86.76
91.08
96.66
103.48
111.91
122.54
135.96
152.45
171.74
192.97
214.80
235.54
253.47
266.99
274.95
276.88
273.11
264.73
253.27
240.16
226.24
211.49
195.21
176.39
154.36
129.07
101.16
71.66
41.57
11.60
-17.97
-47.19
-76.34
-105.83
-136.25
-168.33
-202.67
-239.31
-277.33
-314.60
-348.14
-374.88
-392.65
-400.79
-400.12
-392.30
-379.10
-361.76
-340.93
-317.01
-290.61
-262.72
-234.57
-207.38
-181.97
-158.62
-137.16
-117.02
-97.35
-77.44
-57.15
-37.23
-19.33
-5.32
3.58
7.19
6.75
4.35
1.89
0.29
-0.80
-2.59
-6.30
-12.49
-21.59
-33.59
-48.16
-64.68
-82.46
-100.97
-120.16
-140.55
-162.93
-188.51
-217.13
-246.12
-270.20
-282.67
-277.61
-252.32
-208.77
-153.76
-98.71
-55.79
-34.08
-36.79
-60.59
-97.25
-136.77
-170.40
-183.71
-167.58
-119.38
-43.89
48.09
143.44
230.59
301.48
351.99
381.17
391.30
385.61
368.11
343.33
315.55
287.91
261.84
237.39
214.22
191.53
169.01
147.40
128.13
112.59
101.34
93.60
87.86
82.31
75.37
66.29
55.47
43.78
31.91
19.79
6.26
-9.67
-28.65
-50.16
-72.46
-93.25
-110.96
-125.63
-138.76
-153.12
-169.97
-189.50
-210.36
-230.81
-250.05
-268.69
-287.74
-306.05
-319.86
-320.81
-300.60
-253.30
-177.50
-76.33
43.88
175.29
310.39
441.00
560.95
652.91
697.15
681.93
612.75
511.30
403.19
315.55
247.50
189.74
132.15
69.72
4.10
-59.46
-112.65
-149.55
-168.94
-175.55
-175.85
-174.59
-176.17
-182.30
-191.24
-199.51
-205.34
-209.88
-216.38
-226.33
-239.19
-252.24
-261.29
-262.65
-254.61
-238.30
-218.64
-197.46
-174.35
-147.88
-116.38
-78.29
-32.67
20.27
78.98
137.70
191.11
235.39
268.37
289.38
299.19
299.64
293.09
281.80
267.69
253.11
240.20
230.67
224.85
220.96
214.88
201.04
174.66
134.39
84.37
32.52
-12.30
-44.03
-61.49
-67.95
-68.75
-68.26
-68.19
-67.53
-64.75
-59.36
-52.78
-47.41
-45.27
-46.79
-50.66
-54.38
-55.35
-52.54
-46.47
-39.23
-33.49
-31.32
-33.66
-40.54
-51.56
-65.84
-82.47
-99.09
-112.16
-117.82
-113.72
-100.51
-81.96
-63.33
-49.04
-40.80
-37.06
-34.50
-30.02
-22.33
-12.18
-1.39
8.62
17.62
25.90
33.64
40.13
43.94
43.66
38.48
28.90
16.92
5.35
-3.49
-8.34
-9.32
-7.67
-4.90
-2.36
-0.70
0.55
2.74
6.90
13.32
21.30
29.53
36.83
42.25
45.42
47.23
49.44
53.41
59.62
67.57
76.05
84.18
91.52
94.41
87.53
69.73
43.14
12.22
-18.45
-46.00
-69.10
-88.19
-104.33
-117.52
-126.53
-130.05
-127.34
-118.82
-106.28
-90.87
-73.77
-55.72
-36.00
-12.77
15.67
50.20
90.81
132.37
171.81
206.29
232.14
244.76
239.69
214.58
171.55
117.72
63.19
18.16
-11.73
-26.48
-30.15
-27.96
-23.71
-18.86
-13.40
-7.28
-0.72
5.00
8.82
10.71
11.58
12.59
14.57
17.22
19.35
19.78
17.39
11.68
2.95
-8.11
-20.87
-35.01
-50.50
-67.34
-83.76
-99.09
-112.43
-122.82
-129.92
-134.01
-135.89
-136.68
-137.76
-140.47
-145.76
-152.88
-158.90
-159.21
-149.19
-126.59
-93.29
-55.21
-20.11
5.47
18.93
21.92
18.71
13.49
8.59
4.16
-0.66
-6.17
-11.58
-15.19
-15.55
-12.26
-6.31
0.59
7.00
12.30
16.79
21.43
27.26
34.68
43.29
51.69
58.11
61.07
59.57
53.89
45.27
35.52
26.33
18.95
13.55
9.45
5.74
1.29
-3.94
-8.96
-11.99
-11.09
-4.67
7.41
23.94
42.83
61.25
77.32
90.51
101.41
109.49
116.61
124.23
133.24
145.58
158.39
167.44
167.67
154.58
126.40
85.92
39.72
-4.97
-39.12
-59.33
-67.51
-68.67
-67.68
-66.81
-65.27
-61.44
-54.72
-46.48
-40.55
-40.04
-45.99
-57.60
-73.22
-91.01
-109.58
-127.17
-140.96
-146.43
-141.12
-124.77
-100.33
-73.19
-48.99
-31.53
-21.75
-17.79
-17.14
-17.59
-17.41
-15.09
-8.97
2.98
22.54
50.02
83.10
116.28
140.76
149.40
138.95
111.79
75.58
40.28
14.17
0.74
-1.91
0.96
4.45
5.98
5.84
5.79
7.12
9.61
11.93
12.76
11.65
9.62
8.07
8.21
10.23
13.26
16.01
17.48
17.47
16.59
16.01
16.46
17.93
19.50
19.94
18.22
14.10
8.30
1.85
-4.20
-9.64
-14.98
-21.18
-29.36
-40.45
-55.00
-72.76
-92.05
-108.77
-118.49
-117.00
-102.56
-77.40
-47.30
-19.43
0.56
10.68
12.71
10.31
6.96
4.22
1.66
-1.67
-5.89
-10.00
-12.45
-12.34
-10.14
-7.47
-6.25
-7.75
-11.75
-16.63
-20.13
-20.30
-16.50
-9.70
-1.91
4.60
8.33
9.22
8.47
7.92
9.20
12.70
17.49
21.90
24.52
24.81
23.62
22.77
24.29
29.85
40.15
55.11
73.85
94.25
112.61
124.06
123.98
109.18
82.21
49.41
18.90
-2.61
-12.31
-11.86
-5.66
1.80
7.91
12.60
16.66
20.48
23.40
24.12
21.65
16.16
8.68
0.63
-6.62
-12.83
-18.60
-24.81
-32.15
-40.68
-49.76
-58.53
-66.15
-72.01
-76.09
-78.77
-80.33
-80.75
-79.92
-77.70
-74.46
-71.09
-68.52
-67.32
-67.15
-67.23
-66.27
-63.12
-56.82
-46.65
-31.97
-12.39
11.50
37.75
63.24
85.84
104.84
120.76
133.81
142.44
142.96
130.73
102.79
59.36
5.79
-49.25
-96.65
-129.55
-144.51
-141.56
-123.91
-93.72
-59.91
-31.21
-13.32
-7.75
-12.43
-23.51
-37.14
-50.85
-63.31
-74.29
-82.72
-87.48
-88.10
-85.25
-80.97
-76.92
-74.43
-72.94
-71.34
-67.61
-60.36
-49.58
-36.35
-23.68
-13.47
-6.71
-2.98
-1.22
0.22
2.37
4.90
7.16
5.96
0.38
-9.03
-20.00
-29.36
-33.84
-31.36
-21.64
-4.10
15.07
33.43
50.57
67.86
87.67
112.61
144.67
184.50
232.56
282.55
327.90
360.95
375.01
366.55
337.04
292.55
229.39
172.94
124.85
84.50
48.63
12.96
-25.75
-68.07
-111.16
-149.28
-173.93
-181.98
-172.91
-149.91
-118.78
-85.49
-53.53
-22.54
10.36
43.50
79.00
109.59
127.35
127.73
111.57
84.60
54.17
25.30
-0.30
-25.31
-51.40
-74.56
-85.58
-75.89
-43.83
2.92
49.84
82.25
90.71
74.63
38.07
-6.68
-45.43
-69.24
-77.28
-74.25
-65.36
-54.31
-43.57
-34.36
-27.11
-22.91
-23.13
-28.17
-36.79
-46.80
-56.54
-66.01
-76.36
-89.20
-106.85
-131.38
-161.70
-193.21
-216.02
-221.45
-205.03
-168.18
-117.42
-60.47
-10.53
21.59
33.05
28.86
16.63
1.99
-12.71
-26.46
-38.72
-49.00
-55.76
-57.73
-54.84
-48.19
-39.74
-30.94
-21.26
-9.31
6.21
26.57
52.43
80.65
107.45
128.84
136.53
125.74
96.24
52.29
0.96
-51.01
-99.36
-141.88
-178.30
-209.17
-234.31
-253.60
-267.33
-276.26
-281.46
-284.30
-285.46
-285.23
-283.46
-278.97
-270.63
-257.53
-239.00
-214.25
-185.21
-152.97
-118.36
-82.15
-44.78
-7.04
29.96
64.78
95.92
122.03
142.61
157.90
168.34
174.40
176.13
173.23
165.41
152.74
135.88
116.33
97.16
81.17
70.05
63.77
60.91
59.65
58.75
57.95
57.97
62.65
75.19
96.56
124.65
155.13
183.60
207.40
226.20
241.59
260.37
288.34
327.73
375.78
426.32
472.95
511.80
542.34
566.46
593.02
630.28
683.10
751.02
828.64
907.79
979.32
1034.12
1028.24
933.22
745.16
491.61
219.28
-28.91
-229.11
-377.36
-481.61
-553.17
-595.60
-610.13
-599.10
-569.08
-530.34
-492.99
-463.48
-443.55
-431.43
-419.18
-399.89
-370.44
-332.77
-292.60
-255.98
-226.72
-205.57
-191.03
-177.90
-161.75
-140.84
-116.28
-91.54
-70.17
-54.50
-44.72
-39.55
-35.70
-30.26
-21.59
-9.77
3.85
17.80
30.66
42.05
52.20
62.15
72.76
84.47
97.15
110.26
123.35
135.51
146.33
155.66
163.37
169.24
172.77
173.14
168.85
162.65
155.28
147.21
138.72
130.06
121.41
112.95
104.84
97.31
90.62
84.40
78.47
72.74
67.14
61.66
56.28
51.09
46.19
41.80
37.67
33.69
29.84
26.08
22.45
18.95
15.64
12.62
10.06
7.80
5.79
3.99
2.34
0.81
-0.68
-2.12
-3.49
-4.72
-5.86
-6.94
-8.00
-9.08
-10.27
-11.60
-13.12
-14.74
-16.36
-17.87
-19.23
-20.51
-21.85
-23.48
-25.63
-28.43
-31.80
-35.55
-39.41
-43.23
-47.02
-51.05
-55.72
-61.39
-68.23
-76.07
-84.50
-92.98
-101.19
-109.13
-117.26
-126.26
-136.74
-149.01
-162.83
-177.61
-192.64
-207.39
-221.75
-236.01
-250.76
-266.75
-284.83
-305.78
-329.96
-356.69
-383.78
-407.59
-423.92
-429.38
-422.65
-404.96
-379.45
-349.78
-318.80
-287.94
-257.51
-227.49
-198.22
-170.58
-145.53
-123.55
-104.36
-87.18
-71.22
-56.18
-42.32
-30.35
-20.93
-14.24
-9.83
-6.72
-3.70
0.15
5.20
11.19
17.40
23.06
27.62
30.94
33.19
34.69
35.71
36.39
36.76
36.72
36.19
35.11
33.41
31.06
28.11
24.73
21.34
18.50
16.84
16.93
19.06
23.18
28.90
35.51
42.22
48.26
53.12
56.52
58.47
59.15
58.79
57.67
56.06
54.23
52.47
51.01
49.97
49.37
49.06
48.83
48.44
47.74
46.61
45.04
42.99
40.44
37.42
33.99
30.32
26.67
23.30
20.40
17.99
15.95
14.01
11.91
9.41
6.40
2.99
-0.48
-3.47
-5.33
-5.46
-3.52
0.44
5.99
12.40
18.90
24.84
29.78
33.59
36.29
37.92
38.55
38.28
37.21
35.64
33.90
32.36
31.20
30.44
29.88
29.25
28.35
27.14
25.76
24.38
23.16
22.11
21.10
19.90
18.26
16.02
13.15
9.81
6.23
2.69
-0.68
-3.92
-7.15
-10.50
-13.97
-17.34
-20.22
-22.16
-22.79
-21.92
-19.62
-16.11
-11.72
-6.81
-1.73
3.17
7.55
11.15
13.74
15.29
15.88
15.69
15.00
14.03
12.97
11.91
10.95
10.14
9.53
9.17
9.08
9.24
9.56
9.98
10.42
10.90
11.42
12.01
12.69
13.38
14.06
14.68
15.26
15.88
16.61
17.46
18.44
19.60
21.15
23.50
27.14
32.50
39.71
48.49
58.17
67.87
76.82
84.53
91.02
96.69
102.15
107.95
114.42
121.56
129.19
137.13
145.34
154.01
163.50
174.12
186.05
199.34
213.80
229.11
244.68
259.34
271.28
278.11
277.59
268.45
251.19
227.86
201.35
174.02
146.84
119.33
90.49
59.84
28.26
-2.20
-29.21
-51.09
-67.53
-79.66
-89.52
-99.47
-111.57
-127.33
-147.61
-172.46
-201.26
-232.95
-266.39
-300.60
-334.96
-369.24
-403.71
-439.44
-477.93
-520.08
-564.64
-607.18
-640.39
-656.32
-649.34
-618.82
-569.53
-509.91
-448.71
-392.06
-342.23
-298.45
-258.86
-222.15
-188.07
-156.86
-128.36
-101.67
-75.62
-49.42
-23.15
2.33
25.90
46.81
65.22
82.11
98.84
116.52
135.51
155.36
174.78
192.60
208.61
223.99
240.95
261.91
288.31
319.40
352.00
380.78
400.20
406.60
399.58
382.08
359.12
336.18
317.19
303.93
295.26
288.96
283.21
277.41
271.94
267.51
264.83
263.78
263.80
261.70
254.59
241.19
222.26
199.43
174.16
148.13
122.37
98.61
74.57
48.56
20.85
-6.38
-31.04
-52.91
-71.90
-89.96
-107.93
-133.08
-170.95
-222.04
-281.00
-340.07
-393.60
-437.42
-473.34
-504.25
-542.45
-597.49
-670.77
-754.45
-836.57
-907.79
-960.90
-996.56
-957.68
-812.58
-572.16
-289.10
-22.02
195.38
341.13
437.83
502.30
544.29
559.08
540.78
490.43
415.77
331.53
250.64
183.90
133.28
99.44
77.06
63.62
60.66
71.48
96.47
129.67
163.75
189.68
204.00
204.25
191.35
168.87
141.82
115.05
91.23
72.85
59.60
51.09
44.46
36.74
26.36
13.70
0.94
-10.33
-17.25
-18.90
-15.28
-8.11
0.23
7.50
12.30
14.27
13.55
10.89
6.71
1.19
-5.72
-14.41
-25.35
-38.85
-54.76
-72.51
-91.19
-109.75
-127.39
-143.57
-157.99
-170.48
-180.77
-188.31
-192.18
-192.77
-190.04
-184.17
-175.56
-164.85
-152.79
-140.08
-127.33
-114.98
-103.33
-92.36
-82.08
-72.45
-63.49
-55.23
-47.66
-40.72
-34.25
-28.10
-21.93
-15.54
-8.92
-2.24
4.23
10.28
15.86
21.13
26.45
32.32
39.04
46.61
54.69
62.77
70.40
77.47
84.29
91.49
99.85
109.89
121.64
134.67
148.29
161.87
175.04
187.91
200.82
214.40
229.45
246.81
267.14
290.22
314.45
336.57
352.28
357.57
350.24
330.85
302.49
269.59
236.34
205.52
178.29
154.70
134.51
117.63
104.07
93.68
85.88
79.75
74.38
69.20
64.01
58.88
53.91
49.05
44.21
39.45
35.05
31.46
29.03
27.66
26.79
25.55
23.32
20.13
16.93
15.20
16.26
20.50
26.98
33.72
38.37
39.43
36.91
32.47
28.78
28.44
32.84
41.28
51.14
58.32
58.12
46.00
18.65
-24.70
-80.83
-141.97
-196.98
-234.73
-248.49
-239.00
-214.57
-187.50
-168.60
-162.77
-167.73
-176.44
-181.42
-178.34
-167.02
-149.94
-129.71
-107.34
-82.46
-54.61
-24.60
5.03
30.71
49.28
59.31
61.49
58.39
53.22
48.57
45.49
43.35
40.51
35.41
27.56
17.81
8.01
0.13
-4.52
-5.75
-4.33
-1.53
1.57
4.41
7.06
9.94
13.42
17.48
21.61
25.00
26.93
27.07
25.59
23.04
20.00
16.86
13.81
10.96
8.45
6.54
5.41
5.10
5.40
5.96
6.54
7.01
7.37
7.66
7.78
7.54
6.78
5.46
3.71
1.74
-0.37
-2.69
-5.35
-8.40
-11.55
-14.15
-15.35
-14.47
-11.27
-6.09
0.20
6.53
11.89
15.64
17.59
17.93
17.08
15.54
13.71
11.88
10.17
8.57
7.11
5.84
4.87
4.38
4.44
4.99
5.77
6.43
6.61
6.14
5.07
3.64
2.11
0.59
-0.93
-2.64
-4.68
-7.12
-9.81
-12.53
-15.05
-17.24
-19.02
-20.30
-20.93
-20.57
-18.90
-15.77
-11.36
-6.30
-1.38
2.62
5.33
6.84
7.56
7.99
8.41
8.82
9.00
8.89
8.60
8.48
8.84
9.71
10.79
11.59
11.78
11.37
10.71
10.26
10.30
10.82
11.56
12.21
12.58
12.63
12.39
11.89
11.01
9.60
7.57
5.01
2.24
-0.20
-1.55
-1.07
1.76
6.98
14.06
22.03
29.79
36.58
42.22
47.12
51.94
57.19
62.92
68.75
74.17
78.96
83.34
87.93
93.45
100.32
108.53
117.72
127.37
137.14
146.92
156.47
165.15
171.95
176.03
177.29
176.45
174.54
172.07
168.42
161.69
149.68
131.36
108.02
83.04
60.50
43.53
33.18
28.58
27.49
27.40
26.45
23.90
19.67
13.56
4.91
-7.45
-24.70
-48.08
-78.58
-116.38
-160.41
-208.41
-257.58
-305.01
-348.20
-382.14
-399.97
-396.33
-370.71
-328.04
-275.93
-221.57
-169.99
-124.30
-86.12
-56.45
-36.10
-24.84
-21.07
-21.42
-23.69
-26.81
-31.27
-38.56
-50.21
-66.77
-86.52
-106.08
-122.12
-133.13
-139.46
-142.44
-143.04
-139.58
-131.75
-120.96
-110.07
-101.80
-96.84
-92.84
-85.80
-72.69
-53.86
-33.46
-16.92
-8.06
-7.23
-11.88
-18.23
-23.11
-24.71
-22.77
-18.65
-14.73
-13.52
-16.06
-20.73
-23.67
-21.13
-12.21
-0.11
9.29
11.20
4.58
-7.27
-19.11
-26.68
-28.59
-25.79
-20.06
-12.58
-3.53
7.18
19.42
32.89
48.00
65.90
87.93
114.30
143.36
172.51
199.49
223.41
244.51
262.75
276.51
283.21
281.10
271.37
258.49
247.89
242.33
239.07
231.17
211.47
177.95
135.65
94.23
62.63
44.18
35.14
27.18
12.52
-12.30
-44.88
-78.86
-107.20
-124.65
-128.86
-120.44
-104.96
-89.30
-80.57
-82.78
-94.80
-111.83
-129.06
-144.55
-159.11
-174.51
-190.92
-206.58
-218.68
-225.09
-225.81
-222.69
-218.80
-216.60
-216.99
-218.94
-220.27
-218.73
-213.06
-203.71
-192.10
-180.23
-169.59
-160.71
-152.86
-144.65
-134.39
-120.58
-104.48
-87.11
-69.43
-51.96
-34.77
-17.52
0.12
18.38
37.13
55.88
74.33
92.21
109.59
127.08
145.77
166.76
190.33
215.09
237.88
254.75
262.20
258.68
245.30
225.35
202.95
181.73
163.85
150.02
140.02
133.02
127.78
122.77
116.33
107.20
95.16
81.34
67.79
56.72
49.28
45.25
43.24
41.47
38.54
33.96
28.09
21.79
16.01
11.40
8.23
6.44
5.87
6.36
7.86
10.30
13.59
17.55
21.71
25.54
28.57
30.70
32.28
34.03
36.70
40.72
45.99
52.03
58.30
64.45
70.39
76.13
81.47
85.85
88.38
88.19
84.69
77.81
67.98
55.81
41.94
26.94
11.39
-3.94
-18.08
-30.04
-39.11
-45.04
-48.15
-49.18
-49.19
-49.35
-50.74
-54.12
-59.69
-67.05
-75.19
-82.81
-88.59
-91.55
-91.19
-87.47
-80.75
-71.82
-61.82
-52.11
-43.96
-38.25
-35.19
-34.33
-34.92
-36.21
-37.76
-39.41
-41.13
-42.92
-44.89
-47.26
-50.41
-54.58
-59.74
-65.37
-70.45
-73.79
-74.51
-72.40
-68.18
-63.26
-59.26
-57.29
-57.46
-58.73
-59.35
-57.61
-52.66
-44.74
-34.96
-24.63
-14.58
-4.99
4.30
13.25
21.25
27.22
30.12
29.61
26.37
21.82
17.73
15.48
15.75
18.41
22.79
27.92
32.90
37.09
40.20
42.28
43.68
45.08
47.37
51.57
58.38
67.92
79.57
92.01
103.58
112.81
118.88
121.92
122.87
122.66
122.11
121.77
122.07
123.47
126.33
130.86
136.80
143.36
148.41
149.62
145.39
135.78
122.78
109.60
99.36
93.83
92.67
92.20
87.60
74.69
51.65
19.48
-18.94
-60.33
-102.17
-143.25
-185.13
-229.94
-279.13
-332.37
-387.58
-441.97
-493.03
-539.29
-568.64
-570.26
-537.32
-471.16
-381.20
-280.63
-181.44
-91.67
-15.72
44.93
89.37
118.30
133.90
140.08
141.44
141.60
142.86
145.38
148.29
149.22
146.63
138.84
125.43
107.12
85.21
61.63
37.52
12.98
-14.17
-45.78
-83.45
-125.29
-165.10
-196.54
-211.25
-204.54
-177.45
-136.65
-91.39
-50.07
-16.91
7.90
26.57
42.01
55.69
68.06
79.57
91.68
104.76
120.24
138.53
157.93
175.11
185.74
186.56
176.77
158.28
134.67
110.15
87.84
69.24
54.79
44.30
37.60
34.58
34.83
37.25
40.37
42.45
41.93
38.03
30.62
20.23
7.69
-6.04
-20.02
-33.08
-44.04
-51.79
-55.52
-54.98
-50.68
-43.76
-35.71
-27.99
-21.55
-16.88
-13.99
-12.71
-12.79
-14.01
-16.00
-18.25
-20.07
-20.72
-19.71
-17.02
-13.07
-8.61
-4.42
-1.10
1.07
1.98
1.77
0.67
-0.96
-2.54
-3.44
-3.08
-1.19
2.05
6.01
9.90
12.89
14.51
14.64
13.43
11.20
8.20
4.67
0.79
-3.26
-7.32
-11.27
-15.09
-18.85
-22.58
-26.26
-29.63
-32.21
-33.46
-32.99
-30.76
-27.13
-22.77
-18.36
-14.39
-10.95
-7.89
-5.00
-2.20
0.29
2.05
2.66
1.96
0.10
-2.27
-4.18
-4.43
-1.92
3.96
12.95
23.75
34.19
41.82
44.79
42.61
36.46
28.78
22.22
18.32
16.58
14.39
8.12
-5.14
-25.89
-51.48
-76.62
-95.12
-101.85
-94.31
-73.14
-41.98
-6.63
26.09
49.88
60.64
58.23
47.02
34.78
29.80
37.21
56.65
82.47
106.65
122.85
129.33
129.14
127.79
129.94
137.22
148.31
160.59
172.20
183.04
194.20
206.58
219.64
231.21
238.18
237.70
228.23
210.17
185.79
158.82
133.38
113.05
99.37
91.37
85.90
78.60
65.58
44.63
16.09
-17.28
-50.90
-79.55
-98.57
-105.18
-99.47
-84.86
-67.36
-54.14
-51.47
-63.21
-90.33
-131.60
-184.82
-247.49
-316.06
-384.59
-443.99
-483.38
-493.58
-471.11
-420.61
-353.86
-285.47
-227.15
-184.00
-154.11
-131.43
-110.30
-88.40
-67.30
-50.57
-41.09
-39.21
-42.76
-48.25
-52.44
-53.37
-50.63
-44.76
-36.48
-26.07
-13.21
2.53
20.95
40.51
58.12
69.73
71.56
61.42
39.61
9.01
-25.61
-58.67
-84.98
-100.55
-103.16
-92.40
-69.51
-36.83
2.74
46.24
90.78
133.63
172.19
204.14
227.81
242.62
249.26
249.56
245.83
240.15
233.66
226.30
217.03
204.32
186.90
164.37
137.46
108.01
78.50
51.39
28.54
10.90
-1.56
-9.53
-14.06
-16.29
-17.26
-17.79
-18.44
-19.43
-20.70
-21.95
-22.81
-23.00
-22.48
-21.42
-20.03
-18.47
-16.70
-14.52
-11.75
-8.41
-4.77
-1.38
1.02
1.63
-0.34
-5.43
-13.87
-25.34
-39.00
-53.68
-68.09
-81.12
-92.00
-100.39
-106.18
-109.36
-110.01
-108.18
-103.95
-97.41
-88.72
-78.11
-65.92
-52.47
-38.14
-23.24
-8.12
6.72
20.51
32.26
41.00
46.15
47.73
46.35
42.95
38.34
33.02
27.19
21.01
14.95
9.79
6.44
5.49
6.86
9.83
13.23
15.91
17.07
16.46
14.39
11.45
8.34
5.58
3.38
1.60
-0.00
-1.65
-3.34
-4.93
-6.15
-6.91
-7.36
-7.90
-9.02
-10.97
-13.59
-16.40
-18.76
-20.19
-20.52
-19.91
-18.71
-17.26
-15.77
-14.22
-12.50
-10.45
-8.00
-5.17
-2.04
1.27
4.68
8.10
11.43
14.46
16.94
18.56
19.14
18.77
17.85
17.03
17.02
18.22
20.47
23.17
25.44
26.59
26.51
25.69
25.05
25.45
27.31
30.40
34.02
37.23
39.22
39.43
37.53
33.39
26.99
18.53
8.49
-2.31
-12.87
-22.20
-29.57
-34.65
-37.51
-38.47
-37.97
-36.41
-34.08
-31.14
-27.62
-23.46
-18.77
-13.78
-9.11
-5.53
-3.86
-4.59
-7.68
-12.51
-18.04
-23.17
-26.93
-28.79
-28.63
-26.65
-23.27
-18.99
-14.35
-9.86
-5.97
-2.99
-1.06
-0.13
0.00
-0.36
-0.80
-0.92
-0.38
0.99
3.13
5.70
8.28
10.53
12.31
13.84
15.45
17.46
19.91
22.44
24.41
25.13
24.14
21.27
16.75
11.09
5.02
-0.70
-5.43
-8.79
-10.75
-11.57
-11.69
-11.49
-11.20
-10.85
-10.34
-9.61
-8.68
-7.67
-6.65
-5.62
-4.41
-2.86
-0.90
1.32
3.49
5.21
6.15
6.22
5.58
4.53
3.43
2.55
2.00
1.81
1.94
2.30
2.74
3.06
3.07
2.56
1.46
-0.15
-2.07
-3.90
-5.25
-5.69
-4.95
-2.98
-0.05
3.30
6.43
8.78
10.11
10.48
10.21
9.66
9.11
8.64
8.22
7.71
6.97
5.95
4.66
3.22
1.83
0.66
-0.16
-0.58
-0.63
-0.41
-0.03
0.34
0.57
0.52
0.15
-0.43
-1.06
-1.56
-1.87
-2.04
-2.18
-2.29
-2.19
-1.57
-0.11
2.30
5.50
9.09
12.61
15.62
17.84
19.14
19.46
18.83
17.32
15.10
12.38
9.38
6.31
3.28
0.27
-2.76
-5.86
-9.04
-12.20
-15.20
-17.84
-19.97
-21.52
-22.45
-22.81
-22.64
-22.02
-21.02
-19.79
-18.52
-17.46
-16.74
-16.35
-16.06
-15.42
-13.96
-11.32
-7.52
-2.94
1.68
5.56
8.18
9.36
9.36
8.56
7.29
5.66
3.69
1.51
-0.63
-2.57
-4.44
-6.70
-9.98
-14.51
-19.73
-24.23
-26.14
-23.89
-16.75
-5.16
9.48
25.06
39.10
48.94
52.15
47.02
33.17
12.01
-13.37
-38.81
-60.09
-73.86
-78.24
-73.10
-59.85
-41.13
-20.28
-0.71
14.62
23.86
26.50
23.34
16.12
6.96
-2.12
-9.62
-14.68
-17.11
-17.21
-15.54
-12.78
-9.58
-6.45
-3.71
-1.51
0.14
1.30
2.06
2.47
2.49
2.07
1.16
-0.18
-1.76
-3.35
-4.70
-5.60
-5.91
-5.48
-4.17
-1.89
1.37
5.36
9.61
13.47
16.30
17.71
17.63
16.34
14.35
12.17
10.21
8.70
7.71
7.17
7.02
7.20
7.58
7.99
8.24
8.09
7.46
6.47
5.43
4.77
4.85
5.73
7.16
8.69
9.84
10.40
10.43
10.25
10.19
10.49
11.17
12.21
13.53
15.12
16.90
18.72
20.28
21.20
21.22
20.26
18.50
16.26
13.88
11.60
9.56
7.79
6.32
5.17
4.37
3.93
3.81
3.87
3.90
3.68
3.00
1.79
0.22
-1.41
-2.76
-3.63
-4.03
-4.20
-4.53
-5.29
-6.52
-8.00
-9.29
-9.98
-9.78
-8.65
-6.85
-4.78
-2.82
-1.21
0.01
0.88
1.47
1.75
1.64
1.10
0.27
-0.53
-0.96
-0.83
-0.21
0.62
1.35
1.79
2.02
2.21
2.45
2.72
2.82
2.59
1.99
1.15
0.23
-0.68
-1.60
-2.67
-3.92
-5.21
-6.23
-6.56
-5.89
-4.14
-1.52
1.53
4.48
6.86
8.39
9.02
8.98
8.56
8.02
7.54
7.17
6.87
6.64
6.44
6.23
6.03
5.81
5.55
5.27
4.98
4.65
4.25
3.71
2.94
1.89
0.58
-0.91
-2.41
-3.85
-5.20
-6.52
-7.87
-9.17
-10.19
-10.65
-10.28
-9.00
-6.97
-4.45
-1.78
0.72
2.82
4.41
5.37
5.67
5.43
4.83
4.14
3.55
3.14
2.83
2.53
2.17
1.77
1.41
1.21
1.20
1.43
1.87
2.43
3.01
3.44
3.58
3.40
2.95
2.34
1.60
0.66
-0.66
-2.42
-4.49
-6.44
-7.67
-7.76
-6.52
-4.20
-1.32
1.57
4.00
5.73
6.66
6.87
6.43
5.49
4.24
2.94
1.88
1.28
1.22
1.61
2.25
2.84
3.17
3.14
2.79
2.31
1.85
1.56
1.42
1.31
1.08
0.62
-0.09
-1.00
-2.06
-3.28
-4.74
-6.50
-8.50
-10.47
-11.99
-12.59
-11.95
-10.07
-7.23
-3.89
-0.53
2.51
5.06
7.02
8.27
8.74
8.39
7.32
5.78
4.17
2.85
2.03
1.71
1.69
1.68
1.47
1.04
0.52
0.19
0.22
0.59
1.07
1.30
1.04
0.24
-0.92
-2.12
-3.11
-3.83
-4.37
-4.83
-5.17
-5.08
-4.19
-2.18
0.94
4.80
8.85
12.53
15.57
17.96
19.84
21.34
22.39
22.81
22.38
21.08
19.08
16.68
14.14
11.60
9.08
6.52
3.96
1.45
-0.90
-3.11
-5.22
-7.30
-9.41
-11.52
-13.58
-15.52
-17.35
-19.08
-20.68
-21.97
-22.73
-22.64
-21.50
-19.31
-16.22
-12.52
-8.54
-4.61
-1.03
1.95
4.09
5.22
5.23
4.03
1.59
-2.04
-6.62
-11.73
-16.79
-21.22
-24.54
-26.55
-27.29
-26.93
-25.65
-23.58
-20.83
-17.55
-14.02
-10.60
-7.64
-5.40
-3.96
-3.23
-3.05
-3.12
-3.19
-2.99
-2.33
-1.13
0.61
2.83
5.39
8.12
10.77
13.07
14.75
15.63
15.71
15.15
14.22
13.18
12.21
11.32
10.46
9.53
8.52
7.44
6.33
5.24
4.15
3.03
1.88
0.77
-0.20
-0.95
-1.52
-2.08
-2.85
-3.95
-5.35
-6.81
-7.99
-8.60
-8.43
-7.49
-5.91
-3.91
-1.70
0.51
2.57
4.32
5.60
6.24
6.15
5.36
4.04
2.54
1.26
0.52
0.39
0.66
0.95
0.86
0.14
-1.15
-2.79
-4.39
-5.62
-6.27
-6.31
-5.87
-5.25
-4.79
-4.78
-5.32
-6.31
-7.39
-8.10
-7.97
-6.74
-4.44
-1.34
2.13
5.57
8.64
11.17
13.08
14.24
14.55
13.92
12.42
10.35
8.14
6.19
4.72
3.72
3.08
2.67
2.46
2.47
2.65
2.80
2.66
2.01
0.81
-0.76
-2.40
-3.89
-5.20
-6.54
-8.18
-10.27
-12.72
-15.11
-16.86
-17.44
-16.63
-14.63
-11.94
-9.19
-6.81
-4.92
-3.41
-2.09
-0.87
0.10
0.65
0.69
0.35
-0.03
-0.15
0.11
0.56
0.86
0.71
0.01
-1.13
-2.44
-3.74
-4.88
-5.82
-6.58
-7.18
-7.71
-8.29
-9.05
-10.07
-11.32
-12.67
-13.96
-15.10
-16.04
-16.72
-16.97
-16.52
-15.11
-12.67
-9.45
-5.96
-2.79
-0.35
1.22
2.09
2.60
3.05
3.59
4.20
4.81
5.45
6.23
7.30
8.70
10.28
11.71
12.61
12.75
12.11
10.96
9.60
8.35
7.32
6.48
5.71
4.88
3.88
2.65
1.17
-0.62
-2.74
-5.18
-7.79
-10.27
-12.20
-13.21
-13.06
-11.76
-9.49
-6.58
-3.40
-0.26
2.54
4.79
6.36
7.23
7.51
7.38
7.01
6.49
5.84
5.06
4.19
3.35
2.63
2.03
1.48
0.82
-0.11
-1.31
-2.72
-4.19
-5.59
-6.84
-7.98
-9.06
-10.10
-11.09
-11.97
-12.72
-13.41
-14.21
-15.32
-16.81
-18.52
-19.99
-20.60
-19.88
-17.64
-14.15
-9.99
-5.81
-2.08
1.08
3.81
6.34
8.81
11.19
13.31
14.96
16.00
16.46
16.44
16.18
15.94
15.94
16.25
16.80
17.37
17.70
17.60
17.07
16.24
15.33
14.49
13.70
12.79
11.53
9.88
7.94
5.96
4.10
2.41
0.69
-1.26
-3.54
-6.06
-8.55
-10.75
-12.60
-14.18
-15.60
-16.78
-17.42
-17.13
-15.67
-13.15
-9.97
-6.68
-3.66
-0.96
1.57
4.16
6.84
9.39
11.42
12.65
13.07
13.04
13.04
13.43
14.33
15.51
16.58
17.19
17.25
16.98
16.75
16.88
17.41
18.11
18.61
18.56
17.85
16.66
15.28
14.02
12.92
11.85
10.56
8.85
6.69
4.15
1.35
-1.59
-4.55
-7.30
-9.57
-10.91
-11.02
-9.78
-7.41
-4.35
-1.11
1.96
4.69
7.07
9.08
10.67
11.68
12.00
11.60
10.58
9.23
7.92
7.05
6.86
7.42
8.54
9.85
10.92
11.37
11.09
10.23
9.14
8.18
7.53
7.10
6.57
5.56
3.88
1.64
-0.81
-3.05
-4.80
-6.11
-7.29
-8.78
-10.92
-13.85
-17.44
-21.33
-24.99
-27.86
-29.46
-29.48
-27.93
-25.06
-21.34
-17.26
-13.18
-9.31
-5.69
-2.32
0.78
3.56
5.98
8.04
9.76
11.12
12.11
12.73
13.06
13.30
13.63
14.15
14.78
15.33
15.59
15.49
15.11
14.58
13.97
13.19
12.09
10.52
8.55
6.37
4.28
2.44
0.87
-0.56
-2.04
-3.68
-5.51
-7.58
-9.96
-12.73
-15.87
-19.20
-22.30
-24.65
-25.76
-25.38
-23.51
-20.40
-16.46
-12.09
-7.61
-3.28
0.72
4.22
7.10
9.22
10.56
11.26
11.67
12.25
13.43
15.36
17.89
20.55
22.78
24.24
24.89
24.97
24.77
24.46
23.96
23.15
21.94
20.39
18.69
17.02
15.41
13.72
11.83
9.62
7.17
4.61
2.09
-0.30
-2.58
-4.78
-6.93
-8.96
-10.81
-12.35
-13.43
-13.86
-13.47
-12.17
-9.98
-7.12
-3.94
-0.78
2.09
4.58
6.65
8.30
9.47
10.05
10.05
9.59
8.97
8.54
8.58
9.11
9.87
10.42
10.36
9.54
8.11
6.47
5.08
4.21
3.85
3.77
3.63
3.11
2.10
0.63
-1.14
-3.07
-5.02
-6.98
-8.96
-11.04
-13.26
-15.55
-17.77
-19.70
-21.12
-21.91
-22.05
-21.53
-20.36
-18.46
-15.81
-12.45
-8.57
-4.51
-0.69
2.47
4.69
5.90
6.24
6.02
5.64
5.45
5.65
6.23
7.07
7.95
8.70
9.24
9.55
9.67
9.61
9.36
8.85
8.03
6.86
5.37
3.65
1.82
-0.01
-1.75
-3.34
-4.80
-6.14
-7.43
-8.83
-10.53
-12.75
-15.54
-18.67
-21.67
-23.92
-24.87
-24.21
-21.95
-18.39
-13.99
-9.26
-4.64
-0.47
3.02
5.72
7.60
8.70
9.17
9.17
8.91
8.59
8.43
8.63
9.27
10.28
11.43
12.39
12.82
12.61
11.83
10.85
10.10
9.90
10.26
10.85
11.21
10.87
9.67
7.74
5.42
3.08
0.95
-0.96
-2.85
-4.92
-7.29
-9.87
-12.38
-14.37
-15.36
-14.98
-13.07
-9.78
-5.53
-0.92
3.41
6.97
9.47
10.93
11.56
11.68
11.60
11.51
11.42
11.22
10.75
9.93
8.79
7.48
6.11
4.73
3.30
1.74
0.09
-1.51
-2.83
-3.69
-4.15
-4.44
-4.87
-5.68
-6.86
-8.27
-9.65
-10.86
-11.89
-12.83
-13.75
-14.61
-15.19
-15.17
-14.21
-12.09
-8.78
-4.53
0.16
4.69
8.51
11.24
12.76
13.16
12.68
11.61
10.21
8.77
7.54
6.71
6.41
6.67
7.43
8.56
9.86
11.09
11.91
12.00
11.10
9.16
6.42
3.36
0.55
-1.58
-2.92
-3.74
-4.55
-5.86
-7.97
-10.88
-14.29
-17.83
-21.06
-23.63
-25.15
-25.22
-23.52
-19.90
-14.60
-8.25
-1.72
4.19
8.92
12.29
14.39
15.39
15.46
14.74
13.32
11.33
8.93
6.24
3.40
0.55
-2.08
-4.23
-5.61
-6.13
-5.95
-5.39
-4.84
-4.54
-4.55
-4.79
-5.18
-5.66
-6.27
-7.02
-7.87
-8.77
-9.77
-11.11
-13.11
-16.00
-19.69
-23.62
-26.96
-28.82
-28.58
-26.12
-21.84
-16.44
-10.79
-5.60
-1.32
1.89
4.17
5.79
7.14
8.51
10.04
11.64
13.00
13.69
13.30
11.58
8.55
4.55
0.18
-3.79
-6.59
-7.73
-7.04
-4.76
-1.47
2.12
5.36
7.81
9.30
9.84
9.53
8.41
6.41
3.45
-0.50
-5.28
-10.54
-15.79
-20.47
-24.02
-26.00
-26.15
-24.49
-21.35
-17.26
-12.83
-8.55
-4.67
-1.24
1.83
4.65
7.28
9.75
12.11
14.39
16.58
18.48
19.82
20.29
19.75
18.42
16.84
15.71
15.61
16.73
18.80
21.12
22.87
23.35
22.25
19.71
16.26
12.50
8.98
6.04
3.76
2.06
0.71
-0.55
-1.96
-3.69
-5.75
-8.00
-10.09
-11.60
-12.08
-11.29
-9.17
-5.98
-2.12
1.87
5.49
8.35
10.18
10.81
10.15
8.24
5.19
1.28
-3.09
-7.50
-11.52
-14.79
-16.98
-17.78
-17.04
-14.81
-11.39
-7.23
-2.81
1.47
5.37
8.64
10.97
12.00
11.39
9.08
5.31
0.58
-4.50
-9.30
-13.32
-16.10
-17.29
-16.73
-14.54
-11.18
-7.33
-3.68
-0.71
1.38
2.60
3.01
2.62
1.47
-0.31
-2.44
-4.51
-6.09
-6.99
-7.22
-6.99
-6.56
-6.09
-5.56
-4.89
-3.97
-2.83
-1.60
-0.47
0.42
1.01
1.38
1.57
1.66
1.62
1.33
0.61
-0.74
-2.88
-5.75
-9.10
-12.43
-15.13
-16.67
-16.82
-15.61
-13.41
-10.64
-7.71
-4.91
-2.43
-0.37
1.23
2.46
3.55
4.75
6.20
7.79
9.24
10.16
10.34
9.81
8.84
7.82
7.07
6.70
6.67
6.77
6.79
6.55
5.97
5.10
4.06
2.98
2.03
1.31
0.89
0.76
0.84
0.99
1.01
0.75
0.10
-0.76
-1.51
-1.70
-1.01
0.60
2.89
5.35
7.51
9.06
9.91
10.20
10.21
10.17
10.28
10.60
11.05
11.46
11.62
11.34
10.50
9.09
7.25
5.21
3.20
1.49
0.24
-0.44
-0.57
-0.22
0.45
1.29
2.16
3.00
3.81
4.58
5.32
5.93
6.23
5.93
4.81
2.81
0.16
-2.67
-5.06
-6.47
-6.63
-5.54
-3.49
-0.85
2.00
4.76
7.23
9.26
10.68
11.36
11.18
10.11
8.19
5.60
2.54
-0.72
-3.92
-6.89
-9.46
-11.45
-12.70
-13.06
-12.52
-11.28
-9.75
-8.38
-7.52
-7.25
-7.42
-7.70
-7.84
-7.71
-7.38
-7.03
-6.78
-6.68
-6.69
-6.73
-6.75
-6.72
-6.59
-6.33
-5.85
-5.10
-4.10
-2.85
-1.41
0.18
1.85
3.46
4.81
5.72
6.13
6.14
5.98
5.89
5.99
6.25
6.55
6.79
6.90
6.90
6.80
6.58
6.14
5.33
4.03
2.10
-0.53
-3.83
-7.64
-11.60
-15.24
-18.08
-19.88
-20.65
-20.64
-20.20
-19.62
-19.07
-18.57
-18.02
-17.28
-16.14
-14.38
-11.93
-8.83
-5.41
-2.11
0.66
2.66
3.91
4.60
4.95
5.08
5.03
4.79
4.46
4.24
4.35
4.94
5.92
7.05
8.02
8.55
8.55
8.12
7.46
6.76
6.15
5.68
5.33
5.08
4.92
4.80
4.67
4.42
3.96
3.27
2.40
1.51
0.82
0.47
0.53
0.98
1.71
2.65
3.76
5.01
6.40
7.84
9.15
10.13
10.58
10.34
9.39
7.83
5.83
3.64
1.53
-0.32
-1.72
-2.60
-2.90
-2.65
-1.94
-0.96
0.04
0.79
1.11
1.01
0.61
0.09
-0.44
-1.03
-1.84
-3.08
-4.87
-7.20
-9.97
-13.00
-16.10
-19.04
-21.47
-23.01
-23.27
-22.06
-19.57
-16.26
-12.78
-9.67
-7.20
-5.27
-3.61
-1.89
0.04
2.10
4.11
5.82
7.08
7.80
7.98
7.67
7.00
6.14
5.32
4.73
4.45
4.44
4.54
4.55
4.28
3.59
2.47
1.03
-0.51
-1.94
-3.09
-3.96
-4.66
-5.38
-6.27
-7.29
-8.34
-9.25
-9.90
-10.17
-9.98
-9.19
-7.74
-5.72
-3.38
-1.12
0.71
1.99
2.83
3.47
4.08
4.67
5.10
5.22
5.02
4.63
4.31
4.23
4.40
4.68
4.89
4.95
4.89
4.79
4.71
4.54
4.14
3.38
2.28
1.03
-0.13
-0.97
-1.41
-1.49
-1.34
-1.13
-1.06
-1.34
-2.13
-3.46
-5.10
-6.54
-7.18
-6.52
-4.40
-1.15
2.57
6.02
8.66
10.32
11.09
11.25
11.01
10.50
9.75
8.79
7.72
6.67
5.80
5.15
4.67
4.32
4.04
3.84
3.79
3.82
3.81
3.60
3.10
2.31
1.28
0.00
-1.52
-3.29
-5.21
-7.07
-8.57
-9.54
-9.98
-10.15
-10.35
-10.74
-11.25
-11.64
-11.63
-11.03
-9.89
-8.33
-6.59
-4.92
-3.60
-2.88
-2.97
-3.94
-5.70
-8.05
-10.63
-13.10
-15.14
-16.42
-16.63
-15.53
-12.98
-9.13
-4.45
0.44
4.89
8.50
11.10
12.79
13.71
13.96
13.47
12.14
9.96
7.05
3.69
0.18
-3.24
-6.42
-9.29
-11.70
-13.44
-14.27
-14.04
-12.78
-10.73
-8.19
-5.38
-2.40
0.82
4.37
8.21
12.09
15.59
18.28
19.83
20.15
19.36
17.71
15.48
12.99
10.51
8.29
6.54
5.34
4.65
4.27
3.95
3.43
2.60
1.51
0.31
-0.84
-1.95
-3.11
-4.46
-6.06
-7.79
-9.42
-10.68
-11.46
-11.82
-11.92
-11.84
-11.48
-10.49
-8.58
-5.61
-1.88
1.99
5.28
7.41
8.33
8.42
8.40
8.91
10.28
12.26
14.19
15.27
14.98
13.29
10.81
8.55
7.50
8.23
10.57
13.66
16.21
17.09
15.86
12.99
9.74
7.62
7.76
10.33
14.43
18.30
19.86
17.31
9.76
-2.02
-15.38
-25.91
-28.59
-19.74
0.96
29.33
57.40
75.80
77.12
58.80
24.42
-17.23
-54.87
-78.20
-80.99
-62.57
-27.36
16.98
62.12
101.06
129.12
143.87
144.76
132.85
110.92
83.67
57.29
37.96
29.79
33.26
45.14
60.20
73.71
83.36
89.80
95.42
102.36
110.81
118.63
122.13
117.68
103.07
78.16
44.70
5.31
-37.20
-80.40
-122.50
-162.34
-199.49
-234.64
-269.57
-306.71
-347.72
-391.68
-433.89
-466.28
-479.65
-467.07
-426.91
-363.99
-288.26
-211.52
-143.66
-89.98
-50.82
-22.97
-2.03
15.53
31.44
45.95
58.72
69.57
78.66
86.09
91.65
94.50
93.85
89.69
83.44
77.73
75.51
78.71
87.30
99.21
111.25
120.44
125.00
124.79
121.08
115.96
111.85
111.06
115.42
125.87
142.07
162.22
183.45
202.61
217.17
225.63
227.56
223.20
213.22
198.93
182.62
167.54
157.24
154.37
159.53
170.86
184.75
196.92
203.61
202.33
192.30
174.26
150.32
123.25
95.76
69.67
45.36
21.86
-2.58
-29.52
-59.68
-92.68
-127.77
-163.80
-199.12
-231.60
-258.71
-277.88
-287.14
-285.61
-273.59
-253.72
-229.53
-204.67
-182.17
-164.15
-151.54
-143.95
-139.44
-134.61
-127.56
-117.47
-105.33
-93.73
-85.94
-84.46
-89.98
-101.34
-116.37
-136.15
-163.67
-202.55
-254.54
-317.84
-387.16
-455.61
-517.30
-553.18
-549.90
-502.47
-417.58
-310.89
-199.39
-95.06
-3.21
75.13
140.56
191.17
224.35
237.85
232.57
211.17
178.09
139.56
103.17
76.59
63.75
64.77
76.10
92.19
107.93
119.65
126.04
128.43
129.66
131.21
133.11
134.26
133.69
131.35
128.31
126.17
126.20
128.82
133.18
138.14
143.37
149.73
158.71
171.38
187.18
203.47
216.05
220.63
214.77
199.06
176.82
152.40
129.33
109.12
91.44
75.27
60.20
47.03
37.38
32.74
33.61
39.21
47.87
57.66
66.81
73.95
78.18
79.17
77.25
73.53
69.50
66.57
65.47
66.09
67.66
69.26
70.35
70.95
71.45
72.29
73.51
74.67
74.99
73.75
70.57
65.62
59.49
52.89
46.37
40.32
35.05
30.92
28.53
28.54
31.23
36.11
41.58
45.05
43.60
34.62
16.50
-10.96
-47.00
-90.26
-139.17
-191.91
-245.85
-297.19
-341.29
-374.00
-393.27
-399.93
-397.21
-388.88
-377.43
-363.04
-343.98
-317.93
-283.54
-241.87
-196.52
-152.72
-115.61
-88.32
-70.60
-59.00
-48.76
-36.44
-22.09
-8.98
-1.19
-0.39
-4.43
-8.84
-10.44
-10.12
-12.30
-21.50
-38.02
-56.66
-69.18
-69.49
-57.19
-37.81
-19.36
-7.41
-2.26
0.68
7.67
23.23
48.15
79.31
111.11
137.43
153.44
156.95
149.14
134.14
117.62
105.05
100.27
105.13
119.88
143.80
175.07
210.25
244.01
270.14
283.69
282.97
270.65
252.88
236.99
228.46
229.06
236.32
244.43
246.26
235.70
209.60
168.96
118.84
66.75
21.02
-11.13
-24.87
-18.34
7.18
47.49
96.05
144.95
185.66
211.16
217.34
203.77
173.40
131.38
83.31
33.91
-13.86
-60.08
-106.66
-155.73
-207.71
-259.98
-306.99
-341.81
-358.63
-355.02
-334.26
-302.93
-268.31
-235.83
-208.20
-186.34
-170.77
-162.30
-161.70
-171.01
-191.40
-222.73
-263.45
-311.16
-363.21
-416.74
-468.60
-502.40
-503.72
-464.34
-387.39
-286.27
-178.22
-77.16
9.08
78.17
131.20
169.20
193.30
205.08
207.20
202.67
194.62
185.74
177.76
171.08
163.99
154.98
144.55
136.57
136.34
147.45
170.04
199.95
229.76
250.85
256.82
242.23
210.54
168.42
122.68
78.59
40.76
11.09
-8.34
-15.47
-9.24
9.75
37.39
66.64
88.10
94.31
82.89
57.84
27.64
1.51
-14.07
-18.24
-14.76
-8.96
-4.46
-1.95
0.32
4.39
10.86
18.82
26.20
31.41
34.19
35.76
37.89
41.86
47.65
54.14
59.28
61.25
59.17
53.46
45.60
37.40
30.35
25.16
21.74
19.35
17.36
15.63
14.49
14.63
16.71
21.04
27.51
35.65
44.44
53.20
61.66
69.91
78.23
86.96
96.29
106.21
116.68
126.95
136.54
145.15
152.49
158.27
161.91
162.44
158.19
151.55
142.99
132.92
121.79
110.05
98.16
86.40
74.91
63.68
52.74
41.59
30.12
18.46
6.89
-4.34
-15.20
-25.93
-36.94
-48.59
-61.51
-75.82
-91.24
-107.26
-123.41
-139.39
-155.19
-171.05
-187.34
-204.93
-224.60
-246.84
-271.35
-296.59
-319.83
-337.73
-347.42
-347.57
-338.97
-323.98
-305.48
-285.79
-265.99
-246.02
-225.26
-203.20
-179.89
-155.94
-132.19
-109.47
-88.38
-69.36
-52.77
-38.90
-27.94
-19.84
-14.25
-10.50
-7.88
-5.88
-4.39
-3.65
-3.94
-5.13
-6.61
-7.39
-6.63
-4.09
-0.15
4.35
8.75
12.73
16.41
19.96
23.31
26.02
27.51
27.40
25.70
22.89
19.73
16.93
15.05
14.40
14.95
16.35
17.82
18.27
16.49
11.77
4.25
-4.80
-13.27
-18.86
-20.03
-16.50
-9.43
-0.90
6.89
12.35
14.88
14.91
13.55
12.14
11.90
13.59
17.52
23.53
31.10
39.56
48.25
56.49
63.62
68.92
71.74
71.67
68.80
63.85
57.94
52.27
47.55
43.95
41.16
38.69
36.28
33.98
32.01
30.52
29.36
28.17
26.50
24.03
20.70
16.77
12.61
8.69
5.34
2.68
0.65
-0.91
-2.04
-2.59
-2.21
-0.50
2.64
6.87
11.49
15.64
18.72
20.57
21.47
21.89
22.14
22.32
22.28
21.85
20.97
19.80
18.59
17.59
16.91
16.46
16.00
15.28
14.16
12.63
10.88
9.11
7.45
5.90
4.34
2.65
0.79
-1.11
-2.93
-4.64
-6.36
-8.34
-10.73
-13.45
-16.06
-17.94
-18.40
-17.01
-13.73
-8.91
-3.11
3.03
9.00
14.45
19.12
22.86
25.50
26.99
27.38
26.84
25.76
24.51
23.44
22.64
22.05
21.41
20.52
19.34
18.02
16.82
15.95
15.41
14.92
14.11
12.71
10.69
8.31
5.89
3.69
1.73
-0.26
-2.59
-5.47
-8.92
-12.64
-16.17
-18.98
-20.53
-20.47
-18.67
-15.24
-10.60
-5.38
-0.21
4.38
8.04
10.73
12.57
13.76
14.47
14.80
14.80
14.48
13.88
13.09
12.24
11.44
10.75
10.11
9.38
8.39
7.09
5.51
3.80
2.08
0.40
-1.28
-3.06
-4.98
-7.04
-9.18
-11.41
-13.72
-16.13
-18.56
-20.67
-21.95
-21.79
-19.68
-15.43
-9.24
-1.69
6.41
14.24
21.11
26.53
30.31
32.42
32.97
32.17
30.24
27.48
24.22
20.80
17.53
14.68
12.41
10.85
10.04
9.96
10.47
11.33
12.22
12.78
12.69
11.80
10.12
7.84
5.25
2.61
0.11
-2.17
-4.23
-6.11
-7.88
-9.61
-11.36
-13.13
-14.86
-16.33
-17.19
-17.03
-15.53
-12.62
-8.57
-3.90
0.70
4.62
7.44
9.08
9.69
9.60
9.14
8.56
7.94
7.30
6.56
5.66
4.57
3.33
1.99
0.68
-0.49
-1.40
-1.95
-2.13
-2.00
-1.77
-1.67
-1.92
-2.73
-4.12
-6.00
-8.15
-10.31
-12.23
-13.79
-14.95
-15.78
-16.44
-17.10
-17.90
-18.92
-20.15
-21.39
-22.32
-22.54
-21.66
-19.50
-16.12
-11.89
-7.41
-3.25
0.11
2.44
3.78
4.41
4.66
4.83
5.09
5.42
5.70
5.85
5.92
6.04
6.43
7.23
8.40
9.67
10.63
10.91
10.32
8.94
7.06
5.05
3.19
1.60
0.26
-1.00
-2.25
-3.55
-4.89
-6.26
-7.70
-9.26
-10.90
-12.44
-13.63
-14.10
-13.55
-11.85
-9.05
-5.46
-1.45
2.53
6.12
9.01
11.06
12.24
12.68
12.60
12.24
11.83
11.47
11.19
10.93
10.65
10.33
9.97
9.58
9.13
8.64
8.03
7.31
6.52
5.70
4.90
4.10
3.31
2.54
1.83
1.23
0.76
0.38
-0.03
-0.57
-1.27
-2.15
-3.18
-4.40
-5.87
-7.57
-9.31
-10.75
-11.48
-11.24
-10.13
-8.56
-7.05
-6.02
-5.63
-5.79
-6.28
-6.97
-7.79
-8.74
-9.70
-10.42
-10.61
-10.03
-8.68
-6.69
-4.29
-1.74
0.76
3.06
5.06
6.68
7.89
8.74
9.25
9.42
9.13
8.24
6.61
4.20
1.18
-2.11
-5.31
-8.14
-10.43
-12.18
-13.47
-14.36
-14.92
-15.28
-15.57
-16.02
-16.85
-18.13
-19.71
-21.14
-21.81
-21.17
-18.92
-15.15
-10.31
-5.08
-0.11
4.13
7.46
9.93
11.65
12.71
13.07
12.73
11.75
10.40
9.03
8.00
7.48
7.45
7.76
8.21
8.62
8.93
9.08
9.06
8.83
8.37
7.74
7.03
6.33
5.68
4.99
4.16
3.06
1.65
-0.02
-1.83
-3.64
-5.39
-7.05
-8.67
-10.27
-11.91
-13.63
-15.48
-17.47
-19.45
-21.15
-22.12
-21.92
-20.23
-17.04
-12.69
-7.81
-3.07
0.96
4.06
6.27
7.79
8.80
9.35
9.41
8.95
8.07
6.99
6.01
5.36
5.03
4.87
4.59
4.01
3.15
2.24
1.59
1.35
1.46
1.66
1.60
1.03
-0.15
-1.84
-3.89
-6.07
-8.29
-10.46
-12.53
-14.49
-16.41
-18.44
-20.81
-23.67
-26.82
-29.66
-31.26
-30.62
-27.11
-20.76
-12.33
-2.97
6.18
14.31
21.07
26.42
30.43
33.07
34.29
34.09
32.70
30.48
27.92
25.38
23.05
20.99
19.15
17.55
16.21
15.24
14.70
14.62
14.92
15.41
15.81
15.75
14.96
13.29
10.78
7.72
4.51
1.52
-1.03
-3.12
-4.97
-6.83
-8.93
-11.36
-14.11
-17.05
-20.02
-22.82
-25.18
-26.79
-27.31
-26.40
-23.92
-19.97
-14.94
-9.44
-4.08
0.66
4.57
7.62
9.90
11.46
12.27
12.30
11.58
10.35
9.03
8.08
7.81
8.25
9.09
9.86
10.18
9.87
9.03
7.92
6.82
5.91
5.16
4.48
3.69
2.72
1.57
0.28
-1.12
-2.62
-4.26
-6.14
-8.29
-10.76
-13.51
-16.42
-19.25
-21.62
-23.07
-23.14
-21.52
-18.23
-13.60
-8.20
-2.71
2.29
6.48
9.72
12.05
13.56
14.37
14.60
14.46
14.19
14.00
13.99
14.14
14.31
14.37
14.24
14.00
13.80
13.77
13.93
14.17
14.29
14.08
13.43
12.33
10.92
9.30
7.60
5.83
3.96
1.95
-0.26
-2.65
-5.18
-7.71
-9.96
-11.53
-11.95
-10.87
-8.19
-4.17
0.66
5.64
10.18
13.89
16.66
18.52
19.47
19.27
17.47
13.58
7.35
-0.90
-10.19
-19.16
-26.45
-31.18
-33.17
-32.89
-31.08
-28.40
-25.25
-21.81
-18.26
-14.91
-12.16
-10.36
-9.61
-9.73
-10.32
-11.00
-11.51
-11.84
-12.20
-12.83
-13.87
-15.21
-16.45
-16.97
-16.15
-13.58
-9.27
-3.69
2.47
8.42
13.60
17.76
20.87
23.05
24.36
24.83
24.48
23.39
21.70
19.62
17.35
15.15
13.22
11.72
10.73
10.12
9.64
9.00
7.97
6.53
4.86
3.16
1.59
0.12
-1.43
-3.30
-5.67
-8.65
-12.28
-16.53
-21.31
-26.43
-31.53
-36.16
-39.75
-41.78
-41.84
-39.76
-35.65
-29.84
-22.85
-15.32
-7.87
-1.05
4.75
9.25
12.34
14.04
14.50
14.00
12.92
11.70
10.72
10.21
10.20
10.54
10.99
11.29
11.26
10.80
9.95
8.82
7.52
6.13
4.65
2.98
1.01
-1.33
-4.01
-6.99
-10.25
-13.79
-17.57
-21.35
-24.61
-26.58
-26.50
-23.94
-19.03
-12.49
-5.35
1.35
6.92
11.09
13.98
15.82
16.84
17.11
16.64
15.47
13.80
11.98
10.40
9.41
9.13
9.46
10.12
10.78
11.14
11.06
10.51
9.47
8.00
6.13
3.96
1.54
-1.07
-3.87
-6.92
-10.33
-14.15
-18.26
-22.27
-25.57
-27.46
-27.34
-24.92
-20.34
-14.07
-6.84
0.65
7.78
14.17
19.52
23.66
26.45
27.89
28.20
27.75
27.08
26.58
26.43
26.46
26.39
25.91
24.89
23.42
21.66
19.76
17.68
15.30
12.48
9.17
5.45
1.44
-2.70
-6.89
-11.07
-15.15
-19.03
-22.61
-25.86
-28.79
-31.31
-33.04
-33.44
-31.84
-27.81
-21.40
-13.22
-4.36
4.04
11.06
16.24
19.58
21.42
22.25
22.55
22.67
22.71
22.59
22.05
20.82
18.79
16.11
13.16
10.27
7.58
4.96
2.17
-0.94
-4.31
-7.58
-10.31
-12.23
-13.33
-13.90
-14.38
-15.18
-16.62
-18.85
-21.97
-25.90
-30.35
-34.67
-37.89
-38.96
-37.10
-32.15
-24.70
-16.00
-7.54
-0.61
4.12
6.66
7.57
7.54
7.18
6.77
6.36
5.91
5.49
5.33
5.76
7.03
9.16
11.91
14.76
17.22
18.94
19.86
20.15
20.05
19.76
19.38
18.98
18.59
18.14
17.23
14.98
10.20
1.82
-10.44
-25.66
-41.68
-55.76
-65.44
-69.34
-67.45
-60.81
-50.91
-39.02
-26.05
-12.71
0.18
11.54
20.21
25.49
27.41
26.91
25.47
24.56
25.11
27.30
30.72
34.82
39.11
43.42
47.61
51.49
54.66
56.62
56.91
55.31
51.95
47.20
41.60
35.64
29.60
23.51
17.17
10.30
2.72
-5.44
-13.68
-21.18
-26.91
-29.99
-29.88
-26.55
-20.53
-12.79
-4.53
3.10
9.27
13.56
15.99
16.92
16.84
16.16
15.15
13.87
12.30
10.50
8.60
6.85
5.48
4.63
4.24
4.15
4.12
3.92
3.29
2.03
-0.02
-2.88
-6.36
-10.04
-13.39
-15.96
-17.56
-18.42
-19.05
-20.05
-21.82
-24.31
-26.98
-28.92
-29.14
-26.88
-21.89
-14.52
-5.61
3.82
12.74
20.36
26.27
30.31
32.55
33.22
32.63
31.17
29.24
27.24
25.41
23.94
22.85
22.05
21.43
20.86
20.21
19.34
18.17
16.57
14.47
11.82
8.61
4.89
0.82
-3.38
-7.41
-11.05
-14.19
-16.97
-19.72
-22.93
-26.99
-32.05
-37.85
-43.70
-48.63
-51.63
-51.89
-49.09
-43.41
-35.54
-26.40
-16.90
-7.78
0.53
7.79
13.82
18.43
21.42
22.73
22.50
21.12
19.14
17.04
15.08
13.26
11.40
9.31
6.98
4.56
2.25
0.15
-1.82
-3.88
-6.22
-8.92
-11.86
-14.72
-17.14
-18.78
-19.47
-19.27
-18.53
-17.85
-17.92
-19.33
-22.19
-25.95
-29.37
-30.75
-28.54
-21.85
-10.81
3.39
18.91
33.75
46.29
55.55
61.22
63.48
62.75
59.60
54.60
48.37
41.46
34.38
27.53
21.28
16.00
12.07
9.83
9.46
10.80
13.32
16.23
18.69
20.02
19.85
18.11
14.89
10.32
4.55
-2.13
-9.19
-15.79
-20.99
-24.07
-24.76
-23.33
-20.38
-16.52
-12.11
-7.23
-1.85
3.86
9.52
14.55
18.44
20.96
22.21
22.45
21.91
20.72
18.88
16.44
13.58
10.56
7.70
5.24
3.28
1.84
0.89
0.42
0.34
0.49
0.59
0.33
-0.53
-2.12
-4.34
-6.96
-9.72
-12.41
-14.93
-17.36
-19.91
-22.88
-26.51
-30.86
-35.66
-40.31
-43.93
-45.63
-44.69
-40.88
-34.48
-26.25
-17.16
-8.22
-0.16
6.55
11.73
15.38
17.64
18.73
18.97
18.66
18.05
17.31
16.51
15.67
14.88
14.26
13.95
14.02
14.35
14.61
14.39
13.26
10.97
7.50
3.01
-2.12
-7.44
-12.48
-16.89
-20.45
-23.18
-25.37
-27.44
-29.78
-32.48
-35.23
-37.33
-37.88
-36.17
-31.91
-25.42
-17.47
-9.06
-1.13
5.67
11.01
14.87
17.32
18.57
18.80
18.20
16.96
15.28
13.39
11.51
9.81
8.36
7.13
5.97
4.76
3.41
1.95
0.48
-0.90
-2.14
-3.25
-4.25
-5.21
-6.16
-7.13
-8.24
-9.64
-11.54
-14.10
-17.33
-20.99
-24.55
-27.26
-28.31
-27.04
-23.21
-17.08
-9.44
-1.33
6.24
12.52
17.23
20.43
22.36
23.30
23.40
22.77
21.50
19.78
17.84
15.95
14.34
13.07
12.13
11.35
10.54
9.56
8.35
6.92
5.35
3.63
1.74
-0.44
-2.96
-5.83
-8.98
-12.36
-16.01
-20.03
-24.53
-29.36
-34.01
-37.68
-39.43
-38.54
-34.83
-28.70
-21.05
-13.00
-5.57
0.57
5.16
8.30
10.28
11.39
11.86
11.74
11.08
9.97
8.60
7.30
6.39
6.05
6.28
6.86
7.44
7.69
7.40
6.53
5.12
3.30
1.15
-1.28
-3.97
-6.89
-9.99
-13.28
-16.81
-20.72
-25.04
-29.67
-34.11
-37.60
-39.21
-38.20
-34.31
-27.87
-19.76
-11.10
-2.98
3.79
8.81
12.08
13.90
14.75
15.08
15.20
15.26
15.31
15.32
15.36
15.47
15.71
16.08
16.48
16.75
16.73
16.35
15.54
14.33
12.70
10.67
8.25
5.50
2.56
-0.49
-3.59
-6.86
-10.43
-14.45
-18.87
-23.36
-27.29
-29.80
-30.12
-27.86
-23.14
-16.65
-9.41
-2.39
3.66
8.39
11.80
14.07
15.38
15.84
15.55
14.61
13.25
11.79
10.58
9.91
9.89
10.43
11.21
11.83
11.93
11.29
9.93
8.02
5.85
3.69
1.68
-0.17
-2.01
-4.04
-6.51
-9.53
-13.15
-17.22
-21.46
-25.41
-28.47
-29.99
-29.39
-26.37
-21.07
-14.07
-6.26
1.35
7.98
13.19
16.91
19.28
20.49
20.74
20.16
18.99
17.50
16.04
14.86
14.07
13.55
13.08
12.51
11.72
10.71
9.54
8.22
6.74
5.06
3.14
1.01
-1.31
-3.76
-6.28
-8.85
-11.41
-13.99
-16.67
-19.51
-22.55
-25.59
-28.16
-29.56
-29.02
-26.04
-20.57
-13.13
-4.66
3.74
11.10
16.79
20.54
22.42
22.67
21.64
19.72
17.33
14.88
12.71
11.04
9.93
9.29
8.97
8.80
8.71
8.65
8.64
8.57
8.28
7.52
6.06
3.74
0.57
-3.30
-7.60
-11.99
-16.21
-20.11
-23.64
-26.90
-30.02
-33.11
-36.14
-38.85
-40.73
-41.20
-39.75
-36.15
-30.56
-23.47
-15.63
-7.74
-0.42
6.01
11.38
15.72
19.10
21.60
23.35
24.44
25.01
25.18
25.07
24.77
24.35
23.84
23.27
22.63
21.96
21.28
20.56
19.69
18.51
16.84
14.56
11.65
8.26
4.57
0.83
-2.83
-6.39
-9.86
-13.33
-16.91
-20.64
-24.35
-27.72
-30.19
-31.07
-29.82
-26.18
-20.41
-13.20
-5.46
1.88
8.14
12.97
16.32
18.38
19.39
19.63
19.41
18.97
18.52
18.17
17.92
17.72
17.49
17.16
16.73
16.19
15.53
14.66
13.45
11.84
9.83
7.49
4.99
2.46
-0.04
-2.47
-4.86
-7.31
-9.94
-12.94
-16.42
-20.31
-24.23
-27.53
-29.36
-29.01
-26.20
-21.13
-14.58
-7.50
-0.89
4.57
8.52
11.01
12.28
12.68
12.49
11.94
11.18
10.30
9.43
8.66
8.10
7.79
7.71
7.82
8.01
8.19
8.27
8.08
7.45
6.22
4.33
1.86
-0.92
-3.69
-6.23
-8.40
-10.34
-12.28
-14.56
-17.43
-21.05
-25.25
-29.54
-33.14
-35.07
-34.49
-31.03
-24.94
-17.02
-8.41
-0.13
7.09
12.95
17.42
20.61
22.59
23.39
23.05
21.74
19.75
17.49
15.36
13.66
12.50
11.83
11.46
11.16
10.76
10.20
9.52
8.75
7.87
6.73
5.17
3.05
0.41
-2.59
-5.66
-8.54
-11.11
-13.47
-15.89
-18.71
-22.14
-26.10
-30.18
-33.65
-35.66
-35.47
-32.74
-27.66
-20.84
-13.18
-5.52
1.50
7.49
12.32
15.94
18.30
19.46
19.51
18.71
17.43
16.08
15.03
14.49
14.43
14.68
14.94
14.94
14.52
13.65
12.40
10.90
9.21
7.36
5.33
3.14
0.85
-1.46
-3.71
-5.88
-7.99
-10.18
-12.57
-15.29
-18.32
-21.44
-24.16
-25.80
-25.69
-23.35
-18.82
-12.64
-5.68
1.11
7.00
11.59
14.74
16.48
16.88
16.08
14.35
12.16
10.03
8.43
7.57
7.36
7.54
7.79
7.95
7.96
7.83
7.49
6.82
5.63
3.81
1.37
-1.44
-4.29
-6.82
-8.80
-10.26
-11.45
-12.77
-14.62
-17.23
-20.55
-24.22
-27.59
-29.87
-30.28
-28.30
-23.79
-17.17
-9.25
-1.09
6.33
12.30
16.54
19.12
20.35
20.63
20.35
19.83
19.27
18.78
18.30
17.75
17.04
16.13
15.12
14.09
13.13
12.24
11.36
10.36
9.16
7.71
6.01
4.07
1.86
-0.58
-3.20
-5.85
-8.40
-10.79
-13.18
-15.87
-19.18
-23.24
-27.68
-31.72
-34.35
-34.64
-32.11
-26.94
-19.87
-11.96
-4.24
2.57
8.10
12.32
15.33
17.23
18.04
17.83
16.78
15.22
13.56
12.18
11.28
10.84
10.69
10.66
10.63
10.61
10.58
10.45
10.02
9.09
7.55
5.48
3.04
0.49
-2.03
-4.41
-6.65
-8.78
-10.86
-13.06
-15.58
-18.67
-22.32
-26.21
-29.58
-31.49
-31.10
-28.05
-22.61
-15.54
-7.86
-0.52
5.85
10.95
14.75
17.30
18.71
19.09
18.60
17.46
15.94
14.30
12.79
11.59
10.78
10.36
10.25
10.26
10.21
9.95
9.38
8.48
7.28
5.80
4.05
2.02
-0.34
-2.95
-5.76
-8.73
-11.84
-15.15
-18.67
-22.22
-25.37
-27.42
-27.57
-25.29
-20.49
-13.77
-6.11
1.33
7.62
12.32
15.41
17.14
17.72
17.25
15.77
13.35
10.29
7.13
4.47
2.81
2.36
2.97
4.25
5.65
6.64
6.87
6.21
4.78
2.82
0.60
-1.79
-4.40
-7.42
-11.05
-15.33
-20.09
-25.02
-29.84
-34.41
-38.68
-42.59
-45.85
-47.92
-48.14
-46.01
-41.46
-35.02
-27.58
-20.18
-13.64
-8.36
-4.58
-2.59
-2.90
-6.01
-11.82
-19.05
-25.16
-27.01
-21.90
-9.01
10.06
31.78
52.40
69.55
83.14
94.95
107.41
122.48
140.98
162.90
187.69
214.24
240.28
262.09
274.88
274.40
258.79
229.67
191.65
150.17
109.15
69.72
30.93
-8.36
-47.32
-82.49
-108.45
-119.55
-112.20
-86.38
-46.23
0.29
43.19
72.57
81.02
65.49
28.44
-22.41
-75.55
-118.62
-142.22
-143.14
-125.60
-99.68
-77.54
-68.55
-75.98
-96.06
-120.21
-138.80
-144.91
-136.52
-116.40
-90.51
-65.46
-46.47
-36.07
-33.91
-37.54
-43.79
-50.52
-57.13
-64.32
-73.07
-83.64
-95.41
-107.29
-118.47
-128.61
-137.74
-145.48
-150.68
-151.52
-146.15
-133.56
-114.25
-90.49
-65.84
-44.41
-29.71
-23.79
-26.64
-36.20
-48.89
-60.58
-67.63
-67.66
-60.00
-45.55
-26.40
-5.19
15.51
33.84
48.87
60.69
70.03
77.67
83.80
87.71
87.86
82.52
70.61
52.40
29.87
6.43
-13.76
-27.00
-30.96
-25.32
-11.84
6.36
25.65
42.85
55.81
63.49
65.58
62.19
53.72
40.94
25.30
8.94
-5.62
-16.27
-21.90
-22.78
-20.25
-16.08
-11.83
-8.41
-6.13
-4.89
-4.55
-4.96
-5.94
-7.09
-7.78
-7.32
-5.28
-1.80
2.40
6.19
8.44
8.55
6.80
4.28
2.61
3.24
6.80
12.69
19.42
25.12
28.45
29.10
27.81
25.93
24.70
24.74
25.97
27.88
29.85
31.44
32.40
32.61
31.95
30.35
27.71
24.01
19.23
13.39
6.56
-1.02
-8.84
-16.20
-22.27
-26.31
-27.79
-26.51
-22.58
-16.36
-8.43
0.48
9.60
18.15
25.51
31.18
34.84
36.34
35.69
33.15
29.26
24.75
20.32
16.52
13.51
11.10
8.98
6.88
4.71
2.60
0.74
-0.77
-1.99
-3.21
-4.84
-7.31
-10.99
-16.05
-22.38
-29.60
-37.01
-43.68
-48.52
-50.51
-48.83
-43.15
-33.71
-21.39
-7.56
6.17
18.35
27.89
34.29
37.59
38.27
37.02
34.58
31.75
29.17
27.36
26.53
26.60
27.16
27.75
28.05
28.03
27.98
28.29
29.20
30.55
31.83
32.33
31.43
28.85
24.74
19.59
14.03
8.61
3.67
-0.75
-4.84
-8.88
-13.16
-17.83
-22.87
-28.01
-32.77
-36.58
-38.81
-38.94
-36.68
-32.10
-25.68
-18.22
-10.65
-3.79
1.88
6.27
9.62
12.27
14.47
16.28
17.60
18.41
18.83
19.19
19.82
20.94
22.44
24.01
25.22
25.84
25.81
25.33
24.63
23.91
23.21
22.43
21.43
20.03
18.12
15.64
12.67
9.41
6.11
3.00
0.17
-2.47
-5.19
-8.28
-11.98
-16.20
-20.60
-24.52
-27.21
-27.96
-26.31
-22.17
-15.83
-7.93
0.70
9.14
16.62
22.57
26.75
29.15
30.04
29.75
28.75
27.44
26.16
25.15
24.46
24.05
23.75
23.41
22.96
22.41
21.77
21.12
20.43
19.70
18.87
17.95
16.83
15.43
13.61
11.29
8.50
5.40
2.23
-0.78
-3.48
-5.89
-8.11
-10.31
-12.66
-15.29
-18.23
-21.37
-24.42
-26.85
-28.03
-27.35
-24.48
-19.50
-12.95
-5.70
1.28
7.19
11.55
14.26
15.54
15.73
15.18
14.20
13.02
11.82
10.77
10.01
9.61
9.54
9.63
9.63
9.31
8.56
7.39
5.99
4.58
3.26
2.04
0.80
-0.62
-2.24
-3.95
-5.51
-6.63
-7.09
-6.81
-5.87
-4.51
-3.04
-1.87
-1.29
-1.42
-2.03
-2.66
-2.69
-1.65
0.60
3.83
7.46
10.83
13.35
14.72
14.93
14.20
12.85
11.20
9.52
8.04
6.86
6.01
5.43
5.05
4.76
4.48
4.23
4.06
4.10
4.44
5.08
5.93
6.86
7.82
8.97
10.60
13.03
16.48
20.89
25.91
30.96
35.37
38.59
40.21
40.11
38.36
35.35
31.71
28.29
25.93
25.23
26.40
29.11
32.56
35.58
36.92
35.49
30.60
22.11
10.42
-3.56
-18.67
-33.63
-47.26
-58.65
-67.19
-72.67
-75.26
-75.43
-73.80
-70.95
-67.28
-62.99
-58.16
-52.82
-47.02
-40.93
-34.77
-28.90
-23.61
-19.17
-15.73
-13.23
-11.50
-10.29
-9.44
-8.87
-8.64
-8.79
-9.38
-10.39
-11.72
-13.21
-14.52
-15.23
-14.77
-12.67
-8.71
-3.07
3.62
10.40
16.18
19.94
20.95
18.90
13.99
6.99
-0.88
-8.17
-13.48
-15.85
-14.97
-11.31
-6.00
-0.51
3.67
5.34
3.86
-0.77
-7.86
-16.09
-23.83
-29.58
-32.56
-33.05
-32.26
-31.83
-33.00
-35.98
-39.93
-43.44
-45.23
-44.81
-42.48
-38.92
-34.75
-30.26
-25.61
-20.98
-16.69
-13.00
-9.83
-6.66
-2.66
2.89
10.13
18.57
27.19
34.76
40.27
43.19
43.65
42.40
40.65
39.67
40.39
43.03
47.01
51.32
54.92
57.27
58.41
58.73
58.55
57.91
56.55
54.07
50.28
45.20
39.09
32.38
25.51
18.95
13.10
8.20
4.31
1.32
-0.95
-2.47
-2.87
-1.52
2.20
8.51
17.03
26.78
36.42
44.52
49.84
51.47
48.90
42.12
31.66
18.60
4.41
-9.27
-21.04
-30.01
-35.87
-38.89
-39.70
-39.12
-37.89
-36.62
-35.56
-34.68
-33.72
-32.31
-30.26
-27.62
-24.64
-21.76
-19.39
-17.68
-16.72
-16.44
-16.79
-17.85
-19.70
-22.38
-25.68
-29.23
-32.40
-34.66
-35.59
-35.09
-33.44
-31.21
-29.05
-27.52
-27.00
-27.48
-28.78
-30.57
-32.50
-34.28
-35.69
-36.54
-36.70
-36.09
-34.68
-32.56
-29.89
-27.02
-24.42
-22.63
-22.08
-22.87
-24.65
-26.68
-28.07
-28.16
-26.73
-24.00
-20.48
-16.69
-13.01
-9.70
-6.92
-4.81
-3.35
-2.31
-1.22
0.46
3.15
6.99
11.81
17.28
23.03
28.69
33.83
37.94
40.40
40.67
38.54
34.30
28.77
23.08
18.31
15.24
14.09
14.63
16.27
18.36
20.31
21.72
22.45
22.53
22.24
21.96
22.01
22.45
22.86
22.43
20.09
15.03
7.00
-3.50
-15.35
-27.29
-38.27
-47.68
-55.31
-61.01
-64.48
-65.18
-62.47
-56.03
-46.20
-34.05
-21.18
-9.23
0.54
7.60
12.02
14.26
14.85
14.11
12.30
9.73
6.96
4.74
3.87
4.83
7.62
11.81
16.58
21.19
25.10
28.10
30.26
31.83
33.05
34.12
35.08
35.83
36.24
36.21
35.76
35.07
34.53
34.59
35.68
38.09
41.75
46.16
50.41
53.32
53.74
51.04
45.25
37.17
28.00
18.95
10.86
4.06
-1.50
-6.04
-9.69
-12.54
-14.67
-16.34
-17.93
-19.83
-22.23
-24.98
-27.61
-29.48
-30.18
-29.52
-27.68
-25.02
-21.94
-18.77
-15.75
-13.13
-11.20
-10.37
-10.96
-13.11
-16.73
-21.50
-26.98
-32.68
-38.17
-42.95
-46.52
-48.42
-48.36
-46.36
-42.84
-38.41
-33.72
-29.24
-25.16
-21.43
-17.95
-14.67
-11.63
-8.91
-6.56
-4.55
-2.83
-1.31
0.06
1.36
2.65
4.00
5.42
6.81
8.10
9.19
10.10
10.90
11.65
12.32
12.71
12.45
11.11
8.41
4.32
-0.87
-6.77
-12.89
-18.90
-24.55
-29.61
-33.73
-36.38
-37.02
-35.28
-31.25
-25.48
-18.93
-12.53
-7.00
-2.65
0.58
2.94
4.68
5.91
6.68
6.99
6.93
6.69
6.55
6.72
7.32
8.29
9.46
10.61
11.57
12.19
12.42
12.22
11.60
10.64
9.44
8.15
6.83
5.47
3.96
2.07
-0.41
-3.61
-7.59
-12.30
-17.45
-22.60
-27.10
-30.17
-31.11
-29.44
-25.10
-18.58
-10.71
-2.59
4.75
10.51
14.35
16.29
16.70
16.10
14.97
13.74
12.69
12.02
11.85
12.25
13.14
14.37
15.67
16.76
17.47
17.74
17.60
17.15
16.42
15.40
13.98
12.10
9.70
6.92
4.01
1.22
-1.29
-3.56
-5.91
-8.73
-12.33
-16.62
-21.06
-24.68
-26.45
-25.61
-21.89
-15.62
-7.57
1.35
10.24
18.45
25.50
31.10
35.06
37.29
37.82
36.88
34.87
32.32
29.79
27.79
26.60
26.23
26.40
26.62
26.27
24.84
22.05
17.91
12.79
7.24
1.92
-2.65
-6.17
-8.59
-10.04
-10.75
-11.06
-11.37
-12.20
-14.09
-17.51
-22.54
-28.74
-35.07
-40.07
-42.30
-40.76
-35.23
-26.36
-15.46
-4.16
6.03
14.05
19.38
22.09
22.63
21.64
19.71
17.36
14.91
12.59
10.49
8.58
6.72
4.75
2.50
-0.08
-2.84
-5.51
-7.85
-9.77
-11.41
-13.03
-14.96
-17.38
-20.25
-23.40
-26.60
-29.76
-32.93
-36.24
-39.83
-43.60
-47.11
-49.67
-50.42
-48.64
-43.96
-36.45
-26.70
-15.55
-3.99
7.11
17.11
25.63
32.51
37.76
41.51
43.94
45.28
45.82
45.86
45.66
45.40
45.06
44.55
43.73
42.55
41.07
39.45
37.76
35.98
33.93
31.40
28.27
24.58
20.53
16.41
12.57
9.24
6.53
4.35
2.39
0.23
-2.55
-6.17
-10.49
-14.94
-18.67
-20.77
-20.60
-17.91
-12.95
-6.28
1.36
9.29
17.01
24.09
30.25
35.28
39.03
41.49
42.86
43.48
43.85
44.48
45.64
47.35
49.30
50.95
51.72
51.15
49.05
45.52
40.92
35.74
30.52
25.66
21.36
17.49
13.61
9.08
3.25
-4.30
-13.59
-24.20
-35.38
-46.15
-55.53
-62.61
-66.72
-67.45
-64.72
-58.90
-50.68
-41.13
-31.47
-22.88
-16.21
-11.92
-9.91
-9.80
-11.06
-13.33
-16.42
-20.20
-24.31
-27.92
-29.73
-28.36
-22.83
-13.12
-0.39
13.38
25.92
35.44
41.07
42.88
41.52
37.78
32.26
25.31
17.22
8.37
-0.71
-9.48
-17.55
-24.75
-31.13
-36.72
-41.44
-44.99
-46.91
-46.74
-44.14
-38.94
-31.27
-21.54
-10.50
0.87
11.62
20.89
28.12
33.07
35.73
36.22
34.78
31.69
27.37
22.34
17.08
12.01
7.40
3.40
0.07
-2.51
-4.31
-5.37
-5.85
-6.01
-6.09
-6.21
-6.31
-6.19
-5.69
-4.72
-3.46
-2.21
-1.41
-1.39
-2.31
-4.01
-6.06
-7.88
-8.90
-8.78
-7.46
-5.22
-2.49
0.32
3.00
5.51
7.92
10.30
12.66
14.89
16.86
18.44
19.54
20.11
20.17
19.83
19.23
18.55
17.90
17.31
16.67
15.81
14.59
13.00
11.10
8.94
6.48
3.60
0.12
-3.99
-8.66
-13.67
-18.80
-23.94
-29.10
-34.24
-39.09
-43.10
-45.50
-45.66
-43.22
-38.37
-31.65
-23.87
-15.81
-8.15
-1.40
4.07
8.03
10.44
11.49
11.48
10.80
9.77
8.62
7.53
6.65
6.13
6.09
6.57
7.46
8.58
9.72
10.75
11.62
12.29
12.66
12.54
11.71
10.00
7.42
4.13
0.34
-3.80
-8.30
-13.18
-18.40
-23.69
-28.48
-32.02
-33.59
-32.68
-29.21
-23.54
-16.37
-8.61
-1.13
5.40
10.65
14.59
17.40
19.38
20.73
21.55
21.89
21.80
21.41
20.93
20.64
20.69
21.14
21.90
22.78
23.56
24.07
24.19
23.86
23.11
21.94
20.35
18.35
15.97
13.22
10.14
6.71
2.86
-1.51
-6.35
-11.35
-15.87
-19.09
-20.35
-19.45
-16.90
-13.76
-11.27
-10.41
-11.58
-14.49
-18.40
-22.35
-25.47
-27.04
-26.60
-23.94
-19.12
-12.55
-4.94
2.84
9.93
15.72
19.96
22.72
24.33
25.17
25.52
25.53
25.28
24.82
24.24
23.67
23.25
23.05
23.00
22.90
22.48
21.45
19.62
16.96
13.65
9.95
6.19
2.62
-0.63
-3.56
-6.29
-9.00
-11.91
-15.16
-18.82
-22.75
-26.52
-29.55
-31.21
-31.00
-28.71
-24.49
-18.83
-12.43
-6.04
-0.30
4.32
7.59
9.47
10.12
9.79
8.81
7.49
6.13
4.93
3.94
3.13
2.40
1.59
0.60
-0.58
-1.87
-3.09
-4.03
-4.64
-5.03
-5.50
-6.41
-8.03
-10.40
-13.42
-16.85
-20.55
-24.54
-28.93
-33.75
-38.80
-43.51
-47.11
-48.79
-47.99
-44.58
-38.86
-31.49
-23.31
-15.13
-7.58
-1.01
4.43
8.79
12.14
14.52
15.95
16.52
16.38
15.81
15.13
14.65
14.60
15.15
16.41
18.47
21.29
24.72
28.41
31.90
34.72
36.54
37.16
36.57
34.79
31.77
27.44
21.70
14.61
6.35
-2.73
-12.14
-21.40
-29.90
-37.08
-42.27
-44.93
-44.69
-41.52
-35.84
-28.47
-20.46
-12.85
-6.45
-1.71
1.27
2.70
2.99
2.59
1.90
1.29
1.00
1.29
2.36
4.36
7.34
11.18
15.54
19.95
23.89
26.91
28.74
29.33
28.77
27.24
24.90
21.93
18.49
14.73
10.81
6.91
3.09
-0.69
-4.57
-8.72
-13.19
-17.76
-21.86
-24.79
-25.82
-24.57
-21.11
-15.96
-9.92
-3.81
1.74
6.41
10.09
12.84
14.79
16.04
16.63
16.57
15.87
14.63
13.07
11.47
10.11
9.14
8.52
8.06
7.54
6.77
5.69
4.35
2.73
0.84
-1.35
-3.83
-6.56
-9.43
-12.34
-15.26
-18.25
-21.46
-24.94
-28.64
-32.24
-35.24
-37.05
-37.14
-35.16
-31.10
-25.29
-18.38
-11.21
-4.63
0.70
4.49
6.83
8.12
8.84
9.33
9.68
9.82
9.62
9.10
8.49
8.11
8.18
8.73
9.49
10.09
10.24
9.87
9.06
8.02
6.79
5.25
3.18
0.41
-3.02
-6.77
-10.42
-13.67
-16.42
-18.85
-21.27
-23.85
-26.50
-28.78
-30.04
-29.69
-27.40
-23.21
-17.51
-10.94
-4.18
2.11
7.43
11.48
14.16
15.49
15.65
14.86
13.26
10.95
7.94
4.33
0.34
-3.55
-6.62
-8.06
-7.12
-3.42
2.88
10.96
19.47
26.83
31.51
32.38
28.89
21.12
9.75
-3.96
-18.30
-31.42
-41.55
-47.54
-49.11
-46.82
-41.83
-35.40
-28.51
-21.68
-15.12
-8.92
-3.25
1.61
5.46
8.26
10.25
11.77
13.22
14.86
16.80
19.07
21.57
24.26
27.00
29.65
32.02
33.92
35.23
35.83
35.62
34.44
32.24
29.06
25.15
20.97
17.01
13.71
11.25
9.58
8.47
7.70
7.00
6.12
4.79
2.66
-0.51
-4.72
-9.60
-14.47
-18.46
-20.81
-20.99
-18.86
-14.71
-9.13
-2.94
3.08
8.31
12.43
15.45
17.56
18.96
19.73
19.78
18.98
17.29
14.88
12.09
9.33
6.86
4.81
3.12
1.69
0.39
-0.89
-2.25
-3.81
-5.67
-7.90
-10.48
-13.38
-16.52
-19.86
-23.28
-26.71
-30.08
-33.23
-36.05
-38.30
-39.69
-39.89
-38.55
-35.49
-30.75
-24.75
-18.14
-11.64
-5.85
-1.19
2.24
4.51
5.92
6.75
7.28
7.70
8.09
8.42
8.60
8.62
8.48
8.27
8.07
7.92
7.83
7.74
7.58
7.25
6.65
5.66
4.17
2.12
-0.48
-3.56
-7.00
-10.71
-14.59
-18.57
-22.61
-26.59
-30.24
-33.17
-34.87
-34.81
-32.68
-28.48
-22.63
-15.93
-9.29
-3.49
0.96
3.98
5.76
6.70
7.21
7.63
8.20
9.06
10.23
11.63
13.15
14.64
16.02
17.25
18.39
19.46
20.45
21.28
21.81
21.83
21.17
19.68
17.31
14.10
10.18
5.78
1.20
-3.25
-7.35
-11.01
-14.21
-17.03
-19.42
-21.14
-21.82
-21.04
-18.57
-14.49
-9.26
-3.57
1.84
6.43
9.94
12.37
13.83
14.43
14.28
13.49
12.20
10.65
9.18
8.12
7.74
8.12
9.19
10.65
12.12
13.22
13.69
13.45
12.63
11.42
10.05
8.65
7.16
5.46
3.36
0.75
-2.37
-5.85
-9.47
-12.90
-15.79
-17.85
-18.81
-18.52
-16.92
-14.11
-10.34
-6.01
-1.63
2.32
5.52
7.88
9.44
10.42
10.98
11.22
11.13
10.70
9.97
9.07
8.22
7.56
7.10
6.73
6.22
5.40
4.26
2.95
1.64
0.39
-0.99
-2.85
-5.51
-9.09
-13.34
-17.75
-21.83
-25.31
-28.20
-30.74
-33.03
-34.90
-35.80
-35.09
-32.32
-27.56
-21.46
-15.05
-9.54
-5.83
-4.47
-5.50
-8.47
-12.51
-16.48
-19.10
-19.18
-16.04
-9.72
-1.09
8.40
17.13
23.82
27.87
29.37
28.90
27.18
24.79
22.00
18.88
15.38
11.57
7.63
3.79
0.24
-3.02
-6.25
-9.80
-13.90
-18.58
-23.42
-27.75
-30.78
-31.91
-30.91
-27.99
-23.63
-18.48
-13.12
-7.94
-3.10
1.41
5.71
9.88
13.93
17.76
21.19
23.95
25.87
26.76
26.57
25.37
23.36
20.84
18.14
15.56
13.34
11.69
10.70
10.34
10.49
10.90
11.24
11.23
10.73
9.80
8.65
7.43
6.09
4.37
1.94
-1.33
-5.24
-9.17
-12.29
-13.86
-13.46
-11.11
-7.18
-2.31
2.85
7.69
11.73
14.71
16.57
17.46
17.60
17.27
16.69
16.04
15.47
15.14
15.17
15.62
16.41
17.38
18.32
19.07
19.53
19.70
19.53
18.91
17.62
15.49
12.42
8.51
4.04
-0.64
-5.24
-9.63
-13.78
-17.67
-21.13
-23.78
-25.12
-24.69
-22.37
-18.41
-13.45
-8.27
-3.61
0.13
2.84
4.67
5.86
6.59
7.01
7.18
7.19
7.08
6.92
6.71
6.44
6.14
5.83
5.58
5.38
5.18
4.82
4.13
3.04
1.59
-0.09
-1.85
-3.63
-5.49
-7.55
-9.93
-12.68
-15.77
-19.13
-22.65
-26.18
-29.41
-31.96
-33.36
-33.22
-31.33
-27.76
-22.87
-17.21
-11.44
-6.12
-1.74
1.53
3.68
4.98
5.76
6.30
6.76
7.12
7.35
7.42
7.49
7.68
8.14
8.88
9.79
10.75
11.68
12.57
13.47
14.39
15.13
15.34
14.56
12.41
8.83
4.08
-1.21
-6.36
-10.88
-14.67
-17.96
-21.11
-24.36
-27.53
-30.15
-31.57
-31.25
-29.03
-25.15
-20.19
-14.77
-9.49
-4.67
-0.45
3.21
6.37
9.11
11.40
13.14
14.29
14.91
15.21
15.49
16.04
16.98
18.27
19.67
20.91
21.76
22.11
21.99
21.45
20.54
19.24
17.54
15.42
12.94
10.24
7.51
4.92
2.56
0.39
-1.75
-4.10
-6.88
-10.09
-13.50
-16.56
-18.64
-19.12
-17.72
-14.53
-10.01
-4.83
0.31
4.84
8.36
10.74
12.02
12.42
12.32
12.11
12.12
12.55
13.42
14.61
15.96
17.25
18.35
19.16
19.61
19.71
19.53
19.12
18.55
17.81
16.83
15.47
13.62
11.19
8.22
4.88
1.36
-2.14
-5.54
-8.93
-12.45
-16.22
-20.13
-23.75
-26.45
-27.55
-26.57
-23.48
-18.71
-13.01
-7.24
-2.13
1.86
4.57
6.07
6.57
6.31
5.49
4.27
2.86
1.48
0.35
-0.35
-0.59
-0.44
-0.09
0.27
0.56
0.80
1.06
1.36
1.61
1.56
0.93
-0.52
-2.83
-5.85
-9.28
-12.74
-16.00
-18.98
-21.77
-24.56
-27.54
-30.66
-33.63
-35.89
-36.83
-35.93
-33.02
-28.33
-22.47
-16.20
-10.26
-5.11
-0.87
2.54
5.30
7.53
9.26
10.47
11.17
11.47
11.52
11.52
11.59
11.78
12.06
12.37
12.68
12.95
13.16
13.25
13.11
12.57
11.47
9.66
7.10
3.91
0.35
-3.19
-6.42
-9.18
-11.58
-13.83
-16.21
-18.85
-21.67
-24.41
-26.69
-28.13
-28.43
-27.37
-24.89
-21.11
-16.38
-11.21
-6.18
-1.78
1.75
4.42
6.41
7.99
9.35
10.58
11.69
12.70
13.59
14.44
15.30
16.24
17.30
18.42
19.53
20.48
21.11
21.33
21.07
20.33
19.08
17.31
14.95
12.01
8.58
4.92
1.34
-1.90
-4.72
-7.24
-9.69
-12.32
-15.18
-18.06
-20.50
-21.97
-22.02
-20.41
-17.25
-12.89
-7.90
-2.91
1.56
5.19
7.87
9.66
10.77
11.41
11.77
11.99
12.21
12.54
13.11
13.93
14.92
15.93
16.77
17.32
17.54
17.48
17.24
16.90
16.42
15.69
14.52
12.78
10.42
7.59
4.55
1.62
-0.97
-3.19
-5.21
-7.32
-9.78
-12.63
-15.61
-18.22
-19.80
-19.75
-17.78
-13.97
-8.81
-3.04
2.55
7.29
10.78
12.92
13.90
14.18
14.37
15.17
17.20
20.73
25.55
30.85
35.45
38.04
37.66
33.94
27.22
18.50
9.11
0.44
-6.40
-10.67
-12.18
-11.17
-8.23
-4.11
0.44
4.68
7.92
9.51
8.84
5.46
-0.74
-9.42
-19.67
-30.24
-39.77
-47.08
-51.45
-52.62
-50.80
-46.45
-40.24
-32.92
-25.33
-18.34
-12.64
-8.67
-6.51
-5.91
-6.43
-7.57
-8.87
-9.87
-10.09
-9.04
-6.39
-2.05
3.59
9.81
15.63
20.14
22.68
22.99
21.17
17.62
12.94
7.80
2.79
-1.67
-5.43
-8.59
-11.45
-14.31
-17.32
-20.37
-23.11
-25.01
-25.48
-24.12
-20.88
-16.11
-10.53
-4.99
-0.24
3.31
5.63
6.98
7.69
7.96
7.87
7.45
6.81
6.23
6.07
6.63
7.94
9.82
11.90
13.82
15.29
16.07
15.96
14.68
11.97
7.64
1.78
-5.17
-12.48
-19.29
-24.79
-28.46
-30.01
-29.40
-26.76
-22.31
-16.36
-9.40
-2.06
4.95
10.94
15.35
17.88
18.50
17.42
15.06
11.90
8.47
5.24
2.55
0.61
-0.50
-0.88
-0.73
-0.41
-0.31
-0.80
-2.02
-3.88
-6.08
-8.26
-10.25
-12.23
-14.67
-18.11
-22.93
-29.00
-35.73
-42.18
-47.58
-51.70
-54.99
-58.38
-62.76
-68.39
-74.59
-79.80
-82.19
-80.35
-74.08
-64.57
-54.29
-46.26
-43.04
-45.81
-53.50
-62.79
-68.40
-64.48
-46.49
-13.08
32.54
82.74
127.23
156.06
162.83
146.97
114.03
74.18
39.15
18.95
19.12
39.56
75.00
116.78
155.45
183.12
195.07
190.30
171.06
141.73
107.61
73.91
44.96
23.54
10.45
4.28
2.03
0.12
-3.96
-10.72
-18.59
-24.89
-27.45
-25.68
-20.97
-15.89
-12.94
-13.35
-16.54
-20.45
-22.38
-19.96
-11.96
1.25
17.65
34.14
47.52
55.68
58.43
57.63
56.62
59.03
67.70
83.96
107.47
136.43
167.86
198.13
223.44
240.53
247.61
244.92
234.61
220.02
204.16
188.50
172.44
153.95
130.63
100.89
64.66
23.19
-21.36
-66.48
-109.49
-147.36
-176.68
-194.07
-197.25
-186.24
-164.14
-136.77
-111.25
-94.12
-89.56
-98.67
-119.57
-148.31
-179.78
-208.72
-230.49
-242.04
-242.35
-232.87
-216.95
-198.73
-181.80
-168.04
-157.47
-148.64
-139.61
-128.72
-115.20
-99.19
-81.48
-63.19
-45.24
-28.01
-11.42
4.84
20.84
35.93
48.78
58.04
63.25
65.48
66.94
69.57
73.27
74.91
69.14
50.70
17.08
-29.69
-82.86
-132.99
-170.56
-188.68
-184.62
-160.03
-120.06
-71.84
-22.95
20.45
54.77
79.68
97.99
114.65
135.31
164.71
204.64
252.40
300.92
340.61
363.08
364.68
348.00
320.42
290.19
262.45
237.38
211.48
180.59
142.86
99.53
53.68
8.20
-35.42
-76.75
-115.20
-149.48
-178.37
-202.11
-223.13
-245.83
-274.63
-311.84
-355.90
-400.70
-436.55
-452.57
-440.09
-396.54
-328.05
-249.09
-178.27
-131.47
-115.14
-123.53
-141.36
-150.58
-137.90
-99.30
-39.91
29.67
98.03
156.11
198.18
221.45
225.62
212.63
186.60
153.13
117.93
85.55
58.84
39.29
27.87
25.19
31.07
44.02
61.13
78.81
94.10
105.52
113.09
117.57
119.46
118.23
112.46
100.47
81.43
56.00
26.31
-4.70
-34.28
-60.58
-82.93
-101.36
-116.04
-126.70
-132.45
-132.28
-125.75
-113.56
-97.79
-81.60
-68.40
-60.88
-60.18
-65.58
-74.82
-84.86
-92.83
-96.79
-96.12
-91.24
-83.15
-72.85
-60.96
-47.74
-33.31
-18.03
-2.69
11.53
23.35
31.80
36.43
37.37
35.11
30.36
23.74
15.83
7.27
-1.33
-9.29
-16.10
-21.44
-25.09
-26.94
-26.79
-24.49
-19.98
-13.55
-5.83
2.26
9.76
15.94
20.40
23.11
24.30
24.32
23.59
22.50
21.39
20.55
20.19
20.38
21.14
22.34
23.81
25.30
26.66
27.74
28.53
29.03
29.25
29.22
28.81
27.86
26.15
23.50
19.82
15.15
9.61
3.40
-3.18
-9.78
-15.89
-20.93
-24.27
-25.41
-24.05
-20.24
-14.33
-6.90
1.31
9.51
16.97
23.08
27.43
29.92
30.66
29.95
28.19
25.79
23.15
20.75
19.00
18.23
18.54
19.73
21.25
22.49
22.83
21.96
19.87
16.81
13.12
9.18
5.26
1.55
-1.87
-4.95
-7.72
-10.31
-12.95
-15.90
-19.36
-23.42
-27.85
-32.14
-35.45
-36.89
-35.70
-31.59
-24.80
-16.04
-6.41
3.01
11.34
18.06
23.01
26.26
28.03
28.58
28.17
27.06
25.57
24.01
22.71
21.87
21.59
21.78
22.26
22.82
23.29
23.59
23.64
23.37
22.65
21.33
19.32
16.59
13.22
9.32
5.07
0.56
-4.15
-9.05
-14.11
-19.21
-24.06
-28.13
-30.73
-31.09
-28.69
-23.37
-15.51
-5.95
4.18
13.71
21.70
27.56
31.11
32.44
31.93
30.00
27.13
23.77
20.37
17.43
15.39
14.56
14.99
16.48
18.51
20.45
21.72
21.92
20.89
18.64
15.36
11.27
6.63
1.74
-3.08
-7.44
-11.12
-14.08
-16.59
-19.15
-22.29
-26.21
-30.61
-34.69
-37.30
-37.48
-34.74
-29.30
-21.88
-13.49
-5.12
2.56
9.11
14.36
18.29
20.89
22.20
22.27
21.31
19.63
17.77
16.33
15.86
16.63
18.57
21.18
23.76
25.57
26.12
25.24
23.07
19.94
16.22
12.27
8.32
4.47
0.69
-3.19
-7.46
-12.33
-17.79
-23.49
-28.61
-32.07
-32.89
-30.45
-24.76
-16.56
-7.05
2.40
10.56
16.72
20.60
22.46
22.78
22.18
21.23
20.35
19.83
19.83
20.51
21.97
24.38
27.83
32.21
37.20
42.16
46.26
48.64
48.67
46.07
40.95
33.78
25.19
15.92
6.65
-2.06
-9.88
-16.65
-22.37
-27.00
-30.35
-31.95
-31.14
-27.33
-20.27
-10.25
1.93
15.09
28.00
39.53
48.81
55.35
59.07
60.37
59.98
58.79
57.44
56.14
54.66
52.50
49.36
45.38
41.09
37.18
34.09
31.75
29.76
27.60
25.00
21.97
18.71
15.40
12.06
8.70
5.36
2.19
-0.69
-3.55
-7.16
-12.62
-20.80
-31.71
-44.19
-56.16
-65.37
-70.20
-70.18
-65.91
-58.62
-49.60
-39.87
-30.10
-20.77
-12.23
-4.72
1.76
7.40
12.57
17.53
22.40
27.13
31.61
35.65
39.04
41.46
42.51
41.82
39.24
35.00
29.64
23.84
18.17
12.90
8.04
3.39
-1.23
-5.87
-10.49
-14.99
-19.37
-23.71
-28.04
-32.24
-35.86
-38.16
-38.34
-35.87
-30.72
-23.52
-15.36
-7.50
-0.92
3.88
6.92
8.57
9.21
9.16
8.53
7.47
6.20
5.11
4.60
4.90
5.94
7.31
8.53
9.13
8.90
7.88
6.32
4.47
2.55
0.55
-1.72
-4.62
-8.58
-13.84
-20.29
-27.37
-34.29
-40.30
-45.02
-48.44
-50.76
-51.95
-51.55
-48.81
-43.13
-34.55
-24.00
-13.07
-3.45
3.69
8.05
10.03
10.37
9.73
8.51
6.96
5.37
4.19
3.90
4.67
6.04
6.83
5.51
0.85
-7.38
-18.17
-29.37
-38.53
-43.72
-44.27
-40.89
-35.18
-28.93
-23.44
-19.26
-16.32
-14.36
-13.15
-12.64
-12.71
-12.93
-12.58
-10.85
-7.25
-1.98
4.13
9.83
14.01
16.12
16.29
15.23
13.83
12.76
12.29
12.33
12.58
12.77
12.82
12.87
13.08
13.56
14.13
14.40
13.89
12.28
9.51
5.87
1.83
-2.17
-5.88
-9.24
-12.37
-15.41
-18.54
-21.87
-25.60
-29.88
-34.75
-39.94
-44.79
-48.33
-49.59
-47.89
-43.13
-35.82
-26.90
-17.45
-8.44
-0.55
5.85
10.72
14.23
16.66
18.42
19.85
21.24
22.69
24.15
25.50
26.57
27.25
27.51
27.37
26.79
25.70
24.00
21.53
18.27
14.31
9.91
5.39
1.13
-2.60
-5.69
-8.14
-10.20
-12.19
-14.45
-17.20
-20.38
-23.54
-25.99
-26.95
-25.79
-22.29
-16.68
-9.63
-2.06
5.13
11.16
15.56
18.19
19.24
19.10
18.24
17.07
15.89
14.94
14.36
14.28
14.77
15.73
16.84
17.68
17.89
17.30
16.06
14.50
12.94
11.54
10.24
8.83
7.06
4.77
1.84
-1.82
-6.35
-11.72
-17.63
-23.45
-28.26
-31.10
-31.29
-28.63
-23.46
-16.60
-9.09
-1.99
3.88
8.07
10.54
11.59
11.74
11.56
11.57
12.13
13.44
15.55
18.37
21.62
24.87
27.65
29.58
30.48
30.31
29.14
27.06
24.11
20.36
15.92
11.04
5.99
1.07
-3.57
-7.96
-12.30
-16.84
-21.74
-26.89
-31.82
-35.84
-38.12
-38.08
-35.51
-30.66
-24.16
-16.80
-9.25
-1.97
4.76
10.79
15.93
19.90
22.33
22.94
21.60
18.48
14.08
9.16
4.58
1.13
-0.77
-1.14
-0.55
0.08
-0.26
-2.27
-6.11
-11.23
-16.62
-21.16
-24.03
-25.02
-24.54
-23.48
-22.95
-23.87
-26.74
-31.47
-37.45
-43.58
-48.64
-51.55
-51.54
-48.34
-42.09
-33.33
-22.88
-11.67
-0.65
9.38
17.86
24.59
29.61
33.20
35.67
37.38
38.70
40.11
42.09
45.00
48.95
53.71
58.67
63.13
66.47
68.40
68.98
68.45
67.04
64.83
61.70
57.45
51.92
45.13
37.35
29.08
20.91
13.38
6.79
0.98
-4.64
-10.79
-18.06
-26.44
-35.22
-43.20
-49.17
-52.35
-52.57
-50.18
-45.68
-39.48
-31.86
-23.15
-13.98
-5.28
1.86
6.67
8.98
9.26
8.47
7.59
7.26
7.69
8.68
9.86
10.92
11.71
12.24
12.61
12.88
13.03
12.92
12.40
11.31
9.52
6.99
3.71
-0.31
-5.03
-10.30
-15.79
-20.91
-24.91
-27.02
-26.70
-23.82
-18.79
-12.43
-5.74
0.40
5.37
8.93
11.11
12.09
12.10
11.39
10.13
8.50
6.65
4.70
2.83
1.17
-0.20
-1.30
-2.29
-3.35
-4.66
-6.24
-7.91
-9.35
-10.37
-11.05
-11.77
-13.08
-15.39
-18.76
-22.91
-27.36
-31.60
-35.36
-38.55
-41.12
-42.94
-43.68
-42.88
-40.18
-35.49
-29.05
-21.46
-13.42
-5.60
1.46
7.47
12.32
16.03
18.71
20.46
21.36
21.50
21.05
20.24
19.43
19.01
19.18
19.94
20.95
21.69
21.75
21.01
19.61
17.92
16.26
14.70
13.04
10.95
8.12
4.48
0.16
-4.61
-9.56
-14.41
-18.85
-22.41
-24.50
-24.58
-22.39
-18.11
-12.35
-6.05
-0.10
4.80
8.35
10.62
11.85
12.34
12.34
12.02
11.49
10.86
10.22
9.72
9.49
9.66
10.29
11.47
13.18
15.42
18.19
21.39
24.84
28.31
31.59
34.60
37.43
40.20
42.95
45.47
47.22
47.51
45.68
41.48
35.22
27.81
20.42
14.30
10.30
8.61
8.91
10.42
12.29
13.77
14.48
14.24
13.15
11.43
9.41
7.54
6.33
6.22
7.38
9.72
12.78
15.95
18.58
20.17
20.46
19.38
17.08
13.84
10.00
5.87
1.68
-2.45
-6.54
-10.62
-14.72
-18.90
-23.15
-27.43
-31.63
-35.54
-38.82
-41.11
-42.01
-41.24
-38.78
-34.83
-29.90
-24.62
-19.64
-15.45
-12.30
-10.14
-8.74
-7.80
-7.16
-6.81
-6.84
-7.33
-8.17
-9.11
-9.80
-10.03
-9.73
-8.98
-7.88
-6.52
-4.88
-2.96
-0.86
1.14
2.58
3.06
2.32
0.39
-2.47
-5.84
-9.39
-12.92
-16.35
-19.68
-22.76
-25.28
-26.77
-26.79
-25.19
-22.18
-18.36
-14.51
-11.37
-9.36
-8.53
-8.52
-8.71
-8.49
-7.43
-5.43
-2.69
0.32
3.07
5.13
6.23
6.27
5.33
3.64
1.58
-0.39
-1.77
-2.20
-1.65
-0.42
0.94
1.91
2.29
2.32
2.52
3.41
5.14
7.31
9.09
9.62
8.50
6.03
3.17
1.01
0.22
0.67
1.60
2.10
1.80
1.15
1.40
3.94
9.67
18.53
29.57
41.24
52.11
61.18
68.05
72.79
75.71
77.28
78.28
79.90
83.53
89.97
98.40
105.83
107.85
100.52
82.62
56.90
29.18
5.88
-8.92
-15.08
-15.90
-15.85
-18.25
-24.18
-33.15
-44.55
-58.73
-76.54
-98.07
-121.37
-142.35
-156.46
-160.53
-154.37
-140.80
-124.35
-109.31
-98.26
-91.51
-87.58
-84.43
-80.44
-74.95
-68.24
-60.96
-53.64
-46.49
-39.37
-32.15
-24.94
-18.17
-12.34
-7.71
-3.97
-0.31
4.15
9.82
16.25
22.07
25.60
25.48
21.27
13.58
3.79
-6.38
-15.28
-21.49
-23.93
-21.95
-15.61
-5.88
5.50
16.36
25.01
30.65
33.54
34.51
34.33
33.29
31.30
28.23
24.37
20.49
17.50
15.95
15.79
16.52
17.56
18.67
19.95
21.71
24.09
26.89
29.59
31.58
32.37
31.82
30.18
28.05
26.20
25.36
25.97
28.00
31.04
34.34
37.22
39.17
40.00
39.76
38.60
36.61
33.84
30.40
26.45
22.28
18.22
14.58
11.58
9.29
7.68
6.58
5.75
4.96
4.05
2.96
1.79
0.70
-0.26
-1.18
-2.33
-4.06
-6.72
-10.38
-14.93
-20.00
-25.11
-29.75
-33.44
-35.93
-37.14
-37.29
-36.72
-35.83
-34.91
-34.01
-33.01
-31.65
-29.73
-27.11
-23.83
-20.03
-15.95
-11.87
-7.95
-4.36
-1.17
1.41
2.92
2.61
-0.45
-7.11
-17.66
-31.54
-47.34
-63.07
-76.88
-87.52
-94.70
-98.87
-100.80
-101.07
-99.76
-96.50
-90.86
-82.73
-72.43
-60.59
-47.89
-35.08
-23.28
-14.17
-9.86
-12.01
-20.79
-34.01
-47.46
-56.36
-57.39
-50.17
-37.21
-22.47
-8.94
2.91
15.17
30.82
51.48
75.90
100.09
118.98
128.55
127.49
117.35
101.52
83.57
65.99
49.87
35.34
22.39
11.38
3.16
-1.33
-1.53
2.47
9.85
19.41
29.75
39.64
48.30
55.44
61.22
65.89
69.46
71.42
70.89
67.15
60.31
51.70
43.63
38.66
38.57
43.86
53.58
65.98
79.17
91.61
102.19
110.12
114.73
115.56
112.66
106.72
99.12
91.54
85.46
81.78
80.54
81.04
82.10
82.50
81.32
78.09
72.86
66.01
58.14
49.79
41.43
33.28
25.33
17.46
9.61
1.78
-5.84
-13.01
-19.66
-25.87
-32.03
-38.75
-46.68
-56.38
-68.14
-81.75
-96.40
-110.72
-122.99
-131.64
-135.84
-135.73
-132.41
-127.56
-122.96
-120.01
-119.53
-121.63
-125.67
-130.25
-133.31
-132.53
-126.03
-113.15
-94.93
-73.82
-52.96
-35.13
-21.91
-13.43
-8.74
-6.27
-4.43
-1.95
2.01
7.74
14.91
22.61
29.45
33.97
35.07
32.49
26.83
19.46
12.11
6.48
3.78
4.44
8.04
13.34
18.64
22.25
22.94
20.31
14.83
7.53
-0.37
-7.85
-14.28
-19.51
-23.70
-27.15
-30.11
-32.63
-34.43
-35.07
-34.01
-30.85
-25.52
-18.36
-10.14
-1.84
5.60
11.51
15.68
18.26
19.64
20.27
20.42
20.19
19.59
18.80
18.25
18.64
20.64
24.69
30.65
37.82
45.07
51.16
55.14
56.58
55.65
52.99
49.50
45.93
42.69
39.50
35.49
29.20
19.01
3.76
-16.55
-40.12
-63.23
-80.85
-87.95
-81.01
-59.23
-24.97
16.99
60.61
100.01
130.43
148.51
152.34
141.42
117.07
82.75
43.86
6.75
-23.04
-42.38
-51.30
-52.19
-48.18
-41.79
-34.56
-27.52
-22.01
-19.66
-21.25
-25.25
-27.60
-23.20
-8.75
15.10
43.59
69.96
88.50
96.62
94.85
85.55
71.28
54.54
38.25
26.17
22.08
27.76
41.24
56.55
65.69
61.68
41.35
5.95
-40.21
-91.80
-144.02
-192.97
-235.05
-266.36
-282.85
-281.37
-260.98
-223.94
-175.46
-122.40
-71.24
-26.21
11.58
43.49
71.83
97.91
120.85
137.97
146.45
145.27
136.38
123.86
111.96
102.77
95.42
86.97
74.50
56.95
35.81
14.21
-4.59
-18.52
-27.28
-31.95
-34.44
-36.58
-39.78
-45.04
-52.90
-63.49
-76.29
-90.07
-102.89
-112.54
-117.29
-116.80
-112.62
-107.83
-105.86
-108.87
-116.57
-125.95
-132.22
-130.53
-117.77
-93.71
-61.21
-25.56
7.09
31.55
45.20
48.49
44.33
36.42
27.78
20.01
13.56
8.72
6.15
6.51
9.47
13.30
15.41
13.99
9.37
4.27
2.48
6.59
16.30
28.27
37.77
41.09
37.39
28.88
19.45
12.77
10.73
13.36
19.43
27.57
36.67
45.77
53.86
59.77
62.54
61.88
58.44
53.57
48.63
44.36
40.67
36.90
32.24
26.27
19.16
11.54
4.19
-2.21
-7.16
-10.33
-11.63
-11.29
-9.98
-8.87
-9.32
-12.33
-18.13
-25.90
-34.08
-40.81
-44.66
-44.99
-41.98
-36.24
-28.53
-19.55
-10.00
-0.78
7.05
12.55
15.16
14.89
12.41
8.88
5.66
4.01
4.83
8.42
14.45
22.09
30.25
38.00
44.73
50.19
54.35
57.23
58.61
58.26
56.11
52.43
47.79
42.86
38.06
33.47
28.80
23.72
18.12
12.24
6.74
2.42
-0.03
-0.25
1.65
5.05
9.05
12.67
15.08
15.80
14.68
11.81
7.53
2.44
-2.63
-6.65
-8.66
-8.17
-5.49
-1.59
2.29
5.18
6.69
6.85
5.72
3.05
-1.69
-8.89
-18.33
-29.02
-39.49
-48.15
-53.74
-55.43
-52.76
-45.75
-34.97
-21.71
-7.64
5.74
17.75
28.51
38.57
47.99
55.92
60.66
60.57
54.98
44.67
31.64
18.52
7.78
1.27
0.05
4.25
13.19
25.58
40.01
55.36
71.03
86.69
101.80
115.46
126.53
134.32
138.90
140.97
141.10
138.98
133.13
121.54
102.70
76.48
44.41
9.25
-25.72
-57.16
-82.18
-98.80
-106.37
-106.00
-100.37
-92.62
-85.29
-79.37
-74.36
-69.29
-63.82
-58.73
-55.46
-55.06
-57.32
-60.84
-63.90
-65.36
-65.25
-64.50
-64.16
-64.79
-66.21
-67.83
-69.05
-69.50
-68.97
-67.32
-64.55
-60.94
-57.13
-53.95
-51.98
-51.24
-51.14
-50.70
-49.12
-46.05
-41.64
-36.29
-30.37
-24.11
-17.65
-11.26
-5.34
-0.42
3.11
5.20
6.14
6.37
6.34
6.25
5.96
5.20
3.73
1.43
-1.44
-4.34
-6.66
-7.98
-8.32
-8.15
-8.15
-8.88
-10.58
-13.03
-15.70
-18.07
-19.76
-20.67
-20.86
-20.33
-18.92
-16.47
-12.98
-8.85
-4.72
-1.27
1.18
2.78
4.01
5.35
7.10
9.15
11.07
12.45
13.10
13.08
12.72
12.37
12.20
12.18
12.05
11.46
10.09
7.79
4.64
0.95
-2.67
-5.60
-7.38
-8.00
-7.96
-8.16
-9.52
-12.57
-17.15
-22.49
-27.53
-31.37
-33.52
-33.93
-32.77
-30.20
-26.32
-21.27
-15.33
-9.03
-2.95
2.41
6.77
10.07
12.47
14.26
15.67
16.81
17.62
17.95
17.68
16.99
16.42
16.70
18.32
21.12
24.09
25.80
25.02
21.44
15.83
9.67
4.38
0.66
-1.58
-2.94
-3.90
-4.53
-4.56
-3.78
-2.41
-1.04
-0.17
0.31
1.19
3.44
7.51
12.83
17.84
20.75
20.53
17.42
12.89
8.71
6.19
5.56
6.04
6.48
6.13
5.14
4.31
4.49
5.85
7.77
9.20
9.48
8.94
8.74
10.30
14.19
19.66
24.95
28.21
28.57
26.38
22.74
18.46
13.66
7.84
0.72
-7.05
-13.93
-18.24
-19.07
-16.78
-12.79
-8.70
-5.54
-3.37
-1.53
0.79
4.10
8.36
13.10
17.46
20.51
21.50
20.14
16.94
13.00
9.74
8.13
8.47
10.20
12.38
14.19
15.37
16.19
16.97
17.77
18.21
17.62
15.50
11.80
7.01
1.88
-2.91
-7.05
-10.58
-13.73
-16.58
-18.94
-20.32
-20.21
-18.27
-14.54
-9.48
-3.76
1.87
6.80
10.69
13.39
14.93
15.40
14.93
13.62
11.72
9.53
7.49
6.07
5.55
5.95
6.97
8.14
9.01
9.34
9.11
8.43
7.42
6.12
4.47
2.43
-0.04
-3.04
-6.71
-11.22
-16.58
-22.39
-27.87
-32.16
-34.74
-35.75
-35.89
-35.90
-36.08
-35.93
-34.41
-30.65
-24.57
-17.11
-9.87
-4.38
-1.27
-0.17
0.01
0.39
1.52
3.06
4.27
4.67
4.19
3.13
1.58
-0.75
-4.09
-7.70
-8.93
-3.20
14.36
46.35
90.92
141.38
188.15
222.46
239.69
240.75
230.54
214.92
197.65
179.58
159.69
137.32
113.76
92.15
75.82
66.30
62.47
61.62
61.55
62.02
64.61
71.00
80.70
90.09
93.30
84.78
61.84
25.70
-19.34
-68.02
-116.24
-161.97
-204.60
-243.58
-277.31
-303.17
-318.50
-322.01
-314.63
-299.33
-280.38
-262.05
-247.61
-238.70
-235.10
-234.83
-234.70
-231.22
-221.83
-206.03
-185.92
-165.81
-150.94
-145.79
-152.34
-169.09
-191.51
-213.27
-228.19
-231.84
-222.46
-200.53
-168.22
-128.94
-87.13
-48.07
-16.71
3.95
14.45
18.97
23.27
31.64
44.47
58.35
68.37
71.28
67.14
58.49
47.98
36.31
22.01
3.31
-19.38
-42.41
-59.94
-66.61
-59.99
-41.74
-16.61
9.52
31.84
48.12
59.01
67.33
76.60
89.49
106.99
128.23
151.05
172.67
190.10
200.45
201.43
192.16
173.93
150.39
126.78
108.10
97.39
94.78
97.71
102.38
105.54
105.42
102.05
96.65
90.93
86.73
86.05
90.59
101.45
118.66
140.84
165.56
190.00
211.81
229.67
243.25
252.68
257.98
258.53
253.06
240.14
218.78
189.15
152.90
113.04
73.37
37.69
8.79
-12.18
-25.78
-33.76
-38.25
-40.90
-42.61
-43.57
-43.84
-43.65
-43.50
-43.91
-45.01
-46.43
-47.35
-46.96
-44.79
-40.77
-35.17
-28.33
-20.63
-12.40
-4.05
3.94
11.01
16.60
20.27
21.88
21.67
20.13
18.00
16.01
14.57
13.63
12.62
10.80
7.64
3.24
-1.88
-6.81
-10.63
-12.62
-12.44
-10.30
-6.58
-1.76
3.72
9.28
14.39
18.70
22.24
25.12
27.17
28.14
27.99
27.09
26.03
25.62
26.66
29.64
34.13
38.43
40.58
39.57
35.74
30.50
25.69
22.91
22.82
24.01
22.71
14.09
-5.50
-37.19
-79.07
-126.59
-173.58
-210.58
-226.50
-215.50
-181.86
-136.93
-91.81
-52.66
-20.57
6.76
32.44
58.70
84.71
106.19
117.11
112.08
88.28
47.38
-4.02
-56.06
-99.17
-123.85
-125.33
-105.96
-74.21
-42.04
-21.15
-19.84
-40.74
-79.89
-126.99
-168.29
-192.36
-194.08
-176.79
-150.52
-127.68
-117.83
-123.94
-141.65
-153.59
-144.34
-108.83
-56.14
-1.33
45.80
84.48
119.11
153.58
188.55
218.91
236.17
234.13
212.45
176.45
133.74
90.16
47.29
5.27
-36.05
-76.36
-114.92
-150.43
-181.19
-205.36
-221.04
-225.77
-216.58
-192.11
-153.86
-106.48
-56.91
-12.60
20.81
41.22
50.64
53.66
54.15
53.47
50.93
45.47
37.26
28.12
20.56
16.51
16.37
18.58
20.53
19.81
15.55
8.53
0.58
-6.32
-10.98
-13.33
-14.42
-15.88
-19.08
-24.45
-31.51
-39.01
-45.52
-49.93
-51.75
-51.13
-48.60
-45.10
-40.54
-34.78
-27.62
-19.00
-9.24
0.99
10.74
19.13
25.48
29.63
31.65
31.90
30.92
29.10
26.70
23.83
20.51
16.79
12.84
8.79
4.75
0.98
-2.55
-5.95
-9.49
-13.33
-17.52
-21.86
-26.07
-29.92
-32.99
-35.23
-36.90
-38.46
-40.25
-42.39
-44.59
-46.37
-47.23
-46.49
-43.99
-39.95
-34.77
-28.70
-21.52
-12.39
0.20
15.08
32.44
52.64
75.82
101.34
127.36
150.84
168.13
176.14
173.41
161.23
142.68
121.59
101.26
83.65
69.27
57.69
48.21
40.17
33.45
27.75
22.61
17.51
12.17
6.69
1.57
-2.66
-5.67
-7.38
-8.22
-8.93
-10.15
-12.16
-14.74
-17.30
-19.13
-19.84
-19.41
-18.28
-17.22
-16.85
-17.41
-18.51
-19.15
-17.98
-13.75
-5.75
5.85
19.85
34.34
47.26
57.12
63.44
67.01
69.33
71.97
75.84
80.73
85.56
88.87
89.52
87.09
81.89
74.61
65.89
56.11
45.44
34.20
23.00
12.66
4.01
-2.50
-7.03
-10.24
-12.99
-16.08
-19.87
-24.41
-29.61
-35.36
-41.70
-48.60
-55.73
-62.17
-66.48
-66.95
-62.35
-52.58
-38.92
-23.82
-10.08
0.09
5.84
7.70
6.98
4.79
1.05
-5.72
-17.94
-38.06
-67.71
-107.23
-155.31
-208.77
-262.42
-309.29
-341.73
-353.46
-341.54
-307.84
-258.73
-203.06
-149.15
-102.31
-64.16
-33.75
-9.54
9.25
22.61
30.78
35.41
39.72
47.44
61.04
80.51
103.30
125.54
143.90
156.87
164.80
168.76
169.34
166.23
159.07
148.32
135.90
124.47
116.32
112.39
112.01
113.69
116.03
118.30
120.05
120.58
118.60
112.76
102.57
89.02
74.31
60.89
50.26
42.33
35.79
29.02
21.09
12.22
3.76
-2.49
-4.99
-2.86
3.69
13.71
25.85
38.91
52.06
64.90
77.26
89.00
100.11
110.45
120.10
129.36
138.77
148.90
159.98
171.88
184.00
196.01
207.51
218.13
227.05
232.58
232.13
222.94
203.14
172.34
133.34
90.23
47.71
9.64
-21.88
-46.67
-66.05
-82.09
-97.76
-113.71
-130.62
-148.23
-165.62
-181.85
-196.56
-210.35
-224.99
-244.65
-271.21
-307.65
-354.84
-409.91
-465.69
-511.89
-538.16
-537.74
-511.86
-464.30
-404.61
-342.19
-282.92
-227.95
-174.66
-119.25
-48.60
21.81
89.26
146.25
184.65
198.15
184.22
145.25
88.31
23.57
-39.56
-89.36
-119.17
-126.10
-111.05
-77.88
-32.36
18.97
70.01
114.76
152.02
181.20
203.41
220.63
234.48
245.21
251.19
249.38
235.81
209.74
171.94
125.78
76.41
29.41
-10.54
-40.59
-60.11
-71.05
-76.02
-78.66
-81.77
-86.05
-89.60
-88.65
-79.20
-59.09
-29.43
5.94
41.32
71.29
92.26
103.10
104.58
98.48
86.89
71.96
55.95
41.26
30.20
24.33
24.07
28.33
34.75
40.31
42.23
38.89
30.40
18.70
6.85
-2.11
-6.20
-5.13
-0.21
6.29
12.02
15.04
14.16
8.93
-0.27
-12.23
-25.10
-36.81
-45.95
-52.14
-56.18
-59.52
-63.46
-68.52
-74.20
-79.40
-82.88
-84.05
-83.17
-81.33
-80.03
-80.43
-82.75
-85.99
-88.31
-87.92
-84.23
-78.43
-73.34
-72.22
-77.19
-88.17
-102.53
-116.20
-125.25
-127.54
-123.50
-115.66
-107.34
-100.85
-96.34
-91.61
-83.16
-67.50
-42.35
-7.26
36.09
83.89
130.64
169.72
195.03
202.63
192.05
166.57
131.84
93.39
54.25
14.41
-27.79
-72.90
-118.08
-157.10
-182.53
-189.35
-177.28
-150.84
-116.83
-81.09
-46.30
-12.10
22.56
56.93
87.31
108.34
115.77
109.11
92.28
72.03
54.78
43.85
38.65
35.64
31.09
23.47
14.17
6.40
2.83
3.66
6.12
5.91
-0.46
-13.69
-31.04
-47.50
-57.74
-58.39
-49.05
-32.18
-11.80
8.49
26.86
43.39
59.33
75.84
93.04
110.26
126.70
142.17
156.89
170.65
181.97
188.53
188.86
183.63
175.77
168.49
162.68
155.50
141.79
117.51
82.87
43.43
7.58
-17.46
-29.17
-30.86
-29.40
-31.19
-38.50
-47.92
-51.64
-40.75
-9.10
43.39
109.56
176.87
231.37
262.45
265.99
244.95
206.58
158.52
105.56
49.03
-11.54
-75.69
-140.51
-200.64
-249.52
-281.39
-292.43
-281.09
-248.27
-197.44
-135.11
-70.29
-12.64
30.14
54.67
62.43
58.21
47.33
33.51
18.37
2.71
-11.89
-22.68
-26.71
-22.57
-11.47
2.87
16.12
25.52
31.29
36.43
45.25
61.06
84.54
113.00
140.85
161.22
168.22
158.80
134.02
98.76
60.15
25.10
-1.87
-19.73
-30.51
-37.64
-44.17
-51.49
-59.27
-66.25
-71.23
-73.91
-74.90
-75.38
-76.31
-78.18
-80.88
-84.06
-87.54
-91.45
-96.06
-101.45
-107.04
-111.45
-112.88
-109.69
-101.13
-87.82
-71.62
-55.04
-40.50
-29.58
-22.71
-19.28
-18.03
-17.56
-16.83
-15.37
-13.36
-11.41
-10.13
-9.88
-10.50
-11.38
-11.75
-11.05
-9.24
-6.73
-4.32
-2.73
-2.39
-3.32
-5.18
-7.43
-9.60
-11.55
-13.51
-16.04
-19.76
-24.89
-31.04
-37.19
-41.99
-44.34
-43.79
-40.72
-36.15
-31.41
-28.06
-27.75
-31.78
-40.36
-51.79
-62.31
-66.87
-60.90
-42.24
-12.14
25.11
63.91
99.34
128.37
149.90
163.91
170.58
169.95
162.26
148.52
130.65
111.02
91.67
73.72
57.25
41.65
26.22
10.71
-4.44
-18.27
-29.62
-37.52
-41.55
-41.89
-39.32
-34.90
-29.71
-24.65
-20.27
-16.76
-14.05
-11.87
-9.98
-8.30
-7.04
-6.61
-7.45
-9.71
-13.16
-17.14
-20.90
-23.86
-25.80
-26.91
-27.54
-27.95
-28.18
-28.10
-27.54
-26.47
-24.97
-23.26
-21.58
-20.13
-19.08
-18.55
-18.58
-19.10
-19.92
-20.74
-21.22
-21.01
-19.86
-17.66
-14.46
-10.45
-6.03
-1.66
2.12
4.93
6.55
7.00
6.47
5.24
3.56
1.62
-0.45
-2.52
-4.44
-6.01
-7.03
-7.41
-7.22
-6.65
-6.02
-5.56
-5.44
-5.70
-6.24
-6.90
-7.54
-8.03
-8.32
-8.44
-8.45
-8.48
-8.65
-8.93
-9.15
-8.94
-7.85
-5.61
-2.20
2.04
6.49
10.47
13.47
15.23
15.77
15.34
14.24
12.73
11.03
9.27
7.54
5.94
4.53
3.36
2.37
1.50
0.65
-0.16
-0.77
-0.93
-0.38
0.87
2.56
4.20
5.29
5.56
5.01
3.88
2.41
0.69
-1.37
-3.92
-6.92
-10.09
-12.91
-14.81
-15.37
-14.49
-12.44
-9.66
-6.63
-3.69
-1.03
1.36
3.53
5.53
7.31
8.79
9.85
10.40
10.44
10.00
9.18
8.09
6.84
5.46
3.99
2.49
1.02
-0.29
-1.28
-1.83
-1.94
-1.74
-1.47
-1.35
-1.55
-2.15
-3.18
-4.69
-6.71
-9.22
-11.99
-14.59
-16.43
-17.00
-16.15
-14.03
-11.17
-8.13
-5.36
-3.07
-1.23
0.35
1.77
3.06
4.07
4.52
4.13
2.72
0.38
-2.51
-5.31
-7.27
-7.85
-7.03
-5.31
-3.59
-2.74
-3.20
-4.70
-6.40
-7.27
-6.65
-4.70
-2.30
-0.62
-0.47
-1.92
-4.20
-6.15
-6.81
-5.62
-2.54
2.30
8.75
16.57
25.22
33.73
41.13
47.02
52.12
58.01
66.27
77.42
90.24
102.31
111.12
115.44
115.91
114.64
114.02
115.43
118.46
121.04
120.32
113.62
99.59
78.43
51.65
21.36
-10.76
-44.23
-80.20
-120.44
-165.71
-213.67
-258.15
-290.06
-300.42
-283.97
-241.66
-180.91
-112.65
-47.20
9.42
56.43
96.31
131.48
161.66
183.93
194.89
193.50
182.36
166.57
151.12
138.48
128.07
117.25
103.65
86.80
68.41
51.36
38.15
29.88
25.90
24.15
21.82
15.98
3.95
-16.23
-45.24
-81.78
-121.83
-158.76
-184.13
-189.66
-169.70
-123.71
-57.46
17.75
87.96
140.32
166.37
163.69
135.44
88.29
29.94
-32.80
-94.95
-153.30
-206.08
-252.76
-294.31
-333.08
-372.05
-412.94
-454.24
-490.27
-512.36
-512.05
-484.69
-431.82
-360.85
-282.39
-206.20
-138.33
-80.16
-29.59
16.64
60.79
103.06
141.75
174.23
198.23
212.70
218.17
216.63
210.58
202.16
192.46
181.50
168.83
154.25
138.38
122.44
107.62
94.61
83.44
73.73
65.27
58.28
53.37
51.23
52.11
55.57
60.52
65.58
69.49
71.51
71.49
69.69
66.49
62.04
56.12
48.17
37.69
24.69
10.02
-4.56
-16.93
-25.25
-28.75
-28.03
-24.75
-21.03
-18.46
-17.57
-17.74
-17.67
-16.02
-12.07
-6.05
1.09
8.04
13.63
17.34
19.37
20.43
21.45
23.07
25.45
28.32
31.18
33.45
34.74
34.84
33.70
31.44
28.29
24.64
20.96
17.66
14.97
12.83
10.99
9.08
6.85
4.19
1.21
-1.80
-4.43
-6.24
-6.87
-6.21
-4.35
-1.62
1.49
4.58
7.32
9.56
11.30
12.58
13.39
13.76
13.75
13.52
13.34
13.50
14.16
15.28
16.57
17.69
18.36
18.49
18.30
18.05
17.92
17.74
17.14
15.63
12.99
9.40
5.56
2.37
0.66
0.71
2.13
3.94
4.93
4.32
2.10
-0.82
-2.96
-2.95
-0.26
4.55
9.95
14.08
15.51
13.80
9.65
4.63
0.57
-1.08
0.21
3.94
8.74
12.94
15.15
14.82
12.26
8.37
4.25
0.59
-2.47
-5.38
-8.89
-13.75
-20.44
-28.92
-38.56
-48.00
-55.44
-58.98
-57.25
-49.88
-37.86
-23.27
-8.71
3.45
11.79
16.05
17.06
16.25
15.10
14.69
15.54
17.62
20.57
23.89
26.95
29.27
30.47
30.40
29.19
27.26
25.19
23.52
22.57
22.22
22.06
21.50
20.07
17.58
14.14
10.12
5.92
1.88
-1.81
-5.05
-7.75
-9.81
-11.05
-11.28
-10.35
-8.30
-5.36
-1.92
1.53
4.53
6.76
8.08
8.50
8.16
7.28
6.19
5.29
4.94
5.40
6.69
8.62
10.78
12.82
14.45
15.59
16.31
16.65
16.64
16.21
15.32
13.99
12.36
10.65
9.07
7.77
6.68
5.64
4.32
2.41
-0.30
-3.81
-7.87
-12.01
-15.64
-18.16
-19.10
-18.23
-15.65
-11.69
-6.87
-1.75
3.16
7.56
11.29
14.29
16.57
18.08
18.89
19.04
18.71
18.09
17.38
16.74
16.31
16.12
16.17
16.41
16.76
17.14
17.48
17.75
17.93
17.99
17.82
17.24
16.11
14.35
11.97
9.06
5.73
2.02
-1.99
-6.17
-10.24
-13.73
-16.08
-16.86
-15.89
-13.36
-9.70
-5.45
-1.13
2.93
6.44
9.20
10.98
11.63
11.14
9.68
7.61
5.29
3.04
0.97
-0.82
-2.30
-3.27
-3.54
-3.01
-1.76
-0.12
1.50
2.69
3.31
3.40
3.23
3.05
3.02
3.14
3.35
3.48
3.40
3.00
2.18
0.98
-0.45
-1.79
-2.66
-2.73
-1.82
0.01
2.58
5.55
8.56
11.29
13.37
14.58
14.80
14.11
12.83
11.40
10.21
9.49
9.22
9.17
9.10
8.80
8.26
7.59
6.92
6.39
6.10
6.14
6.58
7.42
8.51
9.53
10.06
9.71
8.31
6.06
3.46
1.07
-0.72
-1.85
-2.56
-3.19
-3.87
-4.43
-4.36
-3.13
-0.42
3.71
8.82
14.25
19.32
23.51
26.49
28.22
28.87
28.80
28.45
28.23
28.40
29.05
30.19
31.80
33.84
36.31
39.10
41.96
44.44
46.08
46.66
46.35
45.64
45.07
44.84
44.52
43.06
39.11
31.56
19.99
4.90
-12.40
-30.20
-46.73
-60.58
-70.81
-76.98
-79.09
-77.53
-72.98
-66.38
-58.77
-51.17
-44.45
-39.22
-35.63
-33.49
-32.24
-31.22
-29.79
-27.61
-24.66
-21.17
-17.55
-14.22
-11.56
-9.92
-9.54
-10.45
-12.50
-15.32
-18.41
-21.25
-23.43
-24.71
-25.03
-24.46
-23.19
-21.54
-19.94
-18.90
-18.80
-19.82
-21.72
-23.95
-25.73
-26.38
-25.41
-22.76
-18.73
-13.95
-9.17
-5.06
-2.04
-0.18
0.72
1.01
0.99
0.86
0.61
0.20
-0.36
-0.92
-1.28
-1.30
-0.95
-0.33
0.38
1.09
1.77
2.45
3.19
3.90
4.42
4.56
4.17
3.25
1.89
0.23
-1.66
-3.77
-6.14
-8.73
-11.35
-13.70
-15.38
-16.00
-15.32
-13.27
-10.00
-5.90
-1.49
2.58
5.74
7.62
8.16
7.65
6.57
5.37
4.34
3.54
2.84
2.09
1.34
0.76
0.56
0.84
1.48
2.19
2.66
2.71
2.33
1.70
1.02
0.43
-0.07
-0.52
-0.97
-1.41
-1.87
-2.40
-3.06
-3.88
-4.75
-5.34
-5.24
-4.09
-1.78
1.51
5.36
9.25
12.70
15.30
16.79
17.02
16.04
14.06
11.51
8.84
6.48
4.65
3.39
2.62
2.21
2.09
2.21
2.48
2.75
2.85
2.64
2.13
1.42
0.61
-0.23
-1.08
-1.97
-2.93
-3.95
-5.06
-6.32
-7.81
-9.53
-11.35
-12.90
-13.72
-13.40
-11.79
-9.03
-5.50
-1.64
2.18
5.69
8.71
11.08
12.72
13.55
13.61
13.04
12.10
11.02
10.01
9.13
8.36
7.61
6.81
5.88
4.85
3.77
2.70
1.65
0.57
-0.65
-2.18
-4.13
-6.59
-9.59
-13.13
-17.19
-21.63
-26.12
-30.27
-33.55
-35.52
-35.88
-34.51
-31.53
-27.28
-22.28
-17.15
-12.54
-8.90
-6.41
-4.98
-4.35
-4.18
-4.28
-4.53
-4.92
-5.42
-5.95
-6.41
-6.72
-6.87
-6.86
-6.69
-6.38
-5.90
-5.33
-4.74
-4.26
-3.96
-3.87
-3.94
-4.13
-4.37
-4.63
-4.91
-5.25
-5.83
-6.91
-8.76
-11.46
-14.81
-18.22
-20.84
-21.87
-20.74
-17.31
-11.90
-5.19
1.97
8.70
14.26
18.11
20.02
20.11
18.78
16.63
14.25
12.15
10.63
9.74
9.37
9.34
9.46
9.66
9.93
10.25
10.56
10.63
10.21
9.16
7.49
5.42
3.28
1.39
-0.08
-1.16
-2.02
-2.92
-4.13
-5.82
-8.06
-10.75
-13.55
-15.99
-17.50
-17.69
-16.41
-13.90
-10.66
-7.28
-4.23
-1.74
0.21
1.81
3.18
4.34
5.19
5.62
5.67
5.54
5.50
5.86
6.72
8.00
9.49
10.89
11.98
12.61
12.74
12.43
11.74
10.70
9.29
7.58
5.54
3.29
0.96
-1.37
-3.60
-5.71
-7.62
-9.17
-10.10
-10.07
-8.85
-6.39
-2.92
1.12
5.24
8.96
11.97
14.09
15.26
15.53
15.07
14.12
12.99
11.99
11.30
10.96
10.86
10.85
10.76
10.50
10.03
9.38
8.60
7.71
6.71
5.56
4.28
2.82
1.19
-0.64
-2.69
-4.93
-7.25
-9.48
-11.45
-13.13
-14.58
-15.94
-17.27
-18.41
-18.99
-18.56
-16.79
-13.66
-9.52
-5.02
-0.80
2.62
5.04
6.53
7.31
7.62
7.63
7.44
7.08
6.61
6.10
5.69
5.48
5.52
5.74
6.02
6.18
6.14
5.90
5.50
5.01
4.41
3.59
2.39
0.71
-1.48
-4.08
-6.85
-9.56
-12.11
-14.50
-16.91
-19.45
-22.17
-24.81
-26.89
-27.81
-27.09
-24.60
-20.65
-15.90
-11.11
-6.86
-3.43
-0.79
1.23
2.80
3.98
4.79
5.27
5.60
6.01
6.78
8.02
9.72
11.63
13.48
15.00
16.00
16.49
16.53
16.25
15.71
14.93
13.89
12.63
11.28
10.03
8.97
8.06
7.02
5.42
2.91
-0.60
-4.90
-9.49
-13.79
-17.29
-19.70
-20.89
-20.88
-19.70
-17.35
-13.91
-9.54
-4.60
0.42
4.97
8.62
11.22
12.85
13.74
14.12
14.04
13.38
12.03
9.96
7.38
4.75
2.49
0.92
0.17
0.20
0.94
2.42
4.68
7.73
11.38
15.13
18.29
20.18
20.34
18.65
15.33
10.74
5.31
-0.66
-6.97
-13.39
-19.61
-25.22
-29.73
-32.73
-33.99
-33.53
-31.57
-28.49
-24.69
-20.51
-16.24
-12.09
-8.16
-4.52
-1.20
1.74
4.27
6.34
7.86
8.71
8.75
7.90
6.23
3.93
1.30
-1.40
-4.08
-6.71
-9.16
-11.01
-11.57
-10.37
-7.76
-5.45
-6.19
-12.51
-25.26
-42.52
-59.71
-71.16
-72.10
-60.26
-36.11
-2.00
39.00
83.66
128.42
169.10
201.23
221.58
230.01
230.30
229.03
232.81
245.39
266.25
291.51
316.19
336.27
349.53
354.85
350.98
336.16
308.81
268.98
219.30
164.49
109.79
58.98
13.38
-28.08
-67.50
-106.57
-145.72
-184.37
-221.81
-257.77
-292.15
-324.18
-351.32
-369.42
-374.51
-365.01
-343.01
-313.67
-282.85
-254.41
-229.20
-206.32
-185.42
-168.12
-157.37
-154.99
-159.24
-164.44
-163.11
-149.45
-121.96
-83.94
-41.48
-0.88
33.88
61.85
84.36
103.48
120.39
134.69
144.41
146.99
140.68
125.52
103.59
78.45
53.67
31.53
12.40
-4.69
-21.22
-38.18
-55.68
-73.19
-90.00
-105.38
-118.60
-128.80
-134.80
-135.33
-129.64
-118.00
-102.17
-85.10
-70.02
-59.41
-54.18
-53.51
-55.42
-57.56
-57.97
-55.53
-49.98
-41.73
-31.77
-21.33
-11.81
-4.39
0.52
3.61
6.67
11.86
20.86
34.07
50.67
69.01
87.33
104.26
118.90
130.69
139.29
144.58
146.73
146.27
143.72
139.39
133.11
124.44
113.02
99.08
83.51
67.61
52.63
39.27
27.49
16.67
5.94
-5.50
-18.07
-31.74
-46.05
-60.13
-72.95
-83.34
-90.18
-92.51
-89.77
-82.06
-70.36
-56.47
-42.56
-30.47
-20.95
-13.43
-6.35
1.98
12.40
24.42
36.39
46.39
53.11
56.56
58.02
59.44
62.66
68.70
77.53
88.17
99.19
109.30
117.89
125.02
131.26
137.11
142.44
146.23
146.78
142.16
130.77
111.70
85.09
52.36
16.03
-20.62
-54.37
-83.09
-106.36
-125.54
-142.99
-160.93
-180.29
-200.19
-218.23
-231.46
-237.40
-234.95
-224.59
-208.01
-187.32
-164.42
-140.65
-116.78
-93.29
-70.93
-51.06
-35.86
-27.81
-28.78
-38.53
-53.70
-67.92
-73.64
-65.08
-40.70
-3.95
38.39
79.51
115.73
147.64
178.69
212.12
248.08
282.89
310.67
326.33
328.17
318.68
303.09
286.60
271.82
257.82
241.13
217.98
186.45
147.46
104.03
59.50
16.03
-25.88
-66.52
-105.91
-143.09
-176.54
-205.04
-228.64
-248.73
-267.56
-287.19
-308.74
-332.08
-356.05
-379.05
-399.24
-414.52
-422.26
-419.32
-402.73
-370.72
-323.56
-263.73
-195.43
-123.40
-52.02
15.20
75.53
126.62
166.71
195.24
213.22
222.86
226.85
227.53
226.41
224.44
221.51
216.84
208.99
195.80
174.34
142.31
99.88
51.06
4.17
-31.77
-49.48
-45.52
-21.58
15.51
56.25
91.41
114.75
125.24
124.14
114.18
98.31
77.99
51.85
16.55
-31.22
-92.12
-161.36
-232.48
-298.45
-353.60
-389.01
-399.00
-383.95
-350.93
-318.42
-288.95
-256.59
-213.41
-152.04
-72.88
16.67
105.15
180.22
231.47
253.45
243.65
204.55
144.89
78.42
20.21
-17.84
-30.75
-21.34
2.98
31.88
56.93
74.33
84.51
89.90
92.82
94.96
97.89
104.65
118.33
141.15
172.49
207.55
237.91
254.65
252.84
234.25
206.75
179.12
156.23
136.84
115.43
87.06
51.73
15.46
-12.76
-25.95
-23.06
-9.04
8.44
23.12
32.63
38.22
42.66
47.72
52.89
55.25
50.40
34.24
5.05
-35.03
-79.35
-118.00
-140.93
-141.10
-116.76
-71.75
-13.74
48.43
106.76
155.04
188.77
204.90
202.14
181.53
146.89
104.29
60.64
21.75
-9.04
-31.17
-46.11
-56.30
-64.16
-71.58
-79.70
-88.77
-98.30
-107.19
-114.25
-118.57
-120.04
-119.38
-117.76
-116.11
-114.46
-111.87
-106.74
-97.56
-83.76
-65.92
-45.70
-25.25
-6.70
8.17
18.10
22.36
20.91
14.40
4.23
-7.83
-20.05
-31.17
-40.52
-48.01
-53.78
-57.91
-60.52
-61.76
-62.01
-61.87
-61.85
-62.13
-62.40
-61.99
-60.23
-56.77
-51.72
-45.66
-39.30
-33.15
-27.44
-22.11
-17.05
-12.27
-8.01
-4.58
-2.16
-0.66
0.30
1.24
2.67
4.89
7.96
11.79
16.14
20.77
25.30
29.37
32.61
34.76
35.77
35.71
34.76
33.12
30.98
28.38
25.30
21.64
17.26
12.11
6.29
0.20
-5.54
-10.15
-12.89
-13.30
-11.26
-7.05
-1.17
5.68
12.73
19.22
24.49
28.10
29.83
29.77
28.21
25.53
22.17
18.51
14.91
11.69
9.17
7.51
6.83
7.01
7.78
8.82
9.82
10.63
11.19
11.53
11.64
11.43
10.69
9.20
6.86
3.73
0.05
-3.95
-8.02
-11.98
-15.52
-18.24
-19.61
-19.13
-16.58
-12.14
-6.38
-0.07
6.00
11.28
15.45
18.39
20.09
20.61
20.14
18.97
17.49
16.07
14.96
14.19
13.66
13.24
12.77
12.30
11.89
11.63
11.50
11.30
10.77
9.66
7.91
5.59
2.95
0.22
-2.44
-5.00
-7.56
-10.21
-12.95
-15.55
-17.63
-18.75
-18.56
-16.92
-13.88
-9.61
-4.28
1.98
9.02
16.58
24.27
31.67
38.49
44.59
49.96
54.51
57.89
59.54
58.83
55.49
49.78
42.52
34.73
27.32
20.75
14.99
9.72
4.57
-0.66
-5.94
-10.99
-15.59
-19.58
-23.03
-26.18
-29.23
-32.26
-35.12
-37.55
-39.24
-40.06
-40.08
-39.50
-38.44
-36.84
-34.38
-30.68
-25.49
-18.89
-11.42
-3.86
2.96
8.36
11.96
13.69
13.65
12.06
9.24
5.69
2.08
-0.82
-2.34
-2.20
-0.74
1.10
2.09
1.24
-1.65
-5.86
-9.94
-12.26
-11.66
-7.85
-1.53
5.94
12.98
18.12
20.29
18.89
13.89
5.90
-3.78
-13.37
-20.93
-24.86
-24.33
-19.47
-11.30
-1.29
8.99
18.28
25.73
30.93
33.77
34.36
33.02
30.27
26.68
22.74
18.72
14.54
10.01
4.92
-0.69
-6.43
-11.72
-16.00
-18.96
-20.60
-21.18
-21.16
-21.08
-21.44
-22.67
-24.90
-27.89
-30.97
-33.24
-33.81
-32.12
-28.17
-22.41
-15.67
-8.79
-2.54
2.48
5.91
7.66
7.90
7.14
6.14
5.71
6.49
8.70
12.11
16.08
19.81
22.69
24.36
24.88
24.47
23.38
21.74
19.52
16.62
13.01
8.87
4.50
0.32
-3.27
-6.02
-7.89
-9.04
-9.75
-10.33
-10.97
-11.75
-12.57
-13.27
-13.70
-13.81
-13.66
-13.37
-13.07
-12.85
-12.75
-12.82
-13.14
-13.78
-14.77
-15.97
-17.08
-17.68
-17.40
-16.03
-13.54
-10.13
-6.06
-1.62
2.83
6.87
10.03
11.90
12.25
11.21
9.22
6.90
4.77
3.14
2.01
1.16
0.39
-0.39
-1.13
-1.69
-1.92
-1.79
-1.40
-0.92
-0.54
-0.45
-0.71
-1.33
-2.27
-3.46
-4.94
-6.74
-8.93
-11.48
-14.23
-16.84
-18.84
-19.72
-19.11
-16.89
-13.20
-8.46
-3.22
1.95
6.69
10.84
14.55
18.16
22.01
26.30
30.96
35.56
39.47
42.00
42.57
40.95
37.28
32.06
25.97
19.70
13.77
8.44
3.75
-0.29
-3.60
-5.98
-7.19
-7.17
-6.14
-4.64
-3.38
-3.01
-3.90
-6.15
-9.62
-14.07
-19.23
-24.69
-29.92
-34.09
-36.34
-36.01
-32.94
-27.63
-21.07
-14.49
-8.96
-5.10
-3.10
-2.76
-3.71
-5.55
-7.87
-10.28
-12.41
-13.95
-14.70
-14.60
-13.74
-12.26
-10.26
-7.89
-5.23
-2.45
0.26
2.68
4.68
6.15
7.10
7.58
7.63
7.27
6.51
5.40
4.00
2.35
0.50
-1.54
-3.73
-5.85
-7.53
-8.30
-7.73
-5.66
-2.28
1.90
6.16
9.82
12.43
13.87
14.23
13.77
12.71
11.24
9.53
7.73
6.02
4.60
3.56
2.92
2.56
2.29
1.98
1.58
1.21
1.05
1.34
2.16
3.46
5.05
6.61
7.87
8.65
8.88
8.52
7.52
5.80
3.39
0.55
-2.22
-4.25
-4.91
-3.95
-1.51
1.90
5.61
9.04
11.82
13.77
14.86
15.07
14.45
13.09
11.17
8.97
6.73
4.67
2.91
1.46
0.35
-0.44
-0.92
-1.17
-1.38
-1.79
-2.63
-4.03
-5.96
-8.23
-10.55
-12.68
-14.42
-15.79
-16.87
-17.84
-18.87
-20.11
-21.55
-23.00
-24.07
-24.29
-23.21
-20.58
-16.49
-11.33
-5.71
-0.33
4.23
7.65
9.81
10.80
10.81
10.00
8.53
6.57
4.35
2.19
0.46
-0.51
-0.53
0.35
1.83
3.46
4.73
5.23
4.68
3.05
0.57
-2.45
-5.64
-8.79
-11.88
-15.06
-18.53
-22.40
-26.59
-30.82
-34.67
-37.64
-39.28
-39.28
-37.53
-34.14
-29.43
-23.89
-18.07
-12.53
-7.72
-3.97
-1.42
-0.07
0.17
-0.55
-2.01
-3.97
-6.18
-8.37
-10.24
-11.56
-12.03
-11.49
-9.87
-7.24
-3.81
0.05
3.93
7.33
9.75
10.80
10.15
7.68
3.51
-1.99
-8.24
-14.55
-20.35
-25.26
-29.08
-31.74
-33.16
-33.22
-31.82
-28.97
-24.85
-19.84
-14.45
-9.13
-4.14
0.45
4.70
8.68
12.43
15.97
19.36
22.71
26.20
29.90
33.63
36.95
39.24
39.92
38.74
35.95
32.17
28.21
24.76
22.13
20.24
18.76
17.29
15.61
13.81
12.16
11.03
10.61
10.81
11.22
11.31
10.64
9.14
7.16
5.32
4.26
4.37
5.71
8.10
11.24
14.91
18.97
23.22
27.27
30.61
32.72
33.28
32.38
30.39
27.86
25.23
22.69
20.16
17.38
14.09
10.25
6.06
1.95
-1.58
-4.20
-5.83
-6.76
-7.39
-8.08
-9.00
-10.10
-11.24
-12.33
-13.40
-14.53
-15.66
-16.50
-16.57
-15.42
-12.88
-9.19
-5.00
-1.01
2.20
4.46
6.00
7.26
8.66
10.36
12.28
14.22
16.05
17.80
19.61
21.58
23.54
25.04
25.45
24.20
21.05
16.12
9.95
3.22
-3.39
-9.27
-13.86
-16.74
-17.60
-16.33
-13.17
-8.62
-3.33
2.06
7.10
11.60
15.49
18.77
21.35
23.08
23.83
23.54
22.30
20.24
17.48
14.09
10.06
5.33
-0.19
-6.55
-13.78
-21.88
-30.76
-40.18
-49.71
-58.71
-66.51
-72.54
-76.46
-78.30
-78.32
-76.92
-74.51
-71.44
-67.95
-64.25
-60.55
-57.02
-53.81
-50.97
-48.43
-46.00
-43.36
-40.08
-35.77
-30.10
-23.03
-14.83
-6.02
2.73
10.87
18.08
24.36
29.84
34.58
38.42
40.91
41.53
39.90
36.00
30.34
23.80
17.43
12.08
8.17
5.71
4.37
3.74
3.52
3.61
4.01
4.69
5.54
6.35
6.89
7.06
6.80
6.02
4.54
2.07
-1.61
-6.45
-12.01
-17.46
-21.87
-24.52
-25.14
-23.93
-21.44
-18.31
-15.00
-11.72
-8.48
-5.20
-1.84
1.54
4.79
7.81
10.58
13.15
15.58
17.87
19.96
21.77
23.25
24.48
25.60
26.69
27.72
28.40
28.36
27.30
25.07
21.81
17.84
13.60
9.46
5.61
2.05
-1.40
-5.01
-9.02
-13.51
-18.30
-22.96
-26.83
-29.24
-29.69
-28.05
-24.52
-19.62
-13.95
-8.13
-2.64
2.14
5.95
8.62
10.12
10.56
10.24
9.47
8.51
7.55
6.71
6.12
6.07
6.86
8.72
11.67
15.46
19.63
23.66
27.16
29.86
31.63
32.30
31.77
30.01
27.19
23.71
20.06
16.66
13.74
11.17
8.61
5.65
1.99
-2.50
-7.68
-13.13
-18.13
-21.80
-23.27
-21.99
-17.93
-11.62
-4.02
3.80
10.99
17.02
21.75
25.23
27.56
28.74
28.76
27.69
25.78
23.45
21.25
19.62
18.77
18.68
19.06
19.58
20.00
20.24
20.35
20.39
20.32
20.02
19.28
17.96
16.05
13.66
10.94
8.02
4.99
1.85
-1.43
-4.91
-8.66
-12.74
-17.14
-21.72
-26.15
-29.86
-32.20
-32.54
-30.57
-26.36
-20.39
-13.39
-6.18
0.61
6.53
11.41
15.21
18.00
19.85
20.84
21.12
20.87
20.31
19.64
19.08
18.76
18.76
19.05
19.46
19.77
19.72
19.15
18.08
16.67
15.24
14.06
13.27
12.75
12.22
11.29
9.70
7.38
4.58
1.77
-0.51
-1.81
-2.07
-1.57
-0.98
-1.07
-2.39
-4.98
-8.24
-11.01
-11.93
-9.95
-4.73
3.09
12.17
20.82
27.58
31.86
34.16
35.89
38.70
43.58
50.13
56.32
58.86
54.21
39.74
14.61
-19.93
-60.88
-104.18
-145.75
-182.63
-213.83
-240.60
-265.54
-290.78
-316.09
-338.05
-350.98
-349.41
-330.77
-296.76
-252.54
-204.28
-156.60
-111.11
-66.92
-22.29
23.63
70.18
115.62
157.97
195.27
225.60
246.78
256.65
253.90
238.85
213.98
183.55
152.56
125.53
105.71
94.52
91.67
95.44
103.15
111.87
119.12
123.43
124.53
123.10
120.09
116.04
110.85
103.97
94.94
83.68
70.54
56.01
40.52
24.38
8.06
-7.65
-21.75
-33.48
-42.70
-49.88
-55.72
-60.32
-62.81
-61.48
-54.51
-40.91
-21.20
2.39
26.42
47.02
60.91
66.31
63.55
55.02
44.40
35.34
30.10
28.89
30.19
31.87
32.42
31.66
30.42
29.70
29.78
30.02
29.37
27.09
23.30
18.87
14.85
11.85
9.71
7.75
5.19
1.64
-2.66
-7.08
-10.85
-13.50
-14.97
-15.59
-15.84
-16.14
-16.72
-17.53
-18.42
-19.18
-19.68
-19.95
-20.11
-20.36
-20.95
-22.02
-23.58
-25.47
-27.44
-29.20
-30.63
-31.77
-32.79
-33.81
-34.74
-35.23
-34.74
-32.81
-29.25
-24.27
-18.42
-12.32
-6.53
-1.45
2.74
5.97
8.23
9.58
10.06
9.75
8.81
7.41
5.75
4.10
2.67
1.61
0.94
0.48
0.01
-0.67
-1.61
-2.67
-3.60
-4.20
-4.44
-4.48
-4.61
-5.10
-6.08
-7.53
-9.24
-10.99
-12.65
-14.18
-15.69
-17.30
-19.12
-21.19
-23.43
-25.65
-27.57
-28.78
-28.86
-27.48
-24.52
-20.18
-14.90
-9.31
-4.03
0.42
3.72
5.74
6.48
6.09
4.82
3.02
1.08
-0.62
-1.85
-2.57
-2.88
-2.93
-2.87
-2.75
-2.50
-2.06
-1.38
-0.55
0.22
0.66
0.58
-0.09
-1.25
-2.73
-4.34
-5.96
-7.55
-9.12
-10.67
-12.16
-13.54
-14.82
-16.13
-17.67
-19.66
-22.12
-24.71
-26.82
-27.68
-26.71
-23.73
-19.04
-13.33
-7.44
-2.05
2.45
6.00
8.77
10.99
12.90
14.52
15.84
16.74
17.21
17.41
17.62
18.11
18.93
20.01
21.22
22.73
24.88
27.99
31.82
35.43
37.30
36.03
30.97
22.78
13.13
3.99
-3.20
-8.05
-11.13
-13.50
-16.06
-19.21
-22.86
-26.72
-30.51
-34.06
-37.20
-39.65
-40.92
-40.47
-37.93
-33.38
-27.47
-21.15
-15.47
-11.11
-8.24
-6.61
-5.74
-5.20
-4.82
-4.60
-4.64
-4.89
-5.20
-5.34
-5.12
-4.54
-3.73
-2.86
-2.10
-1.52
-1.16
-1.10
-1.48
-2.36
-3.74
-5.45
-7.19
-8.72
-9.95
-11.05
-12.35
-14.23
-16.96
-20.56
-24.68
-28.73
-31.91
-33.45
-32.86
-30.02
-25.27
-19.27
-12.79
-6.58
-1.13
3.27
6.56
8.82
10.19
10.86
10.99
10.79
10.37
9.85
9.30
8.76
8.21
7.61
6.90
6.06
5.12
4.14
3.13
2.00
0.61
-1.21
-3.56
-6.47
-9.79
-13.33
-16.82
-19.93
-22.32
-23.58
-23.41
-21.73
-18.72
-14.87
-10.78
-7.00
-3.87
-1.50
0.14
1.18
1.75
1.97
1.95
1.82
1.73
1.76
1.94
2.20
2.43
2.52
2.45
2.24
2.01
1.88
1.97
2.28
2.77
3.32
3.81
4.17
4.32
4.22
3.81
3.06
1.97
0.60
-1.01
-2.82
-4.86
-7.21
-10.00
-13.32
-17.23
-21.70
-26.51
-31.28
-35.36
-37.98
-38.43
-36.16
-30.94
-22.87
-12.34
0.08
13.64
27.42
40.31
51.20
59.02
63.04
63.12
59.68
53.58
45.85
37.38
28.71
20.20
12.06
4.58
-1.83
-6.83
-10.35
-12.65
-14.29
-15.83
-17.61
-19.60
-21.54
-23.17
-24.41
-25.47
-26.73
-28.62
-31.28
-34.56
-37.96
-40.73
-42.13
-41.56
-38.73
-33.70
-26.88
-18.82
-10.20
-1.67
6.23
13.06
18.50
22.39
24.74
25.65
25.36
24.08
22.04
19.45
16.60
13.83
11.51
9.88
9.03
8.74
8.62
8.21
7.17
5.36
2.91
0.01
-3.12
-6.38
-9.78
-13.41
-17.27
-21.28
-25.30
-29.21
-32.99
-36.71
-40.31
-43.46
-45.46
-45.39
-42.41
-36.21
-27.16
-16.28
-4.86
5.94
15.33
23.00
28.85
32.84
34.97
35.34
34.28
32.39
30.38
28.85
28.16
28.29
28.97
29.84
30.62
31.12
31.31
31.13
30.51
29.35
27.50
24.87
21.47
17.44
13.00
8.43
3.96
-0.31
-4.43
-8.59
-13.00
-17.73
-22.54
-26.81
-29.69
-30.29
-28.06
-22.91
-15.31
-6.15
3.52
12.67
20.46
26.32
30.01
31.58
31.37
29.90
27.69
25.18
22.65
20.27
18.19
16.59
15.63
15.39
15.79
16.55
17.30
17.69
17.48
16.57
14.95
12.72
9.99
6.85
3.42
-0.22
-3.97
-7.80
-11.83
-16.25
-21.10
-26.09
-30.45
-33.09
-32.89
-29.11
-21.70
-11.39
0.69
13.29
25.54
36.87
47.04
55.93
63.45
69.65
74.75
79.20
83.63
88.71
94.61
101.18
108.07
114.96
121.81
128.76
135.86
143.01
149.91
155.62
159.30
160.71
160.66
160.78
162.67
166.53
170.62
171.48
164.04
143.81
108.52
59.08
-0.50
-64.42
-126.68
-181.90
