1709836156.00
64.000000
-0.00
-0.00
-0.00
-0.00
-0.00
-0.00
-0.00
-0.00
-0.00
-0.00
0.00
0.01
0.01
-0.00
-0.03
-0.05
-0.05
0.00
0.13
0.36
0.66
1.01
1.37
1.72
2.06
2.40
2.79
3.24
3.80
4.42
5.06
5.66
6.20
6.68
7.15
7.68
8.31
9.14
10.09
11.04
11.88
12.56
13.14
13.76
14.65
15.96
17.91
20.32
22.90
25.38
27.58
29.57
31.68
34.32
37.81
42.54
48.15
54.10
59.83
64.97
69.58
74.14
79.34
85.71
93.76
103.00
112.62
121.73
129.77
136.75
143.30
150.75
157.77
166.64
177.95
191.79
206.97
220.57
228.25
225.36
208.53
176.87
132.76
80.05
23.07
-34.94
-92.44
-149.16
-205.23
-260.37
-313.74
-363.87
-409.83
-450.91
-486.50
-515.74
-537.23
-549.22
-549.96
-538.37
-514.21
-478.67
-433.88
-382.45
-327.02
-269.84
-212.63
-156.66
-102.95
-52.37
-5.90
35.58
71.43
101.35
125.50
144.38
158.69
169.15
176.37
180.75
182.57
182.07
179.51
175.23
169.65
163.18
156.15
148.81
141.30
133.69
126.02
118.33
110.69
103.16
95.80
88.68
81.83
75.25
68.95
62.95
57.25
51.86
46.78
42.03
37.59
33.45
29.61
26.07
22.81
19.83
17.11
14.67
12.48
10.54
8.83
7.35
6.07
4.97
4.05
3.27
2.62
2.09
1.65
1.30
1.01
0.79
0.61
0.48
0.37
0.29
0.22
0.18
0.14
0.11
0.09
0.08
0.07
0.06
0.05
0.05
0.04
0.04
0.04
0.03
0.03
0.03
0.03
0.03
0.03
0.03
0.02
0.02
0.02
0.02
0.02
0.02
0.02
0.02
0.02
0.02
0.02
0.02
0.03
0.03
0.03
0.03
0.04
0.06
0.09
0.14
0.19
0.20
0.15
0.03
-0.14
-0.33
-0.48
-0.56
-0.55
-0.50
-0.44
-0.44
-0.53
-0.69
-0.86
-0.99
-1.02
-0.93
-0.78
-0.66
-0.66
-0.83
-1.13
-1.45
-1.63
-1.56
-1.24
-0.82
-0.55
-0.68
-1.31
-2.34
-3.45
-4.24
-4.40
-3.92
-3.12
-2.53
-2.69
-3.86
-5.84
-8.04
-9.71
-10.25
-9.60
-8.28
-7.19
-7.25
-8.88
-11.81
-15.14
-17.77
-19.01
-18.73
-17.59
-16.60
-16.73
-18.76
-23.19
-30.27
-39.43
-48.77
-54.83
-53.55
-41.69
-18.88
11.60
43.71
70.89
88.78
96.53
96.64
92.90
88.47
84.87
82.13
79.90
78.11
77.00
76.42
75.35
71.99
64.52
51.91
34.34
13.37
-8.52
-28.42
-43.79
-53.06
-56.30
-55.12
-51.96
-49.13
-47.78
-47.73
-48.12
-48.50
-49.42
-52.39
-58.69
-68.14
-79.06
-88.60
-94.15
-94.20
-88.77
-78.88
-65.83
-50.81
-34.59
-18.30
-3.50
8.03
14.97
17.12
15.80
13.39
12.40
14.72
20.51
28.43
36.57
43.63
49.58
55.80
64.51
75.50
88.90
103.99
119.49
133.97
146.32
156.13
163.70
169.95
175.95
182.60
189.39
194.19
193.62
184.27
164.29
134.52
98.48
61.22
27.69
0.60
-20.20
-37.18
-53.61
-71.87
-92.53
-114.34
-135.18
-152.73
-165.27
-171.36
-169.70
-159.62
-142.24
-121.26
-102.31
-90.67
-88.09
-90.98
-91.39
-80.77
-54.74
-16.14
25.56
58.15
71.81
62.46
31.90
-14.72
-71.91
-135.36
-201.60
-266.65
-325.35
-372.08
-402.43
-414.82
-411.01
-394.98
-371.23
-343.21
-312.86
-281.22
-249.26
-218.29
-189.76
-164.60
-142.74
-123.17
-104.47
-85.45
-65.43
-44.24
-21.93
1.28
24.86
47.75
68.32
84.64
95.19
99.53
98.42
93.73
87.65
82.00
77.92
76.12
77.52
83.66
96.19
115.84
141.18
168.12
190.79
203.50
202.99
189.71
167.48
141.68
117.07
96.18
79.01
63.96
48.89
32.12
12.86
-8.44
-30.08
-49.25
-62.55
-67.27
-62.51
-49.76
-32.57
-15.20
-1.12
7.97
12.02
11.90
8.42
2.02
-6.89
-17.35
-27.48
-34.75
-36.98
-33.15
-23.80
-10.63
4.57
20.79
38.23
57.94
80.62
105.56
130.19
150.86
164.25
168.88
165.64
157.09
146.07
134.37
122.26
109.22
95.08
80.76
68.16
59.20
54.76
54.31
56.17
58.64
60.80
62.52
64.00
65.08
65.19
63.71
60.65
56.94
54.45
55.14
60.12
68.97
79.77
90.09
98.28
104.41
109.93
117.25
128.44
144.40
164.47
187.14
211.04
235.16
258.58
280.02
299.42
319.00
343.09
375.86
417.92
465.00
508.68
539.14
548.49
535.14
504.47
465.35
425.31
386.28
346.53
303.51
255.84
202.75
145.55
86.78
28.63
-28.86
-88.53
-151.85
-217.32
-281.86
-344.34
-403.47
-456.64
-499.83
-530.71
-549.94
-557.62
-553.46
-523.75
-464.81
-387.35
-309.11
-249.72
-209.44
-186.66
-179.29
-179.73
-183.43
-190.41
-201.83
-217.75
-235.82
-258.79
-291.71
-335.24
-384.92
-436.05
-487.77
-541.33
-597.73
-626.76
-612.01
-561.12
-496.65
-436.70
-386.89
-343.65
-299.71
-257.89
-209.74
-157.68
-110.64
-74.43
-47.85
-26.19
-3.75
21.92
46.92
66.78
82.30
89.81
81.15
57.34
25.31
-5.12
-24.52
-26.65
-9.28
21.00
53.51
81.12
103.51
123.82
145.30
168.67
192.05
213.40
229.65
239.04
243.56
248.26
257.85
274.84
298.96
328.02
359.16
388.08
409.68
420.06
417.59
402.30
375.70
340.48
300.18
258.67
219.20
183.71
153.37
129.00
110.76
98.16
89.91
84.19
78.97
72.55
64.01
53.62
42.86
33.51
26.84
23.09
21.54
21.00
20.33
18.83
16.19
12.27
7.05
0.56
-6.95
-15.04
-23.13
-30.76
-37.60
-43.52
-48.42
-52.21
-54.92
-56.80
-58.36
-60.22
-62.71
-65.53
-67.57
-67.25
-63.05
-54.20
-40.89
-24.18
-5.57
13.24
30.46
44.14
52.19
52.79
45.06
29.64
8.72
-14.49
-36.71
-55.69
-70.54
-81.62
-89.80
-95.78
-99.65
-101.04
-99.68
-95.79
-90.36
-84.74
-80.07
-76.72
-74.04
-70.65
-65.15
-56.87
-46.24
-34.62
-23.52
-13.79
-5.25
2.98
11.68
20.79
29.20
35.24
37.70
36.69
33.95
32.17
33.99
40.93
53.04
69.19
87.75
107.07
125.78
142.72
156.85
167.47
174.32
177.76
178.68
178.02
176.51
174.49
172.05
169.23
166.17
163.13
160.14
156.87
152.38
145.23
133.68
116.15
91.67
60.19
22.73
-19.11
-63.93
-111.27
-161.97
-217.61
-279.14
-345.32
-411.80
-471.56
-516.70
-540.95
-541.67
-520.46
-482.17
-432.84
-377.49
-318.89
-257.47
-191.94
-120.24
-40.43
48.29
144.39
243.13
336.57
415.10
470.19
497.24
497.20
475.91
441.69
402.20
362.34
323.91
286.71
249.91
212.95
175.56
137.52
98.86
60.48
24.70
-4.90
-24.82
-33.25
-31.34
-23.16
-14.17
-9.18
-10.69
-18.42
-30.18
-43.16
-55.09
-64.74
-71.85
-76.79
-80.30
-83.29
-86.60
-90.67
-95.23
-99.35
-101.81
-101.74
-99.07
-94.52
-89.25
-84.28
-80.19
-77.06
-74.52
-72.07
-69.11
-65.10
-59.73
-53.04
-45.49
-37.95
-31.24
-25.83
-21.50
-17.33
-12.10
-4.91
4.11
13.70
21.74
26.28
26.80
25.07
25.32
33.07
53.03
86.82
131.56
179.87
222.02
248.87
254.71
238.79
205.04
160.54
113.30
70.10
34.89
7.92
-14.27
-37.67
-68.39
-109.66
-159.25
-209.16
-247.84
-264.27
-251.91
-210.92
-147.59
-71.77
6.29
78.50
139.86
188.19
223.11
244.93
253.82
249.63
232.34
202.68
162.50
114.74
62.47
7.70
-49.39
-110.26
-177.00
-250.99
-331.93
-417.23
-502.01
-579.69
-643.10
-686.21
-705.81
-702.47
-680.15
-644.58
-601.13
-553.41
-503.19
-451.56
-399.95
-350.57
-305.34
-264.62
-226.52
-187.33
-143.05
-91.05
-31.37
32.88
95.86
150.43
189.93
210.36
211.89
199.53
181.77
167.70
163.43
169.92
183.20
196.87
205.44
206.64
201.99
195.48
191.27
191.90
197.82
207.84
219.87
231.44
239.67
242.10
237.32
225.42
208.00
187.87
168.53
153.28
144.24
140.27
138.52
135.21
126.37
108.83
81.37
45.49
5.07
-35.12
-73.81
-110.34
-144.44
-176.63
-209.32
-246.40
-291.33
-345.37
-406.47
-474.04
-544.08
-609.71
-663.03
-698.04
-711.93
-704.72
-678.92
-639.28
-597.03
-559.57
-527.20
-493.44
-450.35
-392.87
-320.48
-236.47
-113.67
49.51
231.05
397.72
527.42
615.57
667.90
692.66
697.32
688.11
665.02
630.20
589.05
549.32
516.63
492.43
474.52
458.61
439.83
410.22
369.13
317.34
261.20
207.93
162.45
126.86
101.00
83.49
70.07
58.15
47.21
38.81
33.84
31.62
30.58
29.31
27.09
22.81
16.50
8.93
2.40
-1.95
-4.37
-5.89
-7.67
-10.43
-14.60
-19.74
-24.95
-28.96
-31.11
-31.57
-31.02
-30.29
-30.07
-30.63
-31.85
-33.47
-34.95
-35.93
-36.30
-36.12
-35.67
-35.30
-35.29
-35.77
-36.64
-37.52
-38.03
-37.97
-37.37
-36.51
-35.71
-35.09
-34.62
-34.16
-33.59
-33.00
-32.60
-32.59
-33.02
-33.79
-34.82
-36.16
-38.06
-40.74
-44.15
-47.73
-50.44
-51.13
-48.95
-43.68
-35.64
-25.45
-13.61
-0.40
13.95
28.98
43.71
56.83
67.13
74.10
78.15
80.49
82.47
85.00
88.26
91.76
94.95
97.60
100.05
103.02
107.20
112.83
119.63
126.88
133.70
139.28
142.90
143.98
141.97
136.67
128.38
118.26
108.21
100.39
96.55
97.25
101.60
107.52
112.41
113.91
110.45
101.43
87.04
68.05
45.81
22.41
0.74
-15.77
-23.91
-21.85
-9.86
9.56
32.77
56.39
78.62
99.66
120.92
143.61
167.36
189.65
206.32
212.91
206.21
185.28
151.75
109.34
63.37
19.93
-14.97
-36.66
-43.15
-36.13
-20.82
-4.45
6.17
7.00
-2.38
-19.59
-41.56
-66.36
-93.88
-125.00
-159.85
-196.81
-232.84
-264.84
-291.59
-314.22
-335.50
-358.62
-386.26
-420.27
-461.65
-510.14
-563.53
-617.10
-663.61
-694.75
-703.76
-688.02
-649.95
-595.88
-533.31
-468.39
-405.07
-344.79
-287.39
-232.18
-178.69
-126.43
-74.56
-21.80
32.94
88.28
141.84
191.71
237.10
278.31
316.82
355.59
398.61
449.20
504.87
558.78
602.25
627.15
627.28
600.42
549.50
481.94
406.83
327.77
246.44
166.63
95.24
38.40
-1.09
-25.18
-39.94
-54.39
-83.00
-136.69
-216.51
-314.10
-419.27
-523.72
-623.25
-716.57
-762.48
-734.84
-641.09
-517.39
-399.64
-307.69
-244.24
-203.00
-173.11
-152.13
-133.45
-113.20
-87.25
-51.07
-5.49
46.80
103.57
165.66
230.94
285.92
316.76
317.76
309.39
303.32
308.19
321.00
340.83
364.61
386.84
402.93
410.54
408.05
389.97
352.24
297.76
235.38
175.56
128.48
102.44
101.73
125.47
166.71
218.43
278.33
343.23
403.64
446.10
458.53
434.23
373.91
283.58
151.77
-8.24
-166.35
-297.29
-394.13
-463.55
-513.73
-547.41
-562.22
-553.56
-522.29
-468.57
-400.76
-331.17
-269.26
-218.29
-176.16
-138.15
-99.44
-53.98
-3.64
46.25
90.67
128.44
162.30
196.60
234.93
278.76
328.70
381.91
431.77
469.98
489.64
486.94
461.54
416.33
356.38
288.03
216.28
143.47
70.10
-3.18
-74.41
-140.18
-196.63
-240.81
-271.73
-290.84
-301.33
-306.45
-307.89
-305.35
-297.60
-283.95
-265.29
-244.10
-223.57
-206.15
-192.61
-181.68
-170.72
-156.85
-137.98
-113.37
-83.55
-49.82
-13.80
22.66
57.51
88.36
112.49
126.92
128.82
116.18
88.62
48.05
-1.28
-53.56
-102.89
-144.59
-176.03
-196.56
-206.68
-207.12
-198.69
-182.80
-162.10
-140.38
-121.59
-108.30
-100.39
-94.87
-87.11
-72.69
-49.03
-16.21
23.14
64.86
104.55
138.94
166.76
188.75
206.99
223.51
239.27
253.71
265.24
272.15
273.58
269.73
261.39
249.46
234.45
216.61
196.16
173.67
150.22
127.21
105.96
87.32
71.42
57.67
45.12
32.88
20.59
8.50
-2.65
-11.95
-18.68
-22.50
-23.43
-21.65
-17.37
-10.79
-2.17
7.90
18.53
28.73
37.76
45.40
51.93
57.87
63.60
69.21
74.58
79.84
85.56
92.68
102.09
114.14
128.30
143.27
157.40
169.14
177.41
181.61
181.62
177.65
170.24
160.14
148.21
135.12
121.24
106.49
90.56
73.14
54.14
33.89
13.07
-7.41
-26.72
-44.44
-60.73
-76.30
-92.02
-108.31
-124.82
-140.37
-153.47
-162.93
-168.39
-170.39
-169.92
-167.92
-164.87
-160.85
-155.80
-149.85
-143.47
-137.29
-131.75
-126.91
-122.42
-117.80
-112.66
-106.95
-100.96
-95.17
-90.06
-85.76
-82.01
-78.14
-73.35
-67.08
-59.26
-50.48
-41.73
-34.05
-28.11
-24.00
-21.32
-19.41
-17.77
-16.13
-14.43
-12.65
-10.72
-8.56
-6.26
-4.18
-2.85
-2.70
-3.78
-5.63
-7.43
-8.44
-8.26
-7.00
-5.14
-3.18
-1.46
-0.08
0.94
1.46
1.27
0.11
-2.06
-4.94
-7.98
-10.60
-12.47
-13.62
-14.42
-15.30
-16.47
-17.82
-19.00
-19.52
-18.96
-17.17
-14.29
-10.78
-7.25
-4.36
-2.57
-2.00
-2.33
-3.04
-3.59
-3.63
-3.16
-2.45
-1.85
-1.61
-1.78
-2.32
-3.11
-4.08
-5.11
-6.09
-6.85
-7.29
-7.44
-7.49
-7.84
-8.97
-11.21
-14.56
-18.49
-21.95
-23.62
-22.28
-17.31
-8.84
2.13
14.10
25.51
35.25
42.93
48.89
53.93
58.81
63.95
69.15
73.90
77.62
80.21
82.25
84.88
89.28
96.10
105.12
115.28
125.14
133.63
140.55
146.59
152.98
160.71
170.02
180.04
188.95
194.36
193.73
184.81
165.78
135.74
94.75
43.90
-14.90
-79.50
-148.36
-221.02
-297.84
-378.56
-460.43
-537.00
-598.76
-635.71
-640.92
-613.35
-558.13
-484.51
-402.13
-317.84
-234.53
-152.00
-68.92
15.64
101.72
188.67
275.33
359.70
438.37
506.57
559.06
591.97
604.13
597.75
577.55
549.19
517.63
486.31
456.97
430.06
405.19
381.37
357.32
331.73
303.70
272.92
239.67
204.33
167.01
127.28
84.26
37.27
-13.80
-67.99
-123.64
-179.00
-232.94
-285.66
-338.96
-395.99
-460.05
-532.60
-611.14
-688.27
-752.90
-793.52
-802.54
-779.41
-730.89
-668.17
-602.17
-539.49
-481.06
-423.69
-363.41
-298.40
-229.95
-161.26
-95.43
-34.31
21.36
71.30
115.14
152.90
184.94
211.90
233.54
247.57
249.26
232.88
194.40
134.76
61.37
-12.89
-73.27
-108.24
-113.69
-94.34
-61.57
-28.83
-6.29
2.48
0.61
-5.20
-9.29
-10.40
-12.14
-20.31
-39.27
-69.55
-108.31
-151.61
-196.87
-243.38
-291.02
-337.82
-378.73
-406.69
-415.43
-402.60
-371.21
-328.72
-284.14
-244.56
-213.07
-188.52
-167.16
-144.66
-118.10
-86.62
-51.25
-14.03
23.07
59.01
94.12
129.57
167.04
208.08
253.88
304.89
360.40
417.86
472.57
518.23
548.52
559.51
551.32
528.28
497.27
465.07
436.05
411.47
390.19
370.36
350.74
331.18
312.13
294.02
276.79
259.96
243.06
225.92
208.77
192.14
176.66
162.90
151.41
142.69
137.36
136.23
139.96
148.79
161.96
177.36
191.69
201.35
203.64
197.95
186.02
171.04
155.96
141.98
127.80
110.16
85.37
51.37
9.30
-35.92
-76.80
-105.50
-116.63
-109.64
-89.16
-63.52
-41.65
-29.96
-30.34
-40.48
-55.94
-72.81
-89.36
-105.64
-121.86
-136.81
-147.62
-150.97
-144.97
-130.04
-108.44
-82.86
-55.20
-25.88
5.42
38.23
70.21
97.31
115.45
122.70
120.24
111.61
101.25
92.21
84.58
75.20
58.86
30.38
-13.29
-72.23
-143.80
-221.78
-296.78
-357.58
-393.65
-397.99
-369.03
-311.16
-234.17
-152.70
-79.78
-22.55
18.79
48.42
71.18
90.25
106.95
120.24
124.53
117.75
104.28
93.38
93.13
104.89
123.68
142.39
152.93
143.09
107.19
48.56
-22.91
-97.59
-170.69
-239.82
-300.20
-348.62
-392.58
-439.70
-493.76
-553.74
-617.68
-686.15
-759.37
-833.16
-838.45
-734.08
-529.72
-281.19
-45.76
148.23
297.16
394.41
462.22
513.76
544.97
550.38
530.83
494.16
458.35
431.94
417.49
416.27
424.08
428.59
420.64
398.74
369.28
340.92
318.21
302.50
294.95
292.87
288.69
277.01
257.46
234.54
213.99
198.41
188.08
182.80
179.88
174.49
163.41
146.49
126.48
106.97
89.70
74.84
61.88
48.78
32.95
12.90
-10.88
-36.33
-61.09
-84.26
-106.60
-130.10
-157.80
-192.24
-234.41
-283.31
-336.62
-391.55
-446.18
-500.06
-554.06
-609.87
-668.97
-732.53
-800.60
-871.73
-942.12
-1005.21
-1052.28
-1074.58
-1066.74
-1029.65
-971.18
-903.64
-839.09
-784.73
-740.75
-701.89
-661.20
-614.04
-559.75
-500.78
-440.03
-378.81
-316.50
-251.81
-184.37
-115.91
-50.03
9.64
61.21
105.21
143.81
179.20
212.49
243.21
269.67
289.93
303.11
310.10
313.30
315.51
318.62
322.80
327.48
331.22
332.64
331.41
328.64
326.54
327.07
330.71
335.89
342.43
349.54
356.16
361.25
364.79
367.96
372.56
380.34
391.87
410.97
436.90
462.41
475.71
466.69
433.15
382.53
328.94
286.44
272.19
292.53
341.04
402.77
463.24
515.11
557.72
593.18
621.04
650.12
685.18
725.14
763.78
794.93
817.09
831.64
840.08
779.26
619.31
373.40
92.62
-170.17
-385.29
-544.72
-652.65
-713.75
-747.92
-758.44
-746.77
-716.25
-675.02
-630.97
-585.50
-536.78
-482.22
-426.26
-363.71
-291.60
-209.92
-124.24
-55.08
-17.75
-15.12
-16.15
-10.13
12.32
43.16
77.81
110.26
135.34
152.16
165.88
180.67
192.94
201.99
206.71
207.29
202.51
191.49
154.84
87.34
-3.70
-105.66
-203.15
-286.91
-353.42
-404.43
-440.27
-465.09
-477.55
-476.56
-465.22
-446.99
-424.82
-398.96
-371.75
-344.05
-316.30
-285.67
-250.71
-213.11
-175.62
-141.05
-110.89
-85.90
-65.74
-49.88
-35.43
-20.32
-4.16
12.40
28.25
42.55
54.63
64.43
71.94
78.40
84.86
91.80
99.05
106.29
113.43
120.76
128.99
138.52
149.56
161.43
172.69
181.81
187.88
191.07
192.39
193.26
194.61
196.67
199.05
201.22
203.03
204.85
207.22
210.35
213.85
216.96
219.15
220.69
222.70
226.44
232.24
238.88
243.81
244.27
238.76
227.75
213.53
199.00
186.19
175.49
165.66
154.63
140.39
121.61
97.91
69.83
38.85
7.14
-22.81
-48.71
-69.14
-83.78
-93.40
-99.34
-102.95
-105.28
-107.06
-108.78
-110.84
-113.52
-116.72
-119.81
-121.68
-121.04
-116.84
-108.69
-97.06
-83.22
-68.75
-55.02
-42.64
-31.28
-19.88
-7.27
7.23
23.38
40.20
56.54
71.76
86.08
100.51
116.24
133.97
153.53
173.90
193.51
210.92
225.30
236.69
245.94
254.32
263.01
272.62
283.15
294.07
304.71
314.48
322.59
327.57
326.93
317.27
295.25
258.90
208.58
147.32
80.12
12.29
-52.03
-110.97
-165.03
-216.28
-267.15
-319.99
-376.47
-437.16
-500.91
-564.21
-620.98
-663.57
-684.70
-679.85
-649.50
-598.62
-534.72
-464.84
-393.16
-320.44
-245.66
-170.50
-98.08
-35.27
9.99
32.66
33.89
21.64
8.02
4.60
17.55
45.37
79.56
108.70
123.03
117.82
94.25
58.17
17.91
-17.74
-40.97
-46.46
-32.42
-1.23
40.78
84.85
122.03
145.62
152.82
144.90
125.82
100.65
74.06
49.58
29.47
14.94
6.29
3.06
4.04
7.51
11.73
15.62
18.96
22.08
25.35
28.57
30.85
31.15
28.93
24.59
19.36
14.59
11.07
8.76
7.05
5.43
3.88
2.95
3.33
5.24
8.18
11.09
12.89
13.10
12.14
11.14
11.44
13.89
18.45
24.17
29.61
33.46
35.07
34.56
32.50
29.51
25.98
22.11
18.16
14.69
12.37
11.76
12.90
15.11
17.20
17.75
15.67
10.63
3.19
-5.37
-13.46
-19.80
-23.85
-25.91
-26.82
-27.37
-27.82
-27.82
-26.75
-24.38
-21.26
-18.66
-17.90
-19.66
-23.55
-28.16
-31.67
-32.46
-29.62
-23.22
-14.31
-4.91
2.39
4.97
1.25
-8.50
-21.97
-35.47
-45.36
-49.51
-47.88
-42.16
-34.49
-26.29
-17.79
-8.56
1.58
11.92
20.99
27.40
30.69
31.64
31.84
32.77
35.17
38.91
43.23
47.26
50.34
52.06
52.13
50.24
46.17
39.94
31.93
22.74
12.82
2.34
-8.85
-20.88
-33.57
-46.23
-57.89
-67.48
-74.61
-79.90
-85.01
-92.14
-103.05
-118.19
-135.96
-152.86
-163.94
-165.00
-154.39
-133.94
-108.13
-82.28
-60.86
-45.96
-37.30
-31.66
-25.15
-14.69
0.77
20.25
41.24
59.91
72.76
77.09
73.67
65.34
56.04
49.46
48.75
56.36
72.82
97.83
129.41
166.48
207.19
248.80
287.41
319.36
342.22
353.88
354.65
332.32
280.95
204.83
118.71
38.63
-26.62
-75.03
-116.28
-156.55
-197.07
-233.11
-258.91
-267.86
-257.93
-231.30
-188.73
-137.62
-87.36
-45.99
-14.65
10.22
32.31
51.01
62.08
62.46
48.70
22.89
-8.76
-37.62
-57.05
-64.71
-63.35
-58.13
-52.55
-49.88
-50.46
-53.01
-55.37
-56.28
-55.55
-54.17
-52.79
-50.94
-47.83
-41.78
-31.85
-18.63
-4.56
7.10
13.12
13.29
9.52
5.25
4.46
9.46
20.11
32.82
45.62
57.11
66.63
74.03
79.46
83.49
86.70
89.76
93.04
96.47
98.81
98.10
92.31
80.30
62.32
40.10
16.34
-6.13
-24.97
-39.13
-48.51
-53.66
-55.39
-54.70
-52.77
-50.83
-49.98
-50.71
-53.01
-56.28
-59.64
-62.31
-64.04
-65.14
-66.21
-67.67
-69.39
-70.77
-70.93
-69.19
-65.43
-60.12
-54.14
-48.28
-42.92
-37.91
-32.79
-27.15
-20.87
-14.22
-7.68
-1.73
3.39
7.67
11.31
14.60
17.84
21.32
25.22
29.62
34.39
39.34
44.27
49.12
53.97
59.00
64.25
69.65
75.12
80.59
86.12
91.85
98.02
104.94
113.00
122.47
133.66
146.62
160.79
174.58
185.44
190.52
187.69
176.31
157.00
131.50
101.85
69.76
36.34
2.61
-29.97
-59.19
-82.61
-99.57
-110.60
-117.13
-120.84
-123.30
-125.69
-128.69
-132.42
-136.54
-142.63
-151.37
-161.59
-170.44
-175.03
-174.00
-167.89
-158.55
-147.89
-140.66
-139.34
-142.82
-147.40
-149.86
-149.90
-150.23
-154.74
-166.01
-189.15
-225.55
-271.71
-320.60
-364.98
-399.72
-422.26
-432.12
-405.45
-335.01
-233.49
-127.54
-39.88
22.28
64.69
97.50
123.91
149.48
171.71
187.72
197.96
206.27
216.79
231.06
246.21
256.60
258.25
246.39
220.71
185.41
147.06
111.60
82.51
61.23
47.83
42.50
42.61
45.74
51.87
62.24
77.72
97.62
119.94
141.35
158.69
168.21
168.24
160.09
147.49
135.13
123.55
114.35
108.67
107.61
111.53
120.61
134.59
152.36
171.98
191.17
208.81
224.54
238.72
250.92
259.59
262.30
256.63
241.45
217.44
187.07
152.60
114.94
72.56
23.88
-30.13
-84.35
-130.47
-160.13
-168.56
-157.33
-133.81
-110.30
-97.60
-100.73
-117.20
-139.27
-158.19
-167.76
-166.10
-155.14
-142.20
-134.60
-136.82
-149.01
-167.89
-188.91
-207.56
-220.23
-224.77
-225.60
-229.73
-244.28
-273.75
-319.42
-380.08
-452.79
-533.42
-589.90
-595.33
-536.65
-422.83
-278.67
-132.86
-9.99
73.96
114.76
121.76
110.18
97.80
97.70
114.32
142.94
173.96
199.62
217.70
233.66
250.40
268.22
283.72
293.34
294.88
286.06
266.17
236.20
199.54
158.71
116.55
75.65
38.39
6.51
-19.09
-34.54
-38.84
-32.48
-18.50
-1.23
14.51
24.83
27.85
24.07
16.09
6.75
-1.13
-6.56
-10.05
-13.04
-17.34
-23.87
-32.58
-42.54
-52.88
-62.66
-71.63
-80.32
-89.49
-99.33
-108.94
-116.21
-118.58
-114.29
-102.73
-84.46
-60.68
-32.32
0.26
35.08
68.32
94.43
106.47
97.89
64.74
7.93
-65.49
-143.02
-209.36
-250.47
-257.79
-231.33
-179.90
-118.40
-63.52
-29.36
-24.58
-51.26
-105.16
-177.02
-254.37
-323.63
-372.74
-393.93
-385.46
-351.64
-300.87
-242.45
-183.93
-129.71
-81.35
-38.73
-1.28
31.79
61.55
89.73
118.45
149.42
182.94
217.56
250.73
279.78
303.30
321.84
337.65
353.60
371.98
393.90
419.29
447.35
476.64
504.56
526.82
537.70
531.65
505.79
461.98
406.90
349.77
298.91
259.14
231.38
214.47
207.60
211.45
227.15
253.87
286.94
318.11
338.32
341.18
325.42
294.87
256.18
215.55
176.47
139.30
102.45
64.36
24.69
-15.48
-54.49
-91.30
-126.19
-160.66
-196.72
-236.07
-279.34
-325.65
-372.49
-416.10
-452.28
-477.52
-490.04
-490.28
-480.60
-464.31
-444.34
-422.52
-399.46
-375.22
-350.16
-325.14
-301.20
-278.72
-256.85
-233.67
-207.24
-176.83
-143.67
-110.87
-82.47
-61.80
-50.43
-47.69
-51.23
-58.08
-65.64
-72.29
-77.66
-82.50
-88.27
-96.63
-108.79
-124.97
-143.98
-163.37
-179.79
-189.75
-190.34
-179.77
-157.58
-124.66
-83.10
-35.99
13.00
60.12
102.07
136.39
161.72
177.68
184.83
184.46
178.43
168.69
156.86
143.84
129.67
113.94
96.46
78.01
60.43
45.95
36.16
31.39
30.96
34.17
41.11
52.53
68.67
87.88
106.08
117.97
119.43
109.83
92.66
74.02
59.67
52.37
50.90
51.34
49.47
43.00
32.44
20.34
9.90
3.43
1.67
4.08
9.55
17.21
26.61
37.62
49.99
63.11
76.05
87.87
97.92
105.89
111.70
115.13
115.65
112.56
105.23
93.58
78.34
60.92
42.99
26.03
10.90
-2.20
-13.48
-23.26
-31.66
-38.60
-43.99
-47.87
-50.60
-52.78
-54.94
-57.23
-59.27
-60.06
-58.26
-52.54
-42.13
-27.29
-9.55
8.51
23.87
34.00
37.71
35.41
29.03
21.19
14.26
9.63
7.41
6.70
6.25
5.22
3.60
2.13
1.80
3.17
5.99
9.41
12.49
14.84
16.79
18.98
21.75
24.67
26.57
26.21
22.85
16.72
8.89
0.76
-6.46
-12.23
-16.75
-20.85
-25.70
-32.43
-41.59
-52.88
-65.17
-76.90
-86.72
-94.01
-99.00
-102.47
-105.25
-107.93
-111.10
-115.52
-122.33
-132.32
-145.00
-157.77
-165.91
-163.56
-145.54
-109.22
-56.03
8.20
74.27
131.84
172.30
191.18
189.15
171.45
145.73
119.54
98.22
83.86
75.60
70.78
66.45
60.03
49.77
35.08
16.77
-2.93
-20.89
-34.00
-40.16
-38.49
-29.75
-15.87
1.25
21.03
44.84
75.45
114.81
161.77
211.25
253.96
278.92
277.55
247.57
194.86
131.91
73.54
31.57
12.21
12.61
22.56
29.58
25.08
8.28
-14.25
-32.55
-37.89
-23.39
10.76
57.96
108.88
155.89
194.76
223.47
239.99
242.57
236.28
227.64
223.02
227.37
243.93
273.05
310.80
348.67
377.62
398.24
413.39
424.97
432.39
434.44
430.87
422.54
409.63
353.81
241.64
89.97
-64.32
-191.72
-282.91
-342.19
-377.56
-397.24
-409.91
-414.27
-410.05
-401.51
-396.76
-403.28
-425.33
-452.04
-473.69
-483.66
-475.84
-451.06
-415.91
-379.35
-348.01
-323.76
-304.66
-289.19
-276.16
-262.01
-245.29
-227.32
-211.38
-200.50
-195.85
-196.55
-201.16
-206.32
-205.38
-192.20
-164.09
-123.59
-77.53
-34.19
-0.14
21.06
30.87
33.54
33.25
32.30
30.75
27.62
22.47
16.01
9.17
2.55
-3.91
-11.12
-20.21
-31.91
-45.83
-60.61
-74.41
-85.90
-94.70
-101.00
-105.67
-109.59
-113.06
-115.55
-115.78
-112.08
-102.66
-89.98
-75.61
-60.97
-47.00
-33.94
-21.37
-8.64
4.64
18.30
31.58
44.21
56.06
67.52
79.33
92.21
106.41
121.85
138.40
156.19
175.86
197.13
218.11
235.07
243.60
240.39
224.66
198.36
164.92
127.95
90.05
53.38
20.85
-3.24
-14.06
-8.52
12.71
44.86
81.05
115.23
144.68
170.37
195.34
222.23
251.20
279.46
302.23
314.30
311.35
290.97
253.36
201.62
141.64
81.05
27.46
-13.60
-40.21
-54.02
-58.95
-58.99
-56.66
-52.82
-47.63
-41.66
-36.31
-33.05
-32.28
-32.66
-31.81
-27.79
-20.49
-11.95
-5.37
-3.58
-7.83
-17.42
-30.23
-43.61
-54.98
-62.46
-65.18
-63.84
-60.56
-58.30
-59.61
-65.38
-74.57
-85.06
-94.91
-103.20
-109.74
-113.85
-113.25
-104.37
-84.10
-52.06
-11.49
32.05
73.41
110.22
143.11
173.69
201.51
222.48
229.82
217.24
182.03
126.55
57.75
-15.16
-82.98
-138.05
-175.12
-192.45
-192.80
-183.57
-174.99
-176.17
-190.75
-214.66
-237.55
-247.18
-234.74
-198.25
-142.67
-77.31
-12.06
45.47
91.07
123.45
143.42
153.21
156.43
157.93
162.64
173.51
189.66
206.22
216.30
214.41
200.24
179.92
163.97
162.59
180.63
214.90
255.48
290.01
308.70
307.43
287.90
255.91
219.04
185.03
160.59
150.32
155.58
173.44
197.08
217.51
226.32
218.50
194.30
159.42
123.59
97.61
89.86
103.34
134.33
173.62
209.87
233.84
241.44
234.41
218.29
199.23
181.48
166.58
154.41
144.47
136.69
131.14
127.28
123.66
118.33
109.78
97.50
82.28
65.60
48.71
31.98
14.71
-4.40
-26.45
-51.72
-79.37
-107.86
-135.73
-162.34
-188.26
-214.96
-244.13
-276.88
-313.35
-352.72
-393.79
-435.59
-477.82
-520.96
-566.22
-615.39
-670.24
-731.61
-797.96
-864.43
-923.08
-964.76
-982.07
-972.17
-937.82
-886.20
-825.93
-764.06
-704.35
-647.43
-592.46
-538.83
-486.87
-437.45
-391.04
-347.09
-304.31
-261.46
-218.16
-175.09
-133.80
-95.93
-62.43
-33.20
-7.24
16.79
39.80
61.89
82.25
99.51
112.24
119.58
121.60
119.34
114.36
108.25
102.34
97.60
94.44
92.79
92.37
93.02
94.82
97.94
102.30
107.66
113.89
120.45
126.42
130.72
132.72
132.58
131.07
129.01
127.27
127.21
129.73
134.83
142.00
151.10
162.90
178.83
200.19
227.69
262.60
305.38
355.21
410.54
470.19
533.98
602.57
667.83
718.01
744.11
742.90
716.90
670.26
605.31
523.04
426.12
327.80
234.13
152.48
88.75
44.09
14.41
-7.33
-27.54
-49.67
-71.48
-88.93
-95.76
-87.74
-65.03
-32.37
2.91
33.56
54.63
64.04
61.63
49.97
31.72
8.49
-19.25
-51.26
-86.65
-123.78
-160.94
-197.37
-232.69
-267.69
-304.26
-344.55
-389.86
-439.97
-492.93
-545.35
-592.89
-630.04
-651.06
-651.23
-627.97
-581.78
-516.20
-437.12
-351.01
-263.18
-176.65
-92.24
-9.47
72.38
153.44
232.91
308.70
378.09
438.36
486.93
521.79
541.79
546.58
536.76
513.75
479.23
435.68
386.83
336.56
288.11
243.20
201.57
161.70
121.78
79.95
35.85
-8.49
-50.18
-86.30
-114.81
-135.29
-148.96
-154.26
-152.47
-148.24
-147.74
-156.17
-174.66
-199.74
-225.29
-244.05
-249.47
-238.12
-214.18
-179.01
-135.64
-88.97
-44.46
-6.73
22.10
42.06
53.50
56.99
51.73
38.41
20.20
4.09
-5.83
-8.81
-7.57
-8.15
-15.66
-31.07
-50.92
-68.63
-77.60
-74.59
-60.50
-39.66
-17.88
0.07
11.94
17.43
17.12
12.02
3.78
-4.17
-6.75
1.27
23.40
59.72
106.54
157.77
207.29
250.71
286.30
313.65
332.21
340.70
337.83
323.55
299.90
270.59
239.63
210.26
183.47
158.37
133.57
108.66
84.71
63.42
45.86
31.61
19.58
8.03
-4.60
-19.22
-36.16
-55.49
-77.47
-102.60
-131.14
-161.36
-189.16
-209.75
-220.50
-222.18
-217.50
-208.84
-196.94
-184.30
-168.73
-148.01
-121.09
-88.08
-49.88
-7.90
36.18
80.47
122.15
159.50
191.29
217.04
236.78
250.77
259.12
261.65
257.89
247.14
228.93
202.05
164.96
116.98
59.76
-2.03
-61.41
-111.56
-148.41
-171.78
-185.22
-193.28
-198.84
-201.85
-200.59
-193.89
-182.98
-171.34
-162.40
-157.51
-155.05
-151.63
-144.39
-133.13
-120.13
-108.43
-99.52
-91.89
-81.22
-61.84
-28.67
21.08
86.53
162.85
241.82
313.30
367.68
398.40
403.76
386.91
353.96
310.71
261.45
208.84
154.95
102.26
53.72
11.62
-24.07
-56.35
-91.04
-132.28
-179.13
-225.31
-262.04
-282.53
-285.24
-274.36
-257.79
-245.67
-245.35
-259.85
-289.43
-333.75
-392.36
-463.01
-539.50
-611.23
-668.00
-700.59
-702.72
-673.16
-615.94
-538.36
-447.96
-350.22
-232.73
-94.05
55.79
199.70
321.90
415.04
480.26
522.27
544.63
547.39
531.66
494.52
437.65
369.28
301.43
245.48
208.58
192.72
195.16
207.62
221.12
228.27
223.03
200.45
157.55
95.36
21.12
-53.24
-115.60
-157.18
-174.91
-172.26
-156.90
-136.43
-117.47
-98.84
-77.74
-52.82
-25.05
3.51
30.79
55.47
77.02
94.68
107.26
112.75
109.99
100.20
87.72
78.70
77.60
87.09
105.48
127.27
144.65
151.08
143.65
123.86
96.52
67.80
42.97
24.42
11.63
1.89
-7.56
-18.04
-29.28
-39.82
-47.69
-51.14
-49.39
-42.65
-32.16
-20.01
-9.22
-3.82
-7.38
-21.02
-41.96
-63.88
-78.71
-79.28
-61.22
-23.80
33.20
105.19
182.97
255.03
311.13
344.90
354.70
343.55
321.60
295.12
269.10
247.35
231.87
222.74
218.43
216.20
214.22
210.44
202.52
189.27
170.95
149.17
126.05
103.15
80.69
57.55
31.86
1.69
-33.32
-71.74
-110.84
-147.67
-180.16
-207.90
-232.35
-256.71
-285.25
-321.04
-364.13
-410.08
-449.80
-471.44
-464.27
-422.86
-350.12
-257.38
-160.81
-76.55
-16.25
14.97
18.17
-1.47
-36.55
-78.85
-120.23
-153.76
-175.30
-184.67
-185.54
-183.53
-183.71
-188.78
-198.93
-213.07
-230.24
-249.88
-270.76
-289.95
-303.13
-306.49
-299.04
-283.76
-266.49
-253.20
-247.53
-249.34
-255.49
-261.45
-263.03
-257.29
-242.76
-219.35
-187.95
-150.14
-107.68
-61.77
-12.60
40.43
97.73
158.21
218.44
273.01
316.11
343.79
355.75
355.84
350.87
347.99
351.69
361.63
372.58
376.58
366.43
338.78
295.58
243.25
190.38
145.02
112.63
95.06
90.39
93.54
97.66
95.71
82.41
55.66
17.09
-28.50
-74.53
-114.42
-143.24
-158.56
-160.79
-152.78
-139.21
-125.59
-117.21
-117.95
-129.27
-149.91
-176.21
-203.12
-225.62
-239.91
-244.54
-240.81
-232.43
-224.36
-221.37
-226.67
-241.11
-263.04
-288.64
-312.75
-330.01
-336.20
-329.35
-310.26
-281.92
-248.33
-213.03
-178.08
-143.99
-110.17
-75.76
-40.02
-2.65
36.40
76.83
117.78
157.82
195.07
227.56
253.84
273.42
286.59
294.38
298.21
299.79
300.91
303.08
307.16
312.91
319.13
324.01
325.89
323.98
318.70
311.49
304.34
299.15
297.24
299.06
303.93
310.34
316.38
320.41
321.28
318.64
312.96
305.21
296.96
289.45
283.19
277.78
272.09
264.59
254.04
240.35
224.50
208.97
195.74
185.40
177.28
170.13
162.48
153.47
143.63
133.93
126.77
123.55
124.32
128.29
134.56
141.32
146.45
148.63
146.20
139.35
127.37
108.47
80.47
42.21
-7.61
-69.02
-139.19
-224.70
-321.43
-417.94
-501.23
-563.22
-601.90
-621.60
-634.21
-645.32
-658.05
-672.18
-686.52
-698.50
-704.02
-690.43
-651.16
-585.50
-496.77
-393.21
-283.03
-173.29
-70.10
18.16
94.95
166.45
231.80
292.25
349.49
406.28
463.43
517.94
563.19
591.79
595.92
572.35
526.01
466.84
406.79
355.37
317.42
293.55
282.57
280.99
285.08
291.91
297.76
298.67
291.51
275.74
254.21
232.66
216.08
206.78
203.68
202.04
195.45
178.56
149.22
109.27
63.65
17.88
-23.75
-59.05
-88.14
-112.43
-133.33
-151.48
-166.76
-179.02
-189.08
-199.01
-211.51
-229.16
-253.82
-286.51
-327.77
-377.53
-434.52
-495.08
-552.68
-598.68
-624.51
-624.67
-598.60
-550.90
-489.41
-422.16
-354.92
-290.08
-227.49
-166.04
-105.21
-45.20
13.43
70.26
124.82
175.78
220.09
252.99
269.32
266.16
245.41
214.68
185.90
171.39
179.23
210.33
258.14
311.18
357.22
387.14
396.98
388.00
364.81
332.36
293.94
250.11
199.35
139.93
71.54
-4.22
-84.46
-166.24
-247.52
-326.40
-399.59
-461.37
-504.05
-520.36
-506.57
-464.40
-400.27
-322.56
-238.62
-153.85
-72.60
-0.16
56.53
90.36
96.82
76.59
35.51
-17.69
-75.01
-131.97
-188.53
-247.84
-313.30
-385.80
-462.06
-534.83
-594.59
-632.49
-643.01
-625.79
-585.12
-528.03
-461.57
-390.97
-319.36
-248.42
-179.54
-114.34
-54.70
-1.31
46.89
92.22
136.81
181.43
225.40
267.26
305.44
338.16
364.86
385.97
401.93
411.62
411.58
396.35
360.57
301.70
221.02
127.12
34.94
-37.97
-77.72
-79.69
-50.48
-5.95
33.77
48.49
26.38
-32.44
-116.27
-206.31
-282.71
-329.59
-337.98
-297.03
-209.61
-92.96
26.81
127.29
197.94
239.06
255.98
254.64
246.21
233.22
217.69
202.81
192.28
188.35
191.09
199.36
212.93
227.11
240.20
253.65
270.19
291.42
315.46
336.44
346.59
339.78
314.41
273.53
224.39
175.28
132.36
97.80
70.22
46.93
26.26
8.31
-6.05
-16.36
-23.52
-29.64
-37.00
-46.86
-58.80
-70.79
-80.16
-84.44
-82.14
-73.09
-58.54
-40.91
-23.32
-8.65
1.46
7.10
10.09
12.77
16.73
21.89
26.65
28.69
26.21
18.70
6.91
-7.45
-22.42
-36.02
-46.37
-52.06
-52.68
-49.30
-44.35
-40.72
-40.46
-43.82
-49.19
-54.03
-56.15
-54.60
-49.64
-42.24
-33.33
-23.48
-13.09
-2.53
7.72
17.30
26.15
34.57
42.80
50.75
57.80
62.84
64.21
59.88
47.73
26.40
-3.59
-39.15
-75.00
-105.16
-125.14
-133.34
-131.21
-121.88
-108.22
-91.52
-71.68
-48.60
-23.97
-1.96
11.73
12.35
-1.27
-25.45
-52.54
-73.74
-82.57
-77.23
-60.88
-39.50
-18.92
-2.41
10.11
20.68
31.14
41.52
49.78
53.20
50.23
41.58
29.75
17.58
6.69
-2.84
-11.49
-18.95
-23.49
-22.71
-15.28
-2.28
12.67
25.06
31.65
31.90
27.89
22.63
18.37
15.57
13.26
10.32
6.64
3.46
2.66
5.49
11.62
18.93
24.38
25.40
21.32
13.86
6.45
2.70
4.74
12.20
22.49
32.03
37.81
38.40
34.21
26.79
18.07
9.68
2.66
-2.50
-5.86
-7.96
-9.70
-12.16
-15.98
-20.73
-24.80
-25.83
-21.84
-12.43
0.58
13.73
23.33
27.08
24.93
18.76
11.20
4.33
-0.99
-4.84
-7.45
-8.61
-7.57
-3.69
2.87
10.84
18.21
23.27
25.49
25.90
26.46
28.84
33.31
38.16
40.34
36.69
25.38
6.87
-16.09
-39.35
-58.64
-70.75
-74.32
-69.90
-59.53
-45.99
-32.05
-19.89
-10.79
-5.19
-2.86
-3.28
-5.76
-9.44
-13.30
-16.11
-16.75
-14.60
-9.86
-3.45
3.35
9.53
14.50
18.03
19.92
19.79
17.35
12.79
7.06
1.67
-2.03
-3.75
-4.55
-6.12
-9.55
-14.26
-18.05
-18.49
-14.76
-8.88
-5.37
-9.08
-22.42
-43.35
-65.58
-80.89
-82.53
-68.04
-40.35
-6.79
23.15
40.41
38.19
13.37
-32.72
-93.92
-159.87
-217.92
-256.32
-267.77
-252.07
-216.09
-171.46
-130.19
-100.36
-83.48
-75.15
-68.37
-57.67
-41.52
-21.97
-1.99
17.53
38.65
64.77
97.54
134.50
169.41
195.13
207.33
206.51
197.28
185.40
174.59
165.16
154.99
141.81
125.08
106.47
88.80
74.56
64.64
57.81
51.57
43.38
31.96
17.98
3.69
-8.19
-15.72
-18.54
-17.56
-14.12
-9.09
-2.48
6.13
16.97
29.53
42.51
54.24
63.13
68.01
68.17
63.39
53.89
40.59
25.16
9.86
-2.96
-11.56
-15.18
-14.25
-10.20
-5.02
-0.83
0.57
-2.00
-8.83
-19.26
-31.69
-43.92
-53.67
-59.18
-59.74
-55.84
-48.91
-40.76
-33.03
-26.83
-22.70
-20.80
-20.97
-22.77
-25.37
-27.62
-28.40
-27.17
-24.34
-21.27
-19.84
-21.54
-26.69
-34.09
-41.31
-45.58
-44.86
-38.66
-28.23
-16.05
-4.96
2.90
6.67
6.84
4.77
2.02
-0.28
-1.62
-2.13
-2.32
-2.87
-4.43
-7.50
-12.23
-18.17
-24.29
-29.12
-31.33
-30.39
-26.89
-22.18
-17.59
-13.47
-8.83
-1.90
8.67
22.74
38.44
52.84
63.13
67.64
66.13
59.38
48.70
35.59
21.89
9.94
2.31
1.11
7.16
19.65
36.29
54.13
70.25
82.09
87.56
85.05
73.92
55.16
31.96
9.35
-7.07
-13.12
-7.69
6.85
25.71
43.79
57.77
67.23
74.24
81.86
92.21
105.43
119.77
132.76
142.68
149.43
154.22
158.39
162.23
164.44
162.84
155.65
142.57
124.78
104.04
81.42
57.18
31.63
6.53
-14.50
-27.35
-30.11
-25.37
-20.37
-24.24
-43.56
-78.78
-123.48
-167.02
-198.98
-213.09
-208.68
-189.42
-160.79
-128.08
-95.90
-68.85
-51.91
-49.87
-65.43
-97.15
-138.64
-180.20
-212.05
-228.11
-228.27
-218.16
-206.74
-202.72
-211.56
-234.12
-267.07
-304.31
-338.83
-364.18
-375.52
-370.18
-347.85
-310.50
-261.64
-205.42
-145.72
-85.42
-26.07
31.88
88.34
142.58
192.63
235.40
267.26
285.29
288.12
276.39
252.42
218.97
177.97
129.73
73.76
10.82
-55.05
-116.51
-165.62
-197.93
-215.48
-226.27
-239.93
-261.82
-289.45
-313.14
-321.30
-307.08
-272.25
-226.14
-180.46
-143.47
-117.01
-97.42
-79.04
-57.98
-33.38
-6.36
21.66
50.00
78.02
103.97
124.49
135.81
136.27
128.60
120.17
120.42
136.35
168.18
207.96
242.46
259.24
252.78
227.10
193.53
164.82
149.12
147.16
153.88
162.88
170.57
177.36
185.61
195.89
204.72
205.54
192.33
163.44
123.30
80.74
45.34
23.56
16.71
21.51
32.40
44.09
53.24
58.70
60.75
60.17
57.71
53.97
49.43
44.60
39.81
35.19
30.79
26.91
24.27
23.72
25.57
29.16
32.90
35.11
34.94
32.79
30.05
28.14
27.79
28.76
30.25
31.55
32.46
33.24
34.31
35.98
38.24
40.82
43.25
44.84
44.76
42.31
37.32
30.59
23.67
18.41
16.05
16.75
19.78
24.25
29.88
37.29
47.63
61.50
78.17
95.48
110.55
120.72
124.25
120.03
106.89
83.50
49.50
7.09
-38.00
-77.70
-104.55
-115.08
-111.55
-100.79
-90.59
-85.95
-87.12
-90.59
-92.03
-89.16
-82.70
-75.07
-68.39
-63.14
-58.64
-54.39
-51.14
-50.70
-54.74
-63.57
-75.63
-88.10
-98.20
-104.14
-105.43
-102.71
-97.20
-90.46
-84.22
-80.07
-78.98
-80.84
-84.22
-86.71
-85.56
-78.72
-65.85
-49.11
-33.03
-23.56
-26.06
-43.07
-72.68
-108.56
-141.74
-163.50
-168.10
-154.26
-125.40
-88.90
-54.85
-34.03
-34.85
-60.16
-105.10
-157.58
-201.89
-224.17
-216.88
-180.34
-121.11
-48.73
27.01
97.35
154.89
193.71
210.72
207.20
189.27
166.12
146.69
136.30
135.10
139.14
143.11
142.99
137.72
128.85
119.24
111.60
107.53
107.17
109.47
112.53
114.56
114.33
111.54
106.88
101.55
96.72
93.08
90.65
88.97
87.43
85.47
82.71
78.78
73.41
66.33
57.53
47.37
36.66
26.61
18.54
13.59
12.34
14.53
18.96
23.77
26.91
26.85
23.16
16.48
8.15
-0.55
-8.93
-16.93
-24.62
-31.50
-36.33
-37.42
-33.58
-24.99
-13.43
-1.77
7.14
11.37
10.42
5.04
-3.24
-12.76
-22.03
-29.98
-35.88
-39.29
-40.01
-38.10
-33.98
-28.44
-22.57
-17.34
-13.25
-10.01
-6.56
-1.61
5.71
15.24
25.62
34.65
39.84
39.04
30.87
15.25
-6.18
-29.70
-50.09
-61.92
-61.42
-48.01
-24.63
3.29
29.78
49.97
60.92
61.56
52.27
34.67
11.69
-12.58
-33.64
-47.99
-54.33
-54.12
-50.79
-48.20
-49.07
-54.10
-62.07
-70.53
-76.58
-77.57
-71.70
-58.57
-39.52
-17.58
3.34
19.64
29.29
32.41
31.01
28.09
26.45
27.70
31.84
37.28
41.45
41.60
35.61
22.83
4.39
-17.00
-37.76
-54.57
-65.22
-69.08
-66.94
-60.42
-51.42
-41.65
-32.46
-24.90
-19.65
-16.96
-16.62
-18.01
-20.34
-22.82
-24.85
-26.03
-26.07
-24.83
-22.33
-18.87
-14.94
-11.03
-7.42
-4.01
-0.45
3.70
8.72
14.63
21.09
27.47
32.83
36.09
36.40
33.55
28.25
22.06
16.76
13.54
12.47
12.49
12.07
10.09
6.46
2.11
-1.48
-3.01
-1.91
1.55
6.44
11.56
15.70
17.88
17.42
14.04
7.98
0.12
-8.18
-15.27
-19.59
-20.05
-16.22
-8.48
2.10
13.96
25.34
34.60
40.61
43.02
42.32
39.75
36.76
34.46
33.14
32.30
30.94
28.25
24.09
18.99
13.72
8.68
3.65
-2.17
-9.53
-18.56
-28.37
-37.22
-42.89
-43.36
-37.37
-24.90
-7.34
12.62
31.49
45.86
53.27
52.98
46.20
35.66
24.84
16.99
14.28
17.27
24.62
33.15
38.55
36.66
25.14
4.61
-21.27
-47.22
-68.50
-82.70
-90.44
-94.40
-97.68
-102.21
-108.07
-113.92
-117.93
-118.88
-116.46
-111.23
-104.03
-95.69
-86.81
-77.80
-69.00
-60.55
-52.37
-44.05
-34.94
-24.37
-12.04
1.70
15.87
29.07
40.00
47.87
52.57
54.46
53.99
51.50
47.28
41.81
35.94
30.82
27.55
26.74
28.29
31.46
35.24
38.84
41.94
44.64
47.13
49.23
50.24
49.13
45.15
38.37
29.91
21.66
15.62
13.16
14.64
19.47
26.56
34.75
43.16
51.24
58.68
65.19
70.37
73.68
74.54
72.59
68.14
62.52
58.15
57.91
64.11
77.27
95.53
115.08
131.65
142.44
147.34
148.84
150.28
153.64
157.68
157.93
148.31
123.68
81.85
24.18
-45.09
-119.87
-192.74
-255.49
-300.04
-320.69
-317.03
-295.81
-270.18
-255.07
-261.00
-289.03
-330.04
-368.59
-389.88
-385.76
-357.06
-311.47
-258.63
-205.28
-153.19
-100.22
-43.46
17.62
79.69
136.65
182.12
212.12
226.30
227.40
219.33
205.40
187.37
166.05
142.73
120.06
101.74
90.97
88.66
92.58
98.05
99.96
95.11
83.54
68.24
53.64
43.41
39.05
39.53
42.20
44.15
43.36
39.28
32.69
25.14
18.30
13.44
11.08
10.97
12.18
13.58
14.30
14.22
14.09
15.19
18.72
25.04
33.41
42.12
49.06
52.45
51.34
45.76
36.52
24.92
12.35
0.01
-11.32
-21.34
-30.17
-38.16
-45.37
-51.21
-54.31
-52.85
-45.33
-31.45
-12.55
8.59
28.61
44.74
55.67
61.74
64.42
65.44
66.01
66.46
66.37
64.98
61.59
55.80
47.56
37.08
24.77
11.23
-2.76
-16.39
-29.08
-40.70
-51.54
-62.04
-72.31
-81.88
-89.69
-94.53
-95.57
-92.79
-86.93
-79.16
-70.57
-61.87
-53.46
-45.67
-39.05
-34.37
-32.39
-33.40
-37.01
-42.22
-47.70
-52.33
-55.57
-57.65
-59.23
-60.86
-62.37
-62.64
-59.88
-52.34
-39.08
-20.50
1.84
25.67
48.69
69.00
85.30
96.85
103.51
105.88
105.38
104.03
103.86
106.24
111.34
118.24
125.47
131.77
136.58
139.99
142.42
144.23
145.55
146.41
147.05
148.05
150.16
153.99
159.65
166.76
174.73
183.11
191.84
201.07
210.78
220.26
227.84
230.94
226.69
212.67
187.79
152.69
109.67
61.97
12.89
-35.18
-81.16
-125.23
-168.27
-211.52
-256.47
-304.77
-357.84
-415.64
-475.34
-530.73
-573.32
-595.14
-591.94
-565.23
-521.76
-470.85
-420.80
-376.94
-341.53
-315.25
-298.34
-290.52
-289.43
-289.36
-282.00
-259.55
-218.76
-163.41
-103.70
-52.57
-20.73
-12.72
-25.83
-51.81
-80.08
-101.00
-108.08
-99.08
-75.86
-43.42
-8.12
24.49
51.49
73.41
93.43
115.50
142.22
173.57
207.03
238.47
263.39
278.26
281.75
275.49
264.20
254.44
252.21
260.02
274.93
288.78
290.80
271.71
227.62
162.09
85.40
11.58
-45.59
-76.27
-76.68
-49.52
-2.70
53.04
106.90
150.12
177.18
185.88
176.61
151.74
115.12
71.67
26.78
-14.62
-49.24
-76.03
-96.02
-111.39
-123.92
-134.02
-140.60
-141.76
-135.98
-122.85
-103.21
-78.78
-51.66
-23.90
2.75
27.21
49.68
72.03
97.31
128.37
165.96
207.34
246.83
277.79
295.38
298.45
289.42
272.26
250.10
223.75
192.30
155.11
113.60
71.37
32.36
-1.68
-32.42
-63.60
-97.93
-134.14
-166.33
-186.58
-189.32
-174.85
-149.68
-123.32
-103.46
-92.55
-87.70
-83.80
-77.58
-69.93
-65.42
-69.61
-86.07
-114.88
-153.68
-199.87
-251.82
-308.30
-366.36
-419.53
-457.91
-470.98
-451.90
-401.72
-330.71
-255.26
-191.61
-149.45
-128.80
-121.33
-115.71
-103.41
-82.56
-57.96
-37.18
-25.52
-23.04
-25.42
-27.26
-25.64
-21.20
-16.95
-16.02
-19.24
-24.35
-27.13
-24.13
-14.01
-0.92
8.12
9.14
2.48
-8.51
-20.37
-28.70
-30.01
-22.78
-7.92
12.21
34.60
56.22
74.82
89.63
101.56
112.25
123.37
136.25
152.35
173.07
198.92
228.71
259.15
285.46
302.76
308.33
303.19
292.24
282.13
278.15
281.93
291.29
302.12
310.57
314.80
315.08
312.64
308.18
300.80
288.46
269.15
242.33
209.44
173.77
139.42
109.93
87.26
71.21
59.73
50.00
39.71
27.81
14.65
1.41
-10.70
-21.17
-30.26
-38.79
-47.63
-57.35
-68.07
-79.38
-90.47
-100.13
-106.86
-109.08
-105.65
-96.40
-82.47
-66.15
-50.31
-37.54
-29.46
-26.46
-27.92
-32.57
-38.92
-45.49
-50.91
-54.09
-54.33
-51.50
-46.01
-38.71
-30.68
-23.06
-16.94
-13.27
-12.65
-15.05
-19.72
-25.38
-30.70
-34.90
-37.98
-40.58
-43.33
-46.32
-48.93
-50.11
-48.95
-45.19
-39.35
-32.42
-25.34
-18.64
-12.36
-6.29
-0.33
5.22
9.77
12.58
13.21
11.66
8.55
4.83
1.53
-0.60
-1.31
-0.85
0.23
1.32
2.04
2.25
2.05
1.62
1.18
0.95
1.20
2.27
4.43
7.72
11.82
16.04
19.63
22.00
22.91
22.44
20.82
18.15
14.28
8.90
1.81
-6.81
-16.18
-25.20
-32.69
-37.77
-40.10
-39.83
-37.43
-33.71
-29.80
-27.13
-27.17
-30.84
-37.86
-46.76
-55.19
-60.98
-63.21
-62.50
-60.72
-60.12
-62.37
-67.96
-76.17
-85.43
-93.72
-98.56
-97.06
-86.26
-64.05
-30.55
10.99
54.32
91.90
117.25
127.02
121.89
105.65
83.40
59.65
37.26
17.71
1.88
-9.31
-14.93
-14.50
-8.82
0.12
9.73
17.48
21.65
21.58
17.65
11.00
3.26
-3.91
-9.09
-11.56
-11.43
-9.50
-6.88
-4.56
-3.05
-2.37
-2.27
-2.48
-2.89
-3.52
-4.29
-4.81
-4.29
-1.75
3.61
11.91
22.39
33.48
43.22
49.95
52.81
51.90
48.04
42.33
35.74
29.01
22.71
17.48
14.05
13.01
14.39
17.51
21.06
23.54
23.87
21.71
17.50
12.15
6.62
1.61
-2.45
-5.35
-6.99
-7.32
-6.49
-4.93
-3.39
-2.74
-3.75
-6.70
-11.31
-16.77
-21.98
-25.94
-27.91
-27.63
-25.33
-21.66
-17.49
-13.68
-10.89
-9.41
-9.12
-9.56
-10.14
-10.37
-9.99
-9.11
-8.14
-7.60
-7.87
-9.04
-10.86
-12.86
-14.58
-15.69
-16.05
-15.71
-14.70
-12.98
-10.50
-7.26
-3.41
0.64
4.44
7.61
9.94
11.43
12.12
11.98
10.90
8.79
5.68
1.88
-2.07
-5.62
-8.36
-10.15
-11.08
-11.33
-11.07
-10.38
-9.31
-7.92
-6.33
-4.66
-2.99
-1.32
0.43
2.32
4.41
6.80
9.66
13.30
17.97
23.74
30.34
37.04
42.83
46.70
47.90
46.15
41.72
35.25
27.40
18.91
10.59
3.45
-1.92
-5.25
-6.39
-5.11
-1.11
5.55
14.55
25.22
36.88
48.36
58.58
66.84
73.20
78.38
82.81
87.15
92.20
99.43
109.32
121.54
135.20
149.49
163.78
176.04
184.99
190.40
194.83
198.96
202.25
203.11
200.14
192.01
173.93
142.47
97.25
44.91
-10.03
-64.77
-118.79
-171.93
-224.73
-283.39
-351.63
-428.19
-501.26
-563.96
-613.60
-651.98
-681.39
-704.81
-732.56
-771.87
-823.23
-872.10
-908.34
-925.58
-923.29
-903.26
-825.37
-673.93
-460.65
-267.93
-118.52
-10.67
79.87
164.42
248.97
334.26
409.39
462.38
484.72
481.67
455.68
410.42
351.25
289.06
236.64
199.23
178.55
173.19
185.16
207.54
229.59
239.98
232.32
204.44
153.60
80.48
-9.26
-100.63
-178.90
-231.10
-249.77
-233.60
-188.54
-127.33
-63.15
-5.08
45.57
90.10
130.71
168.35
202.79
232.21
253.09
261.88
256.39
237.91
210.59
181.52
158.76
148.88
154.23
172.05
195.77
217.77
232.01
235.28
227.02
208.29
180.95
147.29
109.81
70.65
30.70
-10.79
-55.22
-102.58
-149.56
-189.32
-213.64
-216.65
-197.93
-163.20
-122.09
-84.54
-57.40
-42.93
-39.17
-41.70
-45.61
-47.07
-44.05
-36.44
-25.44
-12.33
2.27
18.55
36.73
55.91
73.53
86.24
91.72
90.33
85.18
80.45
78.81
79.91
80.72
77.74
69.58
58.28
48.84
47.19
57.71
81.36
115.15
152.89
186.96
210.80
221.02
218.45
207.51
194.04
182.77
175.54
171.16
167.02
161.11
153.26
144.95
138.16
134.07
132.40
132.04
131.63
130.43
128.62
127.18
127.45
130.42
136.08
143.19
149.80
154.17
155.70
155.28
154.41
153.70
151.37
143.10
123.59
89.56
41.39
-16.80
-78.76
-138.84
-194.07
-244.83
-293.95
-345.17
-400.61
-461.16
-526.30
-593.82
-659.30
-716.17
-757.16
-776.49
-771.99
-743.02
-692.21
-624.08
-543.74
-455.83
-363.87
-271.05
-180.40
-94.51
-10.60
75.60
168.18
268.86
375.83
484.31
586.81
674.50
739.54
782.71
809.38
827.47
844.26
864.34
889.67
919.10
949.20
943.07
874.77
735.38
538.37
311.61
83.62
-124.33
-300.40
-440.13
-545.13
-616.14
-656.56
-671.98
-669.06
-657.56
-640.90
-620.45
-596.75
-570.24
-536.61
-491.58
-433.40
-364.45
-290.58
-218.32
-153.57
-99.54
-55.87
-18.37
19.54
63.51
115.62
173.63
232.38
284.32
321.61
338.32
335.53
320.34
303.24
294.29
299.79
320.94
353.55
390.57
414.19
411.65
378.12
317.65
240.24
157.22
78.22
9.70
-44.18
-80.11
-99.47
-104.71
-99.59
-89.51
-80.05
-75.25
-77.81
-88.58
-106.83
-130.11
-155.68
-181.20
-206.25
-230.99
-255.12
-278.19
-298.72
-314.66
-323.86
-325.21
-318.93
-308.18
-297.45
-284.67
-268.90
-249.26
-224.84
-194.79
-163.90
-131.58
-98.34
-66.64
-39.76
-19.63
-6.88
0.88
8.67
22.58
48.80
90.19
146.10
210.58
272.02
316.69
334.31
322.38
286.55
237.82
186.26
138.27
96.28
59.90
28.50
2.59
-16.69
-28.71
-33.11
-31.01
-23.63
-11.53
4.86
24.83
47.24
70.42
90.72
105.58
112.65
109.14
91.59
57.22
6.11
-57.08
-123.49
-182.45
-224.43
-243.99
-240.49
-217.17
-179.50
-133.95
-87.17
-45.39
-13.55
6.14
14.74
15.88
13.98
13.03
15.76
23.31
35.30
50.04
64.18
73.92
75.74
67.76
50.91
29.08
7.81
-7.69
-14.55
-12.97
-5.37
4.86
14.76
22.64
27.78
30.15
30.32
29.32
28.40
29.06
32.19
37.48
43.32
47.02
45.98
38.73
25.64
8.85
-7.65
-19.53
-23.85
-19.93
-9.91
2.10
11.06
12.44
3.57
-14.19
-35.60
-53.09
-59.11
-49.44
-24.62
10.06
48.15
80.36
100.75
109.83
113.72
121.43
137.63
162.14
190.93
218.22
238.66
250.05
253.52
250.38
243.82
236.39
228.67
218.84
203.75
180.82
150.67
117.35
86.54
63.63
51.25
49.41
56.25
69.11
84.83
99.84
109.73
109.27
94.26
62.69
15.91
-42.02
-105.97
-171.92
-237.93
-303.80
-369.35
-432.34
-487.86
-528.79
-548.11
-541.52
-509.41
-457.17
-394.00
-330.51
-275.91
-236.38
-214.30
-209.03
-218.30
-239.52
-270.33
-308.16
-349.22
-387.95
-417.80
-433.04
-430.84
-412.58
-382.96
-347.66
-310.86
-273.98
-236.38
-197.28
-157.39
-119.25
-85.85
-58.64
-36.44
-15.80
7.60
37.23
74.36
117.42
162.12
202.49
232.73
249.44
253.47
250.01
246.71
250.29
263.49
283.78
304.69
319.07
322.38
314.11
296.96
274.54
248.83
219.55
185.02
144.23
98.53
52.02
10.84
-18.92
-33.14
-31.09
-15.63
7.77
32.76
53.97
68.35
75.85
78.87
81.41
86.90
96.68
109.35
121.61
129.92
132.21
128.91
122.16
115.02
109.45
105.74
103.30
102.22
104.57
114.27
135.90
171.45
219.15
271.91
318.91
349.36
356.70
340.80
307.10
264.05
217.79
171.17
122.67
68.92
8.22
-57.17
-121.21
-176.56
-215.80
-237.48
-238.55
-217.38
-176.43
-123.02
-67.11
-17.61
19.57
49.65
75.54
100.39
126.53
154.41
183.08
210.79
235.82
249.32
245.62
220.60
174.53
111.31
36.12
-45.38
-129.00
-206.58
-270.35
-314.66
-339.50
-348.35
-346.55
-340.37
-334.48
-331.06
-329.05
-326.00
-318.66
-306.05
-293.33
-282.48
-276.17
-276.72
-285.50
-301.06
-319.04
-332.52
-334.39
-319.46
-285.75
-235.93
-175.82
-112.58
-49.90
9.70
65.79
119.60
172.37
220.80
258.94
288.39
308.45
312.60
297.80
265.68
224.16
184.98
160.72
160.46
182.16
216.76
250.87
273.77
281.63
278.23
268.16
251.68
223.76
177.71
110.31
25.85
-59.78
-135.10
-190.75
-222.56
-231.78
-223.47
-203.75
-177.54
-147.38
-113.33
-75.47
-33.82
7.06
41.61
64.97
74.62
71.44
59.20
43.31
28.06
16.20
7.82
1.63
-3.93
-9.35
-13.85
-16.12
-15.18
-11.49
-6.13
-0.69
3.62
5.98
5.94
3.30
-2.13
-10.26
-20.63
-31.93
-42.52
-50.70
-55.35
-55.99
-52.65
-45.71
-35.76
-23.84
-11.32
0.16
9.22
15.12
18.08
19.04
19.12
19.09
19.07
18.77
17.90
16.52
15.10
14.30
14.58
16.00
18.31
21.11
24.05
26.93
29.49
31.36
32.07
31.23
28.74
24.93
20.37
15.53
10.54
5.20
-0.70
-6.96
-12.71
-16.60
-17.40
-14.68
-9.17
-2.51
3.39
7.21
8.64
8.27
6.98
5.45
3.86
1.99
-0.49
-4.01
-9.08
-16.25
-25.70
-36.65
-46.98
-53.60
-53.67
-46.03
-32.09
-15.42
-0.26
10.42
16.03
18.13
19.11
20.60
22.69
24.14
23.48
20.09
14.62
8.72
4.12
1.86
1.86
3.13
4.30
4.37
3.14
1.24
-0.22
-0.31
1.33
4.25
7.55
10.30
12.01
12.78
13.12
13.55
14.30
15.29
16.27
17.20
18.35
20.19
23.14
27.13
31.50
35.18
37.19
37.06
35.16
32.43
29.97
28.59
28.42
28.98
29.33
28.47
25.63
20.54
13.61
6.00
-0.56
-4.19
-3.38
2.55
13.35
28.17
46.07
66.29
88.10
110.26
130.57
145.86
152.88
149.70
136.72
116.92
94.85
74.96
60.20
51.12
46.22
42.96
39.35
35.12
32.09
33.30
41.48
57.64
80.18
105.37
128.55
145.49
153.47
151.73
141.56
126.24
110.89
101.76
104.66
122.54
153.50
190.60
224.19
245.60
250.46
239.82
218.50
192.08
164.23
135.85
106.23
74.90
42.94
12.63
-13.91
-36.31
-56.56
-78.30
-105.23
-139.31
-179.98
-224.40
-268.70
-309.51
-345.33
-376.77
-406.07
-435.92
-468.59
-505.58
-547.28
-592.59
-638.28
-678.58
-705.79
-712.19
-692.60
-646.40
-577.90
-494.61
-404.47
-313.43
-224.34
-137.50
-51.97
32.99
116.82
197.45
271.53
335.36
386.16
423.16
447.67
461.95
467.26
463.14
448.19
422.41
389.01
354.18
324.14
301.45
283.28
263.07
234.85
197.33
154.91
115.19
84.73
66.21
58.22
57.64
62.14
71.02
83.96
99.19
112.74
119.76
116.97
104.71
86.86
68.95
55.29
47.02
42.16
37.08
28.64
15.72
-0.76
-19.00
-37.76
-57.32
-79.16
-104.79
-134.41
-166.17
-196.32
-220.45
-234.94
-237.89
-229.43
-211.27
-186.26
-157.93
-130.32
-107.78
-94.39
-93.12
-105.26
-130.29
-166.28
-210.19
-257.82
-303.55
-340.33
-360.68
-358.68
-331.99
-282.72
-216.35
-139.35
-57.22
25.71
104.66
172.62
220.82
241.80
233.56
202.27
161.19
126.03
109.10
115.20
141.23
178.84
218.80
254.14
281.11
298.23
304.81
300.13
283.59
255.49
217.70
173.87
128.80
87.60
54.53
32.06
20.44
18.09
22.44
30.82
40.92
50.51
57.15
58.16
51.53
37.22
18.09
-0.51
-12.54
-13.59
-2.63
17.83
43.04
67.95
88.74
103.15
110.11
108.96
99.22
80.97
55.47
25.62
-4.26
-29.31
-45.44
-50.61
-45.45
-33.02
-17.67
-3.73
5.56
8.41
4.34
-6.01
-21.04
-37.88
-52.72
-61.75
-62.93
-57.44
-50.24
-48.71
-59.75
-86.79
-128.48
-179.74
-234.37
-287.38
-335.74
-377.12
-408.20
-423.84
-418.16
-386.85
-329.41
-250.17
-157.71
-63.02
22.53
89.32
131.05
145.76
135.85
106.92
65.40
16.49
-36.88
-92.94
-149.31
-201.74
-244.91
-274.13
-287.25
-284.85
-269.05
-241.95
-205.48
-162.62
-118.48
-79.69
-51.79
-35.98
-27.59
-17.86
1.77
35.19
79.74
127.94
171.51
205.09
227.50
240.56
246.69
247.22
242.56
233.75
223.57
216.44
216.65
226.20
243.64
264.31
282.30
292.76
293.67
286.18
273.74
260.73
251.06
247.40
250.68
260.01
272.79
285.18
293.02
292.89
283.15
264.16
237.95
207.12
173.98
139.95
105.77
71.89
38.83
7.10
-23.12
-52.27
-81.41
-111.71
-143.93
-177.98
-212.97
-247.59
-280.70
-311.90
-341.75
-371.75
-404.02
-440.61
-482.47
-528.52
-575.34
-617.95
-651.42
-672.65
-681.23
-679.00
-668.77
-652.77
-632.09
-606.80
-576.71
-541.87
-502.68
-459.66
-413.46
-365.29
-317.37
-272.86
-234.93
-205.33
-183.30
-166.04
-150.22
-133.88
-117.42
-103.26
-94.11
-91.23
-93.75
-99.18
-104.75
-108.73
-110.71
-110.96
-109.47
-105.56
-98.20
-86.90
-72.38
-56.43
-41.06
-27.51
-15.78
-4.93
6.17
18.22
31.35
45.38
60.25
76.11
93.16
111.32
130.06
148.50
165.80
181.59
196.14
210.28
225.23
242.37
262.79
286.68
312.68
337.56
356.72
365.68
361.98
346.43
323.22
298.29
277.20
263.21
256.69
255.67
257.12
257.90
255.40
247.76
234.02
214.40
190.45
164.68
139.72
117.43
98.44
82.37
68.46
56.21
45.50
36.22
27.90
19.64
10.46
-0.12
-11.62
-22.69
-31.61
-36.81
-37.38
-33.32
-25.38
-14.78
-2.83
9.40
21.21
32.22
42.18
50.76
57.47
61.70
63.03
61.42
57.38
51.87
46.00
40.74
36.69
34.08
32.91
33.10
34.51
37.01
40.41
44.46
48.81
52.96
56.25
57.96
57.53
54.82
50.34
45.15
40.48
37.19
35.38
34.31
32.82
29.93
25.40
19.81
14.31
10.08
7.78
7.41
8.38
9.82
10.92
11.08
9.93
7.37
3.56
-0.92
-5.03
-7.42
-6.77
-2.30
5.84
16.39
27.24
35.99
40.71
40.58
36.06
28.64
20.17
12.20
5.52
0.25
-3.79
-6.69
-8.27
-8.17
-6.21
-2.65
1.80
6.34
10.41
14.00
17.52
21.46
26.02
30.86
35.25
38.29
39.43
38.64
36.46
33.71
31.21
29.38
28.19
27.31
26.41
25.45
24.72
24.76
26.00
28.49
31.86
35.38
38.26
39.92
40.10
38.95
36.82
34.19
31.47
28.89
26.51
24.27
22.04
19.79
17.54
15.44
13.64
12.24
11.20
10.34
9.41
8.16
6.51
4.51
2.30
-0.03
-2.51
-5.35
-8.69
-12.50
-16.42
-19.89
-22.46
-23.98
-24.78
-25.51
-26.87
-29.26
-32.79
-37.27
-42.31
-47.50
-52.36
-56.36
-58.98
-59.76
-58.41
-54.83
-49.07
-41.28
-31.70
-20.61
-8.52
3.78
15.31
25.04
32.11
36.09
37.09
35.69
32.81
29.36
26.14
23.64
22.08
21.49
21.78
22.76
24.22
25.92
27.57
28.95
29.88
30.30
30.28
29.95
29.49
29.05
28.67
28.29
27.76
26.97
25.88
24.64
23.39
22.19
20.87
19.10
16.63
13.54
10.33
7.77
6.62
7.18
9.16
11.78
14.08
15.23
14.80
12.64
8.86
3.75
-2.27
-8.52
-14.25
-18.81
-21.99
-24.22
-26.40
-29.58
-34.37
-40.61
-47.31
-53.04
-56.40
-56.58
-53.58
-48.14
-41.37
-34.34
-27.71
-21.62
-15.80
-9.83
-3.48
3.18
9.69
15.43
19.81
22.59
24.02
24.82
25.94
28.17
31.89
36.81
42.19
47.05
50.62
52.58
53.01
52.23
50.50
47.92
44.41
39.96
34.72
29.10
23.63
18.73
14.53
10.94
7.75
4.84
2.27
0.32
-0.73
-0.77
0.08
1.47
3.01
4.39
5.52
6.48
7.37
8.16
8.69
8.71
8.07
6.83
5.27
3.79
2.74
2.23
2.05
1.67
0.40
-2.41
-7.12
-13.58
-21.15
-28.89
-35.90
-41.63
-46.05
-49.44
-52.02
-53.68
-53.95
-52.27
-48.39
-42.67
-36.02
-29.52
-23.99
-19.77
-16.77
-14.65
-12.94
-11.06
-8.35
-4.20
1.73
9.17
17.22
24.65
30.39
34.06
36.06
37.42
39.11
41.68
44.98
48.42
51.36
53.51
54.98
56.17
57.51
59.25
61.28
63.23
64.64
65.16
64.71
63.50
61.91
60.38
59.27
58.88
59.45
61.16
63.91
66.96
68.81
67.29
60.22
46.19
25.45
0.01
-26.67
-50.80
-69.38
-81.05
-86.28
-86.93
-85.44
-83.91
-83.63
-85.02
-87.85
-91.66
-95.99
-100.53
-104.90
-108.60
-111.05
-111.78
-110.79
-108.63
-106.29
-104.76
-104.51
-105.23
-105.92
-105.33
-102.52
-97.18
-89.70
-80.89
-71.58
-62.29
-53.01
-43.40
-33.00
-21.49
-8.90
4.46
18.18
31.91
45.48
58.90
72.31
85.88
99.74
113.99
128.62
143.38
157.67
170.51
180.93
188.29
192.66
194.78
195.57
195.66
194.95
192.79
188.56
182.34
175.23
169.04
165.58
165.83
169.51
175.18
180.84
184.70
185.65
183.45
178.57
171.85
164.18
156.33
148.88
142.01
135.34
127.79
117.70
103.34
83.64
58.86
30.57
0.96
-28.48
-57.95
-89.43
-125.41
-167.00
-212.41
-256.80
-293.88
-318.32
-327.89
-324.16
-311.68
-295.94
-281.43
-270.52
-263.30
-258.31
-253.49
-247.05
-237.90
-225.91
-212.01
-197.92
-185.89
-178.29
-177.27
-184.07
-198.39
-217.73
-237.09
-249.71
-248.64
-229.02
-189.97
-135.38
-72.96
-11.83
40.17
78.68
103.29
116.64
122.54
124.18
123.13
119.50
112.82
102.89
90.43
76.98
64.48
54.54
48.21
45.98
47.86
53.46
61.83
71.30
79.46
83.50
80.91
70.19
51.42
26.24
-2.55
-31.79
-58.66
-81.16
-98.17
-109.21
-114.19
-113.18
-106.38
-94.28
-77.79
-58.31
-37.65
-17.69
0.01
14.45
25.36
32.97
37.86
40.66
42.00
42.56
43.14
44.57
47.49
52.10
58.02
64.33
69.91
73.77
75.36
74.54
71.52
66.69
60.60
53.85
47.06
40.84
35.59
31.49
28.48
26.44
25.23
24.81
25.26
26.80
29.75
34.46
41.16
49.70
59.45
69.43
78.42
85.35
89.57
90.99
89.93
86.94
82.48
76.86
70.40
63.48
56.63
50.34
44.79
39.62
33.86
26.18
15.52
1.84
-13.88
-30.06
-45.21
-58.45
-69.67
-79.02
-86.45
-91.46
-92.65
-89.16
-81.40
-71.17
-60.97
-52.76
-47.06
-42.96
-38.93
-32.24
-21.23
-5.76
12.77
32.22
50.71
67.17
81.31
93.23
105.36
119.80
137.51
157.68
178.10
196.36
210.98
221.74
229.59
239.01
254.11
276.98
306.58
339.19
370.09
395.21
411.81
400.81
350.66
260.54
143.41
20.83
-87.41
-170.52
-227.30
-262.83
-284.35
-295.43
-297.83
-292.44
-280.77
-265.35
-248.94
-233.64
-220.43
-209.46
-198.24
-184.46
-167.15
-147.49
-128.20
-112.02
-100.39
-93.09
-88.79
-84.72
-78.99
-71.27
-62.81
-55.34
-49.98
-46.68
-44.52
-42.52
-39.56
-35.23
-29.54
-23.46
-17.91
-13.43
-10.14
-7.95
-6.83
-6.81
-8.05
-10.78
-14.86
-19.61
-23.98
-27.05
-28.35
-28.04
-26.69
-24.86
-22.83
-20.64
-18.24
-15.84
-14.04
-13.47
-14.40
-16.40
-18.46
-19.37
-18.29
-15.14
-10.63
-6.16
-3.16
-2.68
-5.09
-10.14
-17.03
-24.67
-32.00
-37.29
-39.49
-38.32
-34.57
-29.85
-26.16
-25.22
-27.82
-33.60
-41.26
-49.20
-56.04
-61.06
-64.32
-66.53
-68.61
-71.22
-74.44
-77.70
-80.11
-80.89
-79.68
-76.68
-72.48
-67.65
-62.54
-57.14
-51.23
-44.64
-37.14
-28.49
-18.42
-6.91
5.60
18.12
29.40
38.40
44.78
48.99
51.98
54.66
57.59
60.87
64.43
68.08
71.56
74.44
76.05
75.75
73.35
69.42
65.32
62.65
62.54
65.13
69.53
74.32
78.07
79.84
79.28
76.44
71.60
65.13
57.61
49.86
42.75
37.03
32.98
30.40
28.74
27.50
26.50
25.84
25.76
26.35
27.54
28.98
30.37
31.49
32.32
32.93
33.38
33.63
33.51
32.74
30.94
27.77
23.05
16.95
10.03
3.06
-3.10
-7.80
-10.70
-11.87
-11.71
-10.96
-10.47
-11.08
-13.20
-16.76
-21.14
-25.42
-28.71
-30.51
-30.79
-29.96
-28.62
-27.33
-26.47
-26.23
-26.64
-27.59
-28.83
-30.01
-30.74
-30.71
-29.78
-28.04
-25.76
-23.30
-21.09
-19.45
-18.58
-18.47
-18.88
-19.46
-19.83
-19.69
-18.86
-17.27
-14.88
-11.68
-7.64
-2.84
2.50
8.04
13.34
18.02
21.74
24.35
25.81
26.27
26.06
25.58
25.15
24.96
25.00
25.12
25.19
25.13
24.94
24.53
23.73
22.35
20.32
17.83
15.22
12.79
10.62
8.49
6.14
3.49
0.77
-1.57
-3.14
-3.92
-4.24
-4.63
-5.45
-6.63
-7.80
-8.45
-8.33
-7.57
-6.60
-5.84
-5.53
-5.66
-6.05
-6.52
-6.98
-7.43
-7.93
-8.48
-9.06
-9.66
-10.34
-11.18
-12.23
-13.36
-14.31
-14.81
-14.73
-14.28
-13.97
-14.43
-16.02
-18.61
-21.47
-23.50
-23.68
-21.45
-17.06
-11.35
-5.53
-0.68
2.56
4.07
4.22
3.57
2.70
2.06
1.83
1.96
2.28
2.58
2.72
2.73
2.77
2.98
3.44
4.12
4.88
5.67
6.49
7.38
8.32
9.14
9.56
9.33
8.42
7.12
5.87
5.11
5.04
5.55
6.36
7.07
7.38
7.13
6.30
4.92
3.13
1.11
-0.86
-2.56
-3.84
-4.70
-5.37
-6.04
-6.94
-8.15
-9.63
-11.29
-13.03
-14.84
-16.76
-18.89
-21.22
-23.61
-25.78
-27.32
-27.88
-27.25
-25.46
-22.74
-19.55
-16.46
-14.11
-13.08
-13.87
-16.69
-21.37
-27.27
-33.24
-37.85
-39.81
-38.36
-33.61
-26.47
-18.33
-10.49
-3.74
1.81
6.50
10.72
14.57
17.83
20.23
21.68
22.50
23.18
24.17
25.46
26.64
27.07
26.35
24.57
22.39
20.66
20.00
20.37
21.18
21.50
20.64
18.37
15.06
11.32
7.66
4.23
0.86
-2.67
-6.42
-10.08
-13.19
-15.33
-16.37
-16.58
-16.44
-16.33
-16.39
-16.42
-16.09
-15.21
-13.84
-12.35
-11.22
-10.77
-11.05
-11.82
-12.61
-13.01
-12.80
-11.99
-10.80
-9.54
-8.43
-7.61
-7.09
-6.84
-6.88
-7.26
-8.07
-9.36
-11.06
-13.03
-15.14
-17.39
-19.95
-23.10
-27.00
-31.48
-35.95
-39.36
-40.56
-38.63
-33.24
-24.81
-14.46
-3.64
6.27
14.33
20.20
24.07
26.44
27.89
28.93
29.92
31.08
32.53
34.35
36.53
38.91
41.19
42.98
43.99
44.22
44.04
44.06
44.77
46.16
47.64
48.18
46.79
43.05
37.24
30.23
22.95
15.93
9.23
2.67
-3.67
-9.25
-13.19
-14.77
-13.84
-11.01
-7.35
-3.88
-1.31
0.17
0.57
-0.08
-1.86
-4.83
-8.74
-13.07
-17.12
-20.30
-22.42
-23.74
-24.75
-26.05
-28.00
-30.68
-33.90
-37.26
-40.33
-42.75
-44.34
-45.07
-45.08
-44.51
-43.56
-42.41
-41.27
-40.41
-40.10
-40.57
-41.90
-43.88
-46.08
-47.81
-48.37
-47.17
-43.98
-38.99
-32.83
-26.42
-20.84
-17.05
-15.65
-16.74
-19.79
-23.82
-27.75
-30.74
-32.48
-33.21
-33.47
-33.86
-34.80
-36.50
-39.01
-41.95
-44.20
-43.80
-38.38
-26.15
-6.97
17.11
42.34
64.63
81.12
91.13
96.06
98.39
100.39
103.28
107.21
111.95
117.67
125.43
137.00
154.04
177.02
204.39
232.61
257.00
273.47
279.86
276.55
265.78
250.21
231.69
210.88
187.82
162.94
137.66
114.03
93.89
77.97
65.66
55.47
45.95
36.30
26.46
16.89
8.09
0.43
-5.80
-10.33
-13.02
-13.94
-13.65
-13.09
-13.41
-15.59
-20.06
-26.56
-34.20
-41.74
-47.91
-51.91
-53.47
-52.93
-51.02
-48.61
-46.66
-46.18
-48.19
-53.53
-62.54
-74.70
-88.56
-102.13
-113.49
-121.47
-125.97
-127.69
-127.61
-126.40
-124.22
-120.84
-116.06
-110.04
-103.39
-96.97
-91.50
-87.37
-84.49
-82.45
-80.82
-79.38
-78.20
-77.59
-77.92
-79.52
-82.58
-87.21
-93.40
-100.95
-109.40
-117.94
-125.68
-131.91
-136.53
-140.10
-143.61
-147.89
-152.98
-157.99
-161.37
-161.61
-158.01
-150.90
-141.37
-130.60
-119.30
-107.44
-94.58
-80.53
-65.75
-51.53
-39.62
-31.58
-28.12
-28.70
-31.55
-34.11
-33.75
-28.56
-17.96
-2.77
15.16
33.72
51.23
66.81
80.20
91.39
100.12
105.88
108.17
106.96
103.07
97.93
93.20
90.04
88.81
89.11
90.20
91.47
92.72
94.06
95.70
97.72
100.01
102.40
104.75
106.90
108.57
109.23
108.17
104.79
98.85
90.65
80.87
70.40
59.93
49.91
40.45
31.46
22.73
13.98
5.08
-3.95
-12.80
-20.85
-27.48
-32.20
-34.91
-35.90
-35.63
-34.49
-32.76
-30.59
-28.19
-25.91
-24.16
-23.22
-22.95
-22.77
-21.91
-19.80
-16.59
-13.09
-10.66
-10.59
-13.61
-19.64
-27.68
-36.05
-42.75
-45.95
-44.39
-37.79
-26.84
-13.00
2.01
16.83
30.73
43.62
55.66
66.92
77.03
85.33
90.98
93.14
91.14
84.46
73.00
57.22
38.42
18.39
-1.09
-18.99
-35.42
-51.37
-67.96
-85.64
-103.77
-120.84
-135.18
-145.67
-152.25
-155.99
-158.73
-162.51
-168.92
-178.38
-189.87
-201.00
-208.73
-210.49
-205.10
-193.14
-176.60
-157.85
-138.81
-120.48
-103.01
-86.13
-69.48
-52.70
-35.52
-17.80
0.29
18.10
34.59
48.64
59.56
67.42
73.09
77.94
83.28
89.92
98.00
107.04
116.19
124.61
131.61
136.76
139.83
140.65
139.16
135.40
129.71
122.66
115.01
107.47
100.47
94.07
88.00
81.88
75.45
68.85
62.62
57.48
53.95
52.02
51.03
49.94
47.85
44.42
39.97
35.23
30.85
27.05
23.60
20.12
16.44
12.75
9.38
6.49
3.85
1.02
-2.24
-5.69
-8.49
-9.63
-8.38
-4.73
0.66
6.68
12.30
16.83
20.07
22.06
22.90
22.52
20.72
17.37
12.62
7.04
1.52
-2.92
-5.48
-5.84
-4.26
-1.45
1.72
4.53
6.65
8.15
9.31
10.41
11.55
12.68
13.65
14.30
14.59
14.53
14.16
13.67
13.38
13.66
14.85
16.98
19.71
22.40
24.37
25.25
25.07
24.19
23.09
22.11
21.36
20.77
20.18
19.43
18.24
16.26
13.15
8.74
3.22
-2.91
-8.94
-14.22
-18.31
-20.97
-22.08
-21.65
-19.76
-16.70
-12.93
-9.05
-5.58
-2.85
-0.94
0.15
0.47
0.09
-0.93
-2.47
-4.38
-6.62
-9.26
-12.42
-16.05
-19.80
-23.02
-24.95
-25.06
-23.26
-19.95
-15.89
-11.91
-8.69
-6.60
-5.72
-5.83
-6.49
-7.19
-7.52
-7.32
-6.82
-6.45
-6.70
-7.79
-9.55
-11.40
-12.64
-12.66
-11.13
-8.08
-3.75
1.55
7.51
13.72
19.62
24.52
27.71
28.78
27.81
25.37
22.31
19.45
17.33
16.12
15.76
16.08
16.79
17.56
17.88
17.22
15.21
11.86
7.63
3.31
-0.39
-3.13
-4.95
-6.14
-6.97
-7.51
-7.70
-7.50
-6.99
-6.37
-5.80
-5.28
-4.74
-4.17
-3.66
-3.48
-3.75
-4.37
-4.93
-4.93
-4.03
-2.32
-0.32
1.18
1.36
-0.38
-4.30
-10.19
-17.37
-24.71
-30.94
-34.95
-36.16
-34.71
-31.25
-26.65
-21.67
-16.79
-12.20
-8.00
-4.28
-1.17
1.22
2.91
4.02
4.77
5.43
6.26
7.55
9.50
12.18
15.39
18.67
21.45
23.26
23.92
23.59
22.69
21.56
20.42
19.22
17.83
16.22
14.58
13.26
12.64
12.84
13.71
14.83
15.70
16.03
15.73
15.00
14.17
13.53
13.19
12.97
12.50
11.39
9.43
6.76
3.85
1.32
-0.43
-1.40
-2.09
-3.30
-5.70
-9.58
-14.68
-20.40
-26.07
-31.11
-35.15
-37.93
-39.23
-38.94
-37.16
-34.29
-31.03
-28.15
-26.14
-25.02
-24.31
-23.24
-21.23
-18.21
-14.69
-11.54
-9.58
-9.13
-9.90
-11.12
-11.90
-11.64
-10.22
-7.90
-5.17
-2.52
-0.44
0.83
1.44
2.21
4.60
10.42
21.06
36.77
56.17
76.42
93.98
105.69
109.65
105.65
95.01
80.00
63.06
46.22
30.79
17.44
6.43
-2.12
-8.10
-11.56
-12.86
-12.84
-12.56
-12.82
-13.86
-15.24
-16.25
-16.49
-16.30
-16.61
-18.46
-22.38
-28.02
-34.37
-40.30
-45.07
-48.52
-50.88
-52.35
-52.88
-52.14
-49.83
-46.01
-41.16
-36.01
-31.19
-26.95
-23.12
-19.34
-15.34
-11.13
-7.06
-3.62
-1.15
0.33
1.09
1.52
1.97
2.59
3.39
4.30
5.31
6.54
8.12
10.13
12.60
15.45
18.64
22.17
25.97
29.89
33.63
36.81
39.27
41.13
42.78
44.76
47.27
49.97
51.97
52.23
50.23
46.43
42.29
39.66
39.98
43.53
49.23
55.14
59.14
59.83
56.88
51.03
43.58
35.84
28.67
22.33
16.72
11.58
6.81
2.58
-0.81
-3.11
-4.29
-4.65
-4.64
-4.60
-4.70
-4.90
-5.24
-5.94
-7.34
-9.79
-13.29
-17.48
-21.81
-25.73
-28.99
-31.64
-33.93
-36.00
-37.67
-38.44
-37.66
-34.84
-30.01
-23.70
-16.84
-10.42
-5.23
-1.46
1.30
4.08
8.26
15.46
27.42
45.75
71.27
103.18
138.43
172.04
198.41
213.25
215.13
205.90
189.59
170.70
152.54
136.63
123.21
112.21
103.87
98.74
97.10
98.44
101.46
104.61
106.71
107.26
106.51
105.05
103.46
101.98
100.39
98.11
94.49
89.18
82.38
74.83
67.51
61.07
55.50
50.04
43.57
35.15
24.40
11.60
-2.57
-17.38
-32.24
-46.82
-60.94
-74.49
-87.46
-100.03
-112.45
-124.94
-137.59
-150.13
-162.09
-172.94
-182.16
-189.29
-193.92
-195.65
-194.27
-190.00
-183.73
-176.93
-171.21
-167.76
-166.91
-168.07
-170.11
-171.93
-172.82
-172.64
-171.53
-169.75
-167.45
-164.70
-161.61
-158.35
-155.07
-151.78
-148.21
-143.98
-138.71
-132.16
-124.35
-115.38
-105.53
-95.19
-84.88
-75.11
-66.21
-58.14
-50.57
-42.97
-34.85
-25.92
-16.12
-5.48
5.96
18.07
30.62
43.17
55.13
65.91
75.14
82.56
87.92
90.73
90.35
86.24
78.39
67.54
55.00
42.08
29.48
17.07
4.19
-9.67
-24.30
-38.58
-51.02
-60.30
-65.79
-67.60
-66.14
-61.89
-55.17
-46.44
-36.55
-26.75
-18.44
-12.53
-9.20
-7.85
-7.59
-7.80
-8.31
-9.35
-11.11
-13.43
-15.74
-17.35
-17.71
-16.65
-14.33
-11.00
-6.83
-1.80
4.17
10.98
18.26
25.50
32.02
37.24
40.77
42.53
43.06
43.50
45.42
50.22
58.59
69.96
82.66
94.42
103.10
107.29
106.38
100.22
88.89
72.59
51.95
28.36
4.00
-18.65
-37.54
-51.77
-61.66
-68.42
-73.46
-77.84
-81.83
-85.02
-86.50
-85.28
-80.61
-72.20
-60.44
-46.37
-31.46
-17.37
-5.60
2.73
6.95
6.89
2.77
-4.67
-14.38
-25.00
-35.22
-44.10
-51.15
-56.26
-59.39
-60.36
-58.85
-54.55
-47.59
-38.61
-28.80
-19.45
-11.52
-5.33
-0.65
3.03
6.07
8.42
9.74
9.60
7.91
5.00
1.65
-1.31
-3.31
-4.33
-4.90
-5.86
-8.05
-11.84
-17.07
-23.04
-28.77
-33.25
-35.66
-35.41
-32.17
-25.86
-16.78
-5.68
6.21
17.45
26.85
33.97
39.34
44.16
49.55
55.97
62.88
69.08
73.38
75.22
74.91
73.27
71.10
68.60
65.44
61.03
55.13
48.11
40.83
34.28
28.99
24.92
21.55
18.25
14.68
11.04
7.80
5.53
4.44
4.28
4.43
4.19
3.03
0.83
-2.21
-5.62
-8.96
-11.85
-14.14
-15.89
-17.40
-19.02
-21.11
-23.81
-26.99
-30.33
-33.46
-36.12
-38.26
-40.08
-41.96
-44.29
-47.29
-50.80
-54.17
-56.46
-56.72
-54.32
-49.14
-41.58
-32.26
-21.89
-11.13
-0.63
8.90
16.79
22.57
26.18
28.00
28.61
28.49
27.73
26.10
23.30
19.31
14.58
9.82
5.80
2.94
1.30
0.57
0.45
0.78
1.59
2.95
4.63
6.07
6.48
5.30
2.55
-1.03
-4.29
-6.33
-6.98
-7.08
-8.07
-11.32
-17.39
-25.81
-35.20
-43.76
-49.71
-51.62
-48.52
-40.04
-26.62
-9.74
8.21
24.53
37.08
45.27
50.37
54.98
61.85
72.46
86.31
101.23
114.32
123.30
127.09
125.92
120.63
112.14
101.17
88.40
74.77
61.50
49.74
40.12
32.36
25.36
17.79
8.66
-2.26
-14.31
-26.22
-36.35
-43.02
-44.83
-41.10
-32.10
-19.10
-4.15
10.62
23.49
33.64
41.05
46.16
49.57
51.68
52.76
53.03
52.89
52.93
53.87
56.26
60.34
65.86
72.21
78.73
85.11
91.86
100.28
111.98
127.97
147.81
169.27
188.76
202.44
207.58
203.52
191.90
176.13
160.19
147.64
140.83
140.73
146.98
158.03
171.31
183.36
190.54
189.82
179.76
160.93
135.56
106.54
76.21
45.79
15.43
-15.00
-45.20
-74.24
-100.89
-124.23
-143.84
-159.60
-171.17
-177.81
-178.65
-173.41
-163.03
-149.84
-136.96
-127.36
-123.00
-124.33
-130.62
-140.59
-153.09
-167.60
-184.01
-202.28
-221.71
-240.82
-257.50
-269.59
-275.65
-275.33
-269.45
-259.56
-247.42
-234.47
-221.74
-209.86
-199.27
-190.37
-183.50
-178.80
-175.99
-174.29
-172.43
-168.91
-162.33
-151.83
-137.36
-119.72
-100.31
-80.73
-62.28
-45.72
-31.28
-18.83
-8.10
1.17
9.29
16.71
24.03
31.73
39.97
48.42
56.41
63.29
68.86
73.64
78.60
84.73
92.51
101.54
110.68
118.46
123.60
125.44
123.96
119.54
112.56
103.19
91.34
76.99
60.54
42.83
24.88
7.44
-9.37
-25.99
-42.90
-60.17
-77.07
-92.31
-104.47
-112.52
-115.97
-114.85
-109.45
-100.08
-87.17
-71.34
-53.55
-34.94
-16.74
-0.12
13.87
24.36
30.67
32.56
30.39
25.31
19.03
13.47
10.18
9.83
12.04
15.52
18.64
20.18
19.96
19.07
19.42
22.77
29.77
39.31
48.77
54.94
55.24
48.70
36.36
21.17
7.52
0.52
4.73
22.79
53.98
93.52
133.39
164.55
179.98
177.02
158.11
129.59
99.35
74.23
58.46
53.17
56.88
66.48
78.19
88.33
93.79
92.48
83.52
67.45
46.14
22.56
0.15
-18.04
-30.29
-36.81
-39.60
-41.48
-44.77
-50.19
-56.81
-62.84
-66.88
-68.94
-70.47
-73.67
-80.34
-91.01
-104.59
-118.55
-129.48
-133.73
-128.20
-111.10
-82.80
-46.26
-6.59
30.19
59.00
77.20
85.26
85.93
82.77
78.53
74.25
69.49
63.24
55.01
45.31
35.50
27.06
20.96
17.19
15.01
13.41
11.54
9.00
5.84
2.49
-0.37
-1.68
-0.27
4.72
13.11
23.14
31.66
35.08
30.80
18.49
0.10
-20.88
-41.04
-58.24
-71.96
-82.55
-90.25
-94.48
-93.94
-87.27
-73.75
-53.72
-28.37
0.33
29.87
57.23
79.09
92.52
95.67
88.55
73.11
52.82
31.69
13.26
-0.08
-7.33
-8.71
-5.43
0.79
8.14
15.35
22.23
29.66
39.12
51.70
67.10
83.29
97.02
105.13
106.02
100.39
90.85
80.55
71.58
64.17
56.97
48.36
37.66
25.75
14.44
5.50
-0.25
-3.11
-4.07
-4.09
-3.79
-3.40
-3.18
-3.66
-5.62
-9.72
-16.28
-24.99
-34.98
-45.10
-54.22
-61.49
-66.60
-69.72
-71.51
-72.84
-74.60
-77.45
-81.61
-86.86
-92.51
-97.42
-100.25
-99.69
-94.75
-85.00
-70.75
-52.97
-33.25
-13.44
4.61
19.42
30.09
36.46
39.02
38.77
36.98
35.04
34.32
35.93
40.52
48.05
57.72
68.18
78.00
86.16
92.44
97.31
101.69
106.40
111.82
117.83
124.00
129.97
135.60
140.97
146.11
150.69
154.09
155.68
155.22
153.35
151.54
151.82
156.11
165.51
179.89
197.75
216.50
232.96
244.12
247.71
242.61
228.92
207.71
180.46
148.74
114.07
78.15
43.13
11.64
-13.67
-30.96
-39.91
-41.96
-39.81
-36.31
-33.47
-31.78
-30.48
-28.31
-24.37
-18.83
-12.85
-8.13
-6.33
-8.61
-15.52
-27.09
-42.91
-62.20
-83.76
-106.20
-128.28
-149.26
-169.07
-188.00
-206.21
-223.19
-237.63
-247.81
-252.39
-251.11
-244.99
-236.02
-226.31
-217.36
-209.79
-203.52
-198.25
-193.93
-190.79
-189.03
-188.41
-188.19
-187.34
-185.09
-181.35
-176.80
-172.59
-169.85
-169.26
-170.93
-174.55
-179.56
-185.30
-191.18
-196.80
-202.09
-207.52
-213.94
-222.24
-232.70
-244.45
-255.49
-263.17
-265.17
-260.34
-249.03
-232.79
-213.62
-193.21
-172.48
-151.79
-131.44
-112.08
-94.79
-80.55
-69.62
-61.05
-52.87
-42.82
-29.27
-12.03
7.58
27.40
45.24
59.86
71.43
81.15
90.81
102.22
116.93
135.77
158.25
181.83
201.73
211.85
206.85
184.59
147.66
102.97
59.38
24.59
2.69
-6.15
-4.40
5.04
20.25
40.30
64.34
90.48
115.73
136.81
151.45
159.28
161.66
161.08
159.65
158.24
156.37
152.64
145.68
135.01
121.36
106.52
92.56
81.04
72.50
66.40
61.57
56.89
51.79
46.42
41.39
37.34
34.53
32.77
31.55
30.31
28.70
26.60
24.04
21.09
17.74
13.85
9.20
3.62
-2.88
-9.89
-16.58
-21.70
-23.86
-21.89
-15.22
-4.15
10.14
25.88
41.18
54.48
64.95
72.56
77.90
81.76
84.67
86.76
87.72
87.11
84.83
81.25
77.26
73.88
71.91
71.57
72.52
74.09
75.68
76.95
77.91
78.66
79.13
78.95
77.51
74.29
69.14
62.49
55.25
48.38
42.56
37.94
34.22
30.97
27.68
23.94
19.24
12.98
4.76
-5.35
-16.45
-26.93
-35.03
-39.57
-40.54
-39.08
-36.89
-35.47
-35.54
-37.00
-39.39
-42.36
-45.90
-49.94
-54.02
-56.88
-56.76
-52.01
-41.95
-27.32
-10.07
7.24
22.45
34.39
43.00
49.04
53.38
56.58
58.70
59.51
58.82
56.81
54.03
51.26
49.24
48.38
48.69
49.85
51.37
52.78
53.72
54.02
53.65
52.71
51.31
49.52
47.25
44.33
40.51
35.75
30.27
24.64
19.54
15.59
13.14
12.18
12.46
13.62
15.29
17.13
18.81
20.05
20.65
20.61
20.05
19.17
17.97
16.02
12.52
6.57
-2.31
-13.74
-26.31
-37.94
-46.56
-50.84
-50.72
-47.29
-42.34
-37.63
-34.41
-33.18
-33.87
-36.06
-39.27
-42.95
-46.50
-49.40
-51.31
-52.30
-52.89
-53.83
-55.77
-58.81
-62.37
-65.18
-65.78
-62.90
-55.91
-45.04
-31.33
-16.38
-1.93
10.53
20.23
27.09
31.66
34.71
36.87
38.41
39.27
39.36
38.78
37.90
37.25
37.33
38.34
40.21
42.67
45.40
48.11
50.62
52.81
54.67
56.30
57.80
59.23
60.45
61.19
61.16
60.26
58.67
56.81
55.15
54.07
53.67
53.84
54.41
55.18
55.97
56.50
56.30
54.83
51.65
46.66
40.14
32.56
24.38
15.79
6.68
-3.10
-13.50
-24.08
-33.97
-42.26
-48.25
-51.88
-53.67
-54.55
-55.37
-56.59
-58.12
-59.49
-60.23
-60.16
-59.58
-59.11
-59.37
-60.72
-63.04
-65.90
-68.68
-70.78
-71.72
-71.08
-68.46
-63.50
-56.04
-46.28
-34.85
-22.74
-11.02
-0.58
8.07
14.81
19.70
22.90
24.55
24.93
24.47
23.74
23.31
23.54
24.45
25.75
27.06
28.08
28.71
29.06
29.27
29.43
29.51
29.46
29.22
28.82
28.28
27.58
26.69
25.59
24.27
22.80
21.28
19.77
18.25
16.63
14.85
12.94
11.14
9.78
9.09
9.07
9.40
9.57
9.11
7.87
6.07
4.17
2.57
1.42
0.55
-0.38
-1.68
-3.48
-5.71
-8.30
-11.24
-14.68
-18.84
-23.82
-29.44
-35.33
-41.09
-46.46
-51.44
-56.07
-60.21
-63.28
-64.37
-62.53
-57.27
-48.91
-38.48
-27.49
-17.29
-8.74
-2.10
2.83
6.39
8.85
10.35
11.01
10.95
10.38
9.55
8.66
7.89
7.43
7.46
8.23
9.93
12.52
15.80
19.31
22.56
25.06
26.51
26.79
25.93
24.06
21.40
18.23
14.94
11.99
9.74
8.37
7.79
7.69
7.66
7.36
6.65
5.58
4.33
3.13
2.02
0.90
-0.50
-2.48
-5.24
-8.73
-12.60
-16.40
-19.75
-22.57
-25.02
-27.48
-30.22
-33.29
-36.38
-39.00
-40.52
-40.37
-38.15
-33.73
-27.27
-19.31
-10.63
-2.11
5.48
11.58
15.99
18.82
20.37
21.06
21.24
21.21
21.09
20.87
20.52
20.08
19.75
19.74
20.26
21.35
22.83
24.34
25.43
25.60
24.47
21.79
17.59
12.08
5.57
-1.64
-9.35
-17.40
-25.47
-32.98
-39.17
-43.27
-44.93
-44.32
-42.05
-38.86
-35.34
-31.75
-28.29
-25.14
-22.60
-20.91
-20.01
-19.56
-19.04
-18.12
-16.78
-15.35
-14.25
-13.67
-13.52
-13.51
-13.47
-13.52
-14.03
-15.48
-18.15
-21.92
-26.20
-30.04
-32.36
-32.28
-29.37
-23.81
-16.29
-7.81
0.64
8.30
14.75
19.79
23.49
26.09
28.04
29.96
32.52
36.14
40.73
45.65
49.81
52.16
52.05
49.48
44.99
39.43
33.60
28.06
23.18
19.29
16.75
15.96
17.07
19.88
23.69
27.55
30.48
31.85
31.55
29.94
27.67
25.44
23.80
23.02
23.07
23.70
24.53
25.14
25.21
24.51
23.02
20.84
18.20
15.41
12.77
10.42
8.27
6.03
3.35
0.03
-3.76
-7.49
-10.45
-12.10
-12.31
-11.53
-10.68
-10.91
-13.19
-18.00
-25.21
-34.17
-43.96
-53.67
-62.58
-70.28
-76.58
-81.32
-84.17
-84.52
-81.57
-74.68
-63.85
-50.16
-35.85
-23.83
-16.76
-15.94
-20.69
-28.29
-34.87
-36.44
-29.83
-13.41
12.51
45.30
80.13
110.64
130.56
135.63
125.15
102.16
72.10
40.71
12.05
-12.13
-31.87
-47.64
-59.38
-66.45
-68.40
-65.76
-60.17
-53.77
-48.25
-44.23
-41.21
-37.96
-33.18
-26.09
-16.56
-4.86
8.60
23.62
40.06
57.72
75.97
93.53
108.63
119.41
124.64
124.09
118.72
110.07
99.98
90.10
81.55
74.80
69.87
66.55
64.61
63.87
63.45
62.54
60.39
56.07
48.46
36.47
19.48
-2.28
-27.52
-55.42
-84.80
-114.51
-143.60
-171.07
-195.39
-214.27
-225.08
-225.82
-217.76
-203.76
-187.33
-171.46
-158.01
-147.87
-141.76
-140.96
-139.31
-133.19
-119.64
-96.48
-62.61
-19.29
28.88
74.39
108.77
130.28
138.71
136.21
125.88
110.37
91.08
68.84
45.37
23.12
4.90
-8.72
-18.60
-27.08
-36.90
-49.87
-65.46
-81.50
-95.40
-104.59
-108.08
-105.14
-95.52
-79.66
-59.43
-37.75
-18.66
-6.03
-0.92
-1.18
0.74
12.63
37.84
69.44
101.02
128.98
151.51
168.75
182.44
194.71
206.50
216.60
221.84
215.44
193.80
159.43
121.81
92.22
77.38
77.11
85.86
96.59
105.04
111.01
115.74
122.30
131.82
142.54
151.56
156.42
156.09
151.52
144.91
137.77
129.99
123.41
117.15
109.82
100.50
89.22
77.12
66.00
57.36
52.03
49.82
49.33
49.24
48.70
47.39
45.56
43.70
42.12
40.89
39.68
37.61
34.13
29.07
22.61
15.16
7.29
-0.51
-7.75
-14.11
-19.55
-24.04
-27.55
-30.24
-32.42
-34.55
-37.17
-40.62
-44.99
-50.25
-56.12
-62.28
-68.58
-75.07
-82.05
-89.88
-98.83
-109.00
-120.31
-132.48
-145.12
-157.84
-170.32
-182.54
-194.93
-208.46
-224.28
-243.06
-264.08
-284.71
-300.59
-306.49
-297.72
-271.62
-228.47
-171.81
-107.98
-44.87
9.65
49.46
71.40
75.94
66.43
47.87
25.19
1.89
-20.63
-42.99
-66.99
-94.49
-126.01
-159.63
-190.49
-211.57
-215.26
-195.91
-151.97
-87.08
-9.52
69.74
139.58
191.28
220.11
225.86
212.39
186.03
153.62
120.72
90.55
64.20
41.71
23.11
8.68
-1.55
-8.97
-16.59
-28.30
-47.28
-74.55
-108.56
-146.11
-184.02
-220.26
-254.32
-286.46
-317.12
-346.44
-374.28
-400.22
-423.44
-442.52
-455.56
-460.86
-457.78
-447.31
-431.67
-413.02
-392.13
-367.75
-337.09
-297.33
-247.09
-187.21
-120.56
-50.99
18.06
84.26
146.71
205.50
261.08
313.80
363.99
412.44
460.44
509.20
558.40
605.03
643.35
666.83
670.84
655.08
623.92
584.50
543.55
504.89
468.91
434.05
399.05
364.40
332.11
304.22
281.21
261.59
242.67
222.00
198.40
172.02
143.92
115.04
85.77
55.86
24.81
-7.83
-42.09
-77.77
-114.59
-152.40
-191.10
-230.37
-269.37
-306.71
-340.71
-369.83
-393.09
-410.08
-420.88
-425.81
-425.34
-419.94
-410.11
-396.18
-378.37
-356.70
-331.24
-302.53
-271.89
-241.68
-215.11
-195.59
-185.60
-185.80
-194.21
-206.45
-216.70
-219.32
-210.34
-188.31
-154.09
-110.17
-60.21
-8.88
38.18
74.73
95.38
97.50
82.74
56.95
28.40
4.97
-8.32
-10.32
-3.00
10.47
27.15
45.15
63.49
81.81
100.47
121.10
146.80
181.19
226.51
281.25
339.29
391.17
427.30
441.77
434.33
409.87
375.69
338.26
301.35
265.92
231.75
198.81
167.82
139.65
114.33
90.51
65.98
38.79
8.40
-24.11
-56.44
-86.19
-111.87
-133.41
-151.92
-168.77
-184.72
-199.39
-211.50
-219.76
-223.71
-224.09
-222.49
-220.40
-218.56
-216.68
-213.96
-209.68
-203.74
-196.59
-188.83
-180.84
-172.66
-164.22
-155.51
-146.63
-137.56
-128.00
-117.32
-104.90
-90.57
-74.72
-58.19
-41.86
-26.18
-11.16
3.46
17.81
31.60
44.17
54.85
63.32
69.81
75.02
79.71
84.34
88.88
92.83
95.67
97.23
97.90
98.54
100.06
103.02
107.36
112.40
117.03
119.91
119.75
115.52
106.86
94.29
79.18
63.31
48.25
34.83
23.02
12.13
1.39
-9.52
-20.36
-30.45
-39.07
-45.77
-50.54
-53.74
-55.93
-57.56
-58.81
-59.52
-59.37
-58.20
-56.20
-54.00
-52.15
-50.89
-49.79
-48.13
-45.33
-41.50
-37.42
-34.18
-32.47
-32.13
-32.05
-30.68
-26.73
-19.80
-10.55
-0.47
8.55
14.84
17.45
16.30
12.24
6.58
0.72
-4.35
-8.12
-10.40
-11.07
-9.89
-6.69
-1.57
4.82
11.41
17.12
21.35
24.36
27.01
30.26
34.45
39.15
43.27
45.77
46.02
44.12
40.56
35.86
30.25
23.69
16.22
8.37
1.17
-4.00
-6.07
-4.89
-1.47
2.42
5.03
5.43
3.76
1.01
-1.73
-3.87
-5.55
-7.19
-8.99
-10.63
-11.41
-10.69
-8.36
-4.93
-1.33
1.66
3.71
5.14
6.74
9.33
13.42
19.00
25.54
32.18
38.12
42.94
46.67
49.61
52.13
54.31
56.05
57.13
57.52
57.51
57.45
57.61
58.07
58.66
59.19
59.62
60.02
60.45
60.85
60.97
60.47
59.19
57.15
54.64
52.07
49.89
48.47
48.04
48.58
49.83
51.28
52.36
52.58
51.88
50.68
49.71
49.66
50.80
52.82
54.97
56.45
56.85
56.40
55.81
55.98
57.61
60.85
65.22
69.83
73.68
75.99
76.59
75.86
74.60
73.68
73.65
74.56
76.05
77.62
78.77
79.20
78.57
76.52
72.71
67.14
60.43
53.83
48.83
46.25
45.77
45.80
44.00
38.26
27.23
10.35
-12.62
-42.05
-78.25
-120.73
-167.16
-212.97
-251.92
-277.90
-286.93
-278.46
-255.41
-223.03
-187.27
-153.59
-126.13
-107.61
-99.45
-101.76
-113.52
-132.53
-155.61
-178.90
-198.37
-210.49
-212.96
-205.32
-188.96
-166.68
-141.62
-116.04
-90.68
-64.99
-38.17
-10.17
17.70
43.21
64.27
79.79
89.97
96.03
99.47
101.47
102.66
103.29
103.60
103.92
104.53
105.43
106.16
105.90
103.75
99.16
92.07
82.87
72.13
60.42
48.26
36.31
25.51
17.05
12.02
10.99
13.66
18.96
25.36
31.45
36.27
39.45
41.02
41.24
40.48
39.10
37.51
36.17
35.41
35.37
35.93
36.66
37.02
36.50
34.78
31.98
28.71
25.92
24.59
25.24
27.53
30.18
31.53
30.28
26.24
20.45
14.76
10.83
9.30
9.54
10.13
9.71
7.56
3.68
-1.55
-7.30
-11.71
-11.35
-1.70
21.07
57.54
103.28
149.50
185.99
205.13
204.78
188.53
163.35
136.45
113.02
95.82
86.17
84.98
92.64
108.07
127.82
146.15
156.71
154.85
139.34
113.08
81.97
52.63
30.10
16.27
9.81
7.17
4.44
-1.23
-10.84
-23.63
-37.72
-50.78
-60.67
-66.04
-66.82
-64.44
-61.53
-60.80
-64.10
-71.92
-83.77
-99.09
-117.67
-139.18
-162.09
-182.78
-195.99
-196.79
-182.99
-156.69
-123.84
-92.02
-67.44
-52.84
-47.18
-46.90
-47.97
-47.68
-45.15
-41.14
-37.15
-34.62
-34.52
-37.27
-42.90
-51.05
-60.96
-71.26
-80.19
-86.10
-88.10
-86.63
-83.12
-79.15
-75.17
-70.00
-61.35
-47.32
-27.94
-5.72
15.28
31.23
40.33
43.44
43.28
42.88
44.19
47.53
51.93
55.69
56.82
53.09
42.21
22.48
-6.28
-41.85
-79.69
-114.08
-139.84
-154.03
-156.58
-149.83
-137.32
-122.47
-107.81
-94.74
-83.75
-74.59
-66.54
-58.44
-49.06
-37.40
-23.20
-7.10
9.38
24.36
36.21
43.96
47.68
48.25
47.15
45.82
45.27
45.84
47.15
48.52
49.34
49.46
49.21
49.14
49.71
50.93
52.30
53.13
52.77
50.95
47.80
43.78
39.37
34.90
30.51
26.18
21.86
17.56
13.32
9.23
5.27
1.34
-2.65
-6.72
-10.74
-14.50
-17.89
-20.92
-23.77
-26.53
-28.98
-30.47
-30.01
-26.76
-20.36
-11.19
-0.33
10.90
21.31
30.18
37.26
42.58
46.20
48.07
48.08
46.28
42.98
38.78
34.43
30.61
27.67
25.62
24.20
23.12
22.12
21.08
20.10
19.40
19.14
19.40
19.99
20.51
20.45
19.44
17.46
14.87
12.26
10.18
8.86
8.06
7.26
5.89
3.67
0.60
-3.07
-7.12
-11.49
-16.20
-21.27
-26.59
-31.95
-37.09
-41.85
-46.19
-50.00
-52.89
-54.29
-53.55
-50.29
-44.58
-36.98
-28.31
-19.40
-10.82
-2.93
4.04
9.92
14.54
17.77
19.55
19.89
18.91
16.71
13.51
9.62
5.45
1.49
-1.91
-4.49
-6.23
-7.24
-7.65
-7.64
-7.42
-7.29
-7.64
-8.79
-10.87
-13.67
-16.63
-19.08
-20.47
-20.57
-19.70
-18.53
-17.81
-17.99
-19.08
-20.70
-22.31
-23.50
-24.12
-24.28
-24.22
-24.25
-24.66
-25.72
-27.44
-29.47
-30.99
-30.86
-28.11
-22.37
-14.17
-4.75
4.50
12.62
19.30
24.76
29.30
33.01
35.73
37.28
37.68
37.19
36.21
35.00
33.62
32.08
30.44
28.88
27.66
26.87
26.45
26.17
25.84
25.26
24.34
23.04
21.39
19.56
17.92
16.96
17.04
18.18
19.89
21.41
21.97
21.17
19.07
15.98
12.29
8.20
3.81
-0.74
-5.18
-9.05
-11.99
-13.75
-14.26
-13.53
-11.45
-7.85
-2.60
4.15
11.83
19.61
26.57
31.98
35.49
37.14
37.25
36.31
34.83
33.26
31.93
30.87
29.95
28.93
27.64
26.07
24.45
23.06
22.15
21.81
21.89
22.22
22.52
22.54
22.03
20.84
18.89
16.30
13.28
10.18
7.42
5.36
4.10
3.38
2.47
0.20
-4.59
-12.72
-24.24
-38.31
-53.47
-68.11
-80.91
-91.03
-98.06
-101.67
-101.48
-97.11
-88.48
-76.10
-61.11
-45.04
-29.40
-15.23
-2.94
7.56
16.59
24.40
30.94
36.00
39.33
40.83
40.71
39.44
37.67
35.94
34.65
33.90
33.57
33.50
33.56
33.82
34.38
35.28
36.21
36.60
35.76
33.24
29.19
24.39
20.04
17.28
16.76
18.36
21.33
24.55
27.02
28.11
27.69
26.07
23.72
21.11
18.59
16.36
14.54
13.12
12.06
11.23
10.41
9.29
7.63
5.36
2.77
0.32
-1.52
-2.65
-3.39
-4.36
-5.94
-7.93
-9.33
-8.65
-4.50
3.82
16.11
31.25
47.74
64.12
79.48
93.63
107.01
120.38
134.35
148.90
162.92
174.29
180.21
178.03
166.24
145.20
117.08
85.27
53.21
23.42
-3.11
-27.02
-49.80
-72.98
-97.13
-121.48
-143.68
-160.28
-167.57
-162.41
-143.39
-111.40
-69.77
-23.74
20.77
58.59
86.63
104.45
113.94
118.13
119.74
119.66
116.62
107.81
90.40
63.11
27.20
-13.67
-54.39
-89.83
-115.85
-129.60
-129.47
-114.98
-87.07
-48.55
-3.98
41.40
83.74
122.24
159.28
198.52
241.85
286.97
327.56
355.83
366.29
358.52
337.23
309.90
283.37
261.43
244.55
231.31
220.14
210.41
202.05
194.70
187.05
177.18
163.37
144.87
122.28
97.04
70.63
43.75
16.02
-13.63
-46.24
-82.10
-120.45
-159.65
-197.91
-234.00
-267.70
-299.91
-332.31
-366.73
-404.24
-444.21
-483.90
-518.77
-543.88
-555.67
-553.64
-540.91
-523.27
-507.03
-496.63
-493.14
-494.05
-494.74
-490.63
-479.04
-460.07
-436.15
-410.69
-386.51
-364.91
-345.45
-326.62
-306.71
-284.40
-258.83
-229.29
-195.00
-155.33
-110.38
-61.56
-11.66
35.85
77.82
112.37
139.23
159.25
173.80
184.01
190.44
193.19
192.18
187.66
180.40
171.75
163.48
157.42
154.74
155.62
158.91
162.43
163.66
160.32
150.86
134.48
110.95
80.55
44.20
3.39
-39.97
-83.88
-126.45
-165.69
-199.13
-223.78
-236.78
-236.76
-225.10
-206.33
-186.85
-172.82
-168.09
-173.49
-187.59
-208.20
-233.20
-260.54
-287.42
-309.81
-323.30
-324.57
-313.03
-291.16
-263.55
-235.00
-208.82
-186.21
-166.65
-149.16
-133.02
-118.27
-105.27
-94.36
-85.47
-78.22
-72.03
-66.46
-61.25
-56.32
-51.54
-46.57
-40.87
-33.80
-24.84
-13.81
-0.99
12.96
27.28
41.36
54.97
68.30
81.77
95.74
110.31
125.22
139.94
153.92
166.86
178.80
190.21
201.87
214.81
230.00
248.00
268.48
289.83
309.26
323.40
329.30
325.53
312.63
292.92
269.65
245.95
224.11
205.25
189.55
176.53
165.30
154.69
143.48
130.70
115.91
99.53
82.61
66.48
52.15
39.84
28.96
18.32
6.69
-6.65
-21.57
-37.00
-51.22
-62.32
-68.67
-69.34
-64.29
-54.38
-41.16
-26.58
-12.59
-0.87
7.58
12.60
14.69
14.71
13.45
11.28
8.25
4.33
-0.14
-4.26
-6.70
-6.09
-1.37
7.95
21.89
40.31
63.00
89.61
119.37
150.72
181.29
208.25
228.96
241.72
246.27
243.86
236.64
226.93
216.58
206.51
196.71
186.46
174.75
160.59
143.25
122.48
98.71
73.21
47.97
25.41
7.86
-3.10
-7.00
-4.56
2.56
12.32
22.74
32.28
39.99
45.48
48.67
49.72
48.88
46.55
43.21
39.38
35.47
31.69
28.14
24.87
22.05
20.06
19.37
20.32
22.83
26.34
29.92
32.57
33.56
32.66
30.07
26.21
21.48
16.19
10.60
5.08
0.13
-3.73
-6.23
-7.57
-8.50
-10.00
-12.98
-17.82
-24.34
-31.74
-38.96
-44.84
-48.32
-48.59
-45.11
-37.77
-27.03
-13.90
0.23
13.90
25.94
35.66
42.91
47.85
50.68
51.52
50.48
47.86
44.26
40.67
38.06
37.06
37.69
39.39
41.45
43.44
45.33
47.38
49.59
51.47
52.06
50.35
45.84
38.85
30.35
21.38
12.62
4.15
-4.30
-13.00
-21.87
-30.52
-38.44
-45.29
-51.01
-55.76
-59.78
-63.30
-66.39
-68.98
-70.84
-71.48
-70.25
-66.45
-59.61
-49.75
-37.53
-24.27
-11.61
-1.10
6.15
9.76
10.11
8.21
5.49
3.50
3.63
6.85
13.57
23.56
35.99
49.58
62.84
74.33
82.98
88.27
90.35
89.97
88.11
85.56
82.64
79.13
74.58
68.79
62.07
55.14
48.74
43.05
37.49
31.12
23.21
13.82
3.87
-5.38
-13.00
-18.90
-23.71
-28.22
-32.82
-37.31
-41.17
-44.24
-46.95
-50.16
-54.51
-59.79
-64.87
-68.33
-69.26
-67.99
-65.90
-64.65
-65.27
-67.62
-70.73
-73.57
-75.84
-78.18
-81.60
-86.64
-92.64
-97.77
-99.68
-96.47
-87.46
-73.44
-56.28
-38.18
-21.06
-6.16
5.96
15.22
21.88
26.29
28.92
30.29
30.88
31.04
30.94
30.60
30.02
29.34
28.81
28.68
29.07
29.81
30.52
30.79
30.45
29.67
28.87
28.46
28.54
28.82
28.71
27.54
24.96
21.12
16.68
12.59
9.75
8.63
9.28
11.38
14.60
18.60
22.97
26.88
29.08
28.14
23.22
14.62
3.95
-6.38
-14.12
-17.99
-17.82
-14.12
-7.43
2.01
13.85
26.93
38.94
46.76
47.79
41.24
28.68
13.50
-0.61
-11.16
-17.66
-21.37
-24.12
-27.24
-30.98
-34.77
-37.99
-40.50
-42.79
-45.46
-48.56
-51.22
-51.80
-48.56
-40.30
-26.93
-9.51
10.10
29.65
47.17
61.28
71.49
78.11
82.03
84.30
85.67
86.28
85.68
83.06
77.76
69.72
59.63
48.80
38.60
29.99
23.19
17.81
13.13
8.45
3.38
-2.29
-8.70
-15.89
-23.71
-31.59
-38.51
-43.35
-45.44
-44.99
-42.94
-40.54
-38.52
-36.64
-33.88
-28.97
-21.18
-10.76
1.16
13.01
23.43
31.78
38.28
43.84
49.72
57.12
66.68
78.22
90.66
102.39
111.84
118.11
121.33
122.65
123.68
125.85
129.97
136.15
144.01
152.85
161.55
168.49
171.67
169.28
160.58
146.53
129.43
111.61
93.91
74.93
51.67
21.46
-16.21
-58.90
-102.18
-141.61
-174.58
-200.97
-222.31
-240.26
-255.31
-266.59
-272.50
-271.90
-265.07
-253.89
-241.20
-229.74
-221.15
-215.36
-210.69
-204.62
-194.82
-179.93
-159.95
-135.94
-109.45
-82.00
-54.82
-28.88
-5.11
15.54
32.12
43.89
50.66
53.04
52.36
50.60
49.78
51.41
55.98
62.85
70.55
77.36
81.91
83.45
81.84
77.24
69.92
60.20
48.57
35.86
23.19
11.67
2.06
-5.38
-10.97
-15.25
-18.75
-21.79
-24.46
-26.71
-28.55
-30.11
-31.64
-33.47
-36.03
-39.66
-44.66
-51.06
-58.57
-66.52
-73.88
-79.52
-82.42
-82.04
-78.39
-72.07
-63.92
-54.58
-44.24
-32.44
-18.57
-2.30
15.94
34.89
52.83
68.16
79.88
87.81
92.41
94.38
94.24
92.14
87.80
80.71
70.39
56.77
40.43
22.77
5.70
-8.83
-19.53
-26.18
-29.59
-31.28
-32.86
-35.63
-40.38
-47.55
-57.21
-69.09
-82.42
-95.79
-107.46
-115.78
-119.75
-119.37
-115.60
-109.90
-103.55
-96.95
-89.39
-79.35
-65.27
-46.49
-23.72
1.17
25.83
48.39
67.95
84.38
97.72
107.51
112.76
112.39
106.14
94.97
80.93
66.29
52.61
40.13
28.07
15.33
1.25
-13.85
-28.96
-42.82
-54.44
-63.34
-69.46
-72.86
-73.50
-71.18
-65.77
-57.55
-47.36
-36.45
-26.27
-18.00
-12.40
-9.69
-9.55
-11.28
-14.00
-16.73
-18.65
-19.15
-17.90
-14.84
-10.17
-4.24
2.55
9.83
17.30
24.75
31.91
38.50
44.18
48.58
51.42
52.51
51.81
49.39
45.46
40.36
34.61
28.87
23.76
19.70
16.76
14.73
13.23
11.87
10.43
8.83
7.09
5.31
3.55
1.88
0.36
-0.96
-2.07
-3.09
-4.11
-5.24
-6.48
-7.70
-8.81
-9.73
-10.52
-11.30
-12.15
-12.92
-13.20
-12.47
-10.22
-6.29
-0.89
5.39
11.79
17.63
22.40
25.91
28.20
29.49
30.02
30.07
29.83
29.42
28.89
28.20
27.39
26.54
25.78
25.26
25.02
24.95
24.84
24.48
23.70
22.51
20.88
18.76
15.98
12.38
7.90
2.75
-2.71
-8.10
-13.14
-17.87
-22.58
-27.69
-33.55
-40.18
-47.23
-54.00
-59.68
-63.51
-65.04
-64.19
-61.29
-56.87
-51.52
-45.69
-39.72
-33.83
-28.29
-23.37
-19.37
-16.46
-14.65
-13.76
-13.57
-13.86
-14.42
-15.07
-15.41
-14.76
-12.33
-7.54
-0.45
8.06
16.54
23.45
27.85
29.77
30.09
30.06
30.54
31.71
33.05
33.80
33.42
31.88
29.59
27.09
24.75
22.63
20.64
18.69
16.87
15.40
14.42
13.84
13.26
12.15
10.05
6.86
2.85
-1.44
-5.41
-8.68
-11.15
-12.92
-14.13
-14.84
-14.93
-14.18
-12.33
-9.24
-4.93
0.33
6.09
11.76
16.73
20.49
22.77
23.54
22.99
21.41
19.15
16.60
14.18
12.33
11.37
11.38
12.05
12.75
12.68
11.08
7.44
1.68
-5.85
-14.37
-22.85
-30.16
-35.16
-37.05
-35.49
-30.88
-24.32
-17.43
-11.89
-8.88
-8.74
-10.86
-13.96
-16.61
-17.75
-17.00
-14.69
-11.47
-7.99
-4.63
-1.53
1.38
4.18
7.00
9.89
12.93
16.10
19.30
22.27
24.61
25.95
26.04
24.90
22.77
20.10
17.34
14.86
12.86
11.38
10.35
9.64
9.16
8.88
8.78
8.80
8.86
8.81
8.59
8.21
7.74
7.22
6.54
5.47
3.73
1.17
-2.04
-5.37
-8.05
-9.36
-8.98
-7.14
-4.60
-2.39
-1.31
-1.68
-3.20
-5.17
-6.80
-7.61
-7.59
-7.18
-7.08
-8.04
-10.73
-15.53
-22.19
-29.64
-35.91
-38.63
-35.99
-27.65
-15.22
-1.83
9.06
15.12
15.96
13.11
9.07
6.04
5.10
6.06
7.90
9.51
10.18
9.75
8.42
6.57
4.50
2.37
0.23
-1.83
-3.67
-5.05
-5.74
-5.59
-4.50
-2.53
0.25
3.73
7.74
11.98
16.04
19.42
21.75
22.97
23.33
23.24
23.05
22.83
22.49
21.92
21.14
20.27
19.34
18.12
16.27
13.61
10.51
7.91
6.86
7.97
10.87
14.32
16.76
17.10
15.18
11.75
7.88
4.34
1.37
-1.32
-4.09
-7.17
-10.49
-13.91
-17.38
-20.99
-24.84
-28.86
-32.82
-36.40
-39.41
-41.91
-44.12
-46.28
-48.52
-50.80
-53.06
-55.24
-57.35
-59.32
-60.92
-61.65
-60.95
-58.32
-53.58
-46.92
-38.91
-30.23
-21.60
-13.62
-6.79
-1.49
2.02
3.72
3.96
3.58
3.86
6.26
11.83
20.70
31.85
43.31
52.92
59.09
61.37
60.43
57.69
54.58
52.15
50.92
51.02
52.39
54.78
57.69
60.24
61.21
59.39
54.02
45.18
33.85
21.71
10.74
2.59
-1.80
-2.57
-0.81
1.77
3.43
3.02
0.33
-3.87
-8.37
-12.12
-14.74
-16.68
-18.97
-22.63
-28.14
-35.17
-42.70
-49.31
-53.62
-54.69
-52.34
-47.18
-40.53
-34.01
-29.08
-26.48
-26.11
-27.13
-28.54
-29.69
-30.58
-31.66
-33.31
-35.37
-36.99
-36.97
-34.42
-29.24
-22.29
-14.97
-8.57
-3.75
-0.36
2.19
4.38
6.25
7.33
7.09
5.37
2.62
-0.20
-2.12
-2.64
-1.94
-0.76
0.12
0.28
-0.13
-0.53
-0.42
0.33
1.35
1.97
1.68
0.36
-1.58
-3.41
-4.52
-4.62
-3.92
-2.94
-2.23
-2.13
-2.66
-3.57
-4.39
-4.71
-4.22
-2.85
-0.76
1.73
4.18
6.20
7.63
8.64
9.81
12.02
16.13
22.51
30.78
39.74
47.73
53.27
55.61
54.99
52.41
49.09
45.83
42.81
39.61
35.65
30.57
24.42
17.57
10.43
3.27
-3.87
-11.08
-18.42
-25.81
-32.93
-39.23
-44.11
-47.15
-48.24
-47.70
-46.16
-44.29
-42.50
-40.77
-38.69
-35.68
-31.31
-25.57
-18.94
-12.16
-5.99
-0.96
2.78
5.44
7.43
9.13
10.70
12.03
12.77
12.63
11.59
10.04
8.67
8.16
8.82
10.40
12.20
13.37
13.36
12.15
10.20
8.15
6.53
5.53
5.12
5.18
5.59
6.30
7.11
7.67
7.43
5.95
3.16
-0.47
-4.05
-6.64
-7.62
-7.00
-5.34
-3.47
-2.24
-2.13
-3.27
-5.43
-8.19
-11.04
-13.57
-15.55
-16.96
-17.95
-18.75
-19.60
-20.67
-22.07
-23.79
-25.73
-27.60
-28.89
-28.99
-27.30
-23.55
-17.93
-11.13
-4.12
2.14
7.04
10.42
12.55
13.91
14.93
15.74
16.20
15.95
14.76
12.67
10.15
7.91
6.68
6.88
8.41
10.72
12.97
14.39
14.63
13.89
12.88
12.48
13.32
15.42
18.13
20.32
20.95
19.54
16.46
12.74
9.71
8.41
9.28
12.14
16.24
20.35
22.60
20.81
13.02
-1.41
-21.00
-42.03
-59.70
-69.89
-70.94
-64.29
-53.59
-42.93
-34.99
-30.33
-27.78
-25.81
-23.59
-21.42
-20.18
-20.48
-21.92
-23.12
-22.28
-18.05
-10.31
-0.31
9.85
18.13
23.41
25.90
26.77
27.45
28.70
30.30
31.31
30.79
28.53
25.22
22.08
20.18
19.87
20.71
21.90
22.70
22.89
22.59
22.04
21.21
19.91
17.93
15.37
12.64
10.29
8.70
7.78
7.10
6.13
4.61
2.72
0.90
-0.33
-0.78
-0.55
-0.00
0.52
0.84
0.99
1.17
1.56
2.31
3.51
5.20
7.38
9.97
12.82
15.83
18.98
22.41
26.36
31.10
36.81
43.61
51.51
60.30
69.41
77.77
83.97
86.54
84.61
78.19
68.25
56.20
43.38
30.52
17.80
5.14
-7.47
-19.79
-31.46
-42.17
-51.78
-60.23
-67.40
-72.92
-76.39
-77.45
-76.11
-72.73
-68.02
-62.84
-57.92
-53.76
-50.53
-48.08
-46.06
-43.97
-41.38
-38.02
-33.87
-29.18
-24.36
-19.89
-16.09
-13.00
-10.36
-7.79
-5.02
-2.10
0.59
2.51
3.24
2.73
1.26
-0.63
-2.47
-4.00
-5.16
-6.02
-6.65
-7.07
-7.26
-7.31
-7.38
-7.65
-8.31
-9.42
-10.94
-12.71
-14.56
-16.36
-18.06
-19.72
-21.42
-23.28
-25.39
-27.80
-30.49
-33.32
-36.04
-38.27
-39.53
-39.32
-37.30
-33.35
-27.70
-20.92
-13.78
-7.17
-1.74
2.15
4.53
5.75
6.27
6.43
6.36
5.98
5.16
3.85
2.23
0.59
-0.80
-1.81
-2.57
-3.36
-4.42
-5.82
-7.42
-8.99
-10.44
-11.92
-13.88
-16.76
-20.74
-25.51
-30.30
-34.21
-36.60
-37.52
-37.72
-38.31
-40.11
-43.12
-46.31
-47.96
-46.35
-40.46
-30.22
-16.48
-0.54
16.10
32.09
46.15
57.12
64.13
66.90
65.95
62.59
58.43
54.81
52.25
50.35
48.08
44.32
38.47
30.71
22.06
13.96
7.76
4.22
3.30
4.22
5.82
7.12
7.59
7.29
6.59
5.83
5.12
4.41
3.67
3.22
3.63
5.50
9.07
13.98
19.25
23.76
26.63
27.49
26.47
23.99
20.43
16.04
11.04
5.68
0.40
-4.28
-7.90
-10.16
-10.95
-10.32
-8.39
-5.31
-1.23
3.67
9.19
14.98
20.59
25.38
28.68
29.96
29.06
26.23
22.14
17.64
13.50
10.20
7.91
6.55
5.94
5.84
5.94
5.88
5.36
4.25
2.69
1.06
-0.19
-0.72
-0.55
0.03
0.56
0.65
0.19
-0.68
-1.64
-2.39
-2.81
-2.99
-3.23
-3.86
-5.18
-7.24
-9.87
-12.71
-15.31
-17.27
-18.38
-18.68
-18.39
-17.87
-17.52
-17.68
-18.51
-19.96
-21.70
-23.12
-23.49
-22.12
-18.66
-13.22
-6.50
0.54
6.97
12.24
16.21
19.14
21.32
22.85
23.57
23.25
21.81
19.54
17.02
14.97
13.92
13.97
14.89
16.20
17.41
18.25
18.68
18.89
19.16
19.77
20.80
22.15
23.57
24.72
25.36
25.45
25.14
24.72
24.39
24.20
24.06
23.85
23.57
23.33
23.33
23.62
24.09
24.43
24.34
23.68
22.61
21.49
20.66
20.04
19.05
16.61
11.61
3.42
-7.65
-20.31
-32.79
-43.44
-51.33
-56.42
-59.24
-60.41
-60.23
-58.78
-56.04
-52.23
-47.85
-43.43
-39.27
-35.24
-30.95
-26.05
-20.46
-14.50
-8.68
-3.47
0.83
4.12
6.36
7.41
7.08
5.24
2.14
-1.58
-4.91
-6.84
-6.72
-4.51
-0.83
3.36
7.12
9.79
11.08
10.97
9.57
7.06
3.75
0.01
-3.74
-7.24
-10.45
-13.56
-16.69
-19.73
-22.18
-23.40
-22.88
-20.58
-16.93
-12.69
-8.58
-5.05
-2.24
-0.08
1.55
2.73
3.54
4.06
4.38
4.54
4.51
4.20
3.59
2.75
1.83
1.07
0.59
0.49
0.79
1.41
2.24
3.08
3.75
4.25
4.88
6.31
9.37
14.74
22.57
32.32
42.83
52.72
60.93
67.08
71.68
75.96
81.33
88.79
98.36
109.04
119.14
127.10
132.13
134.55
135.59
136.92
140.04
146.02
155.36
168.08
183.49
199.91
214.40
223.06
222.02
208.66
182.70
146.42
103.78
58.85
14.43
-28.57
-70.49
-111.62
-151.07
-186.48
-214.86
-233.83
-242.60
-242.10
-234.36
-221.69
-206.12
-189.43
-173.39
-160.06
-151.55
-149.38
-153.88
-163.83
-176.78
-189.76
-200.15
-206.25
-207.61
-204.92
-199.55
-192.96
-186.12
-179.09
-171.16
-161.33
-149.07
-134.83
-120.10
-106.63
-95.56
-86.50
-77.69
-66.69
-51.82
-33.03
-12.01
8.54
26.33
40.32
50.80
58.85
65.39
70.66
74.27
75.71
74.87
72.27
68.88
65.62
63.03
61.18
59.75
58.36
56.76
54.98
53.31
52.07
51.45
51.38
51.43
50.94
49.26
46.06
41.53
36.39
31.65
28.21
26.50
26.37
27.15
28.04
28.50
28.39
27.99
27.67
27.69
28.03
28.40
28.48
28.13
27.39
26.48
25.62
24.86
24.13
23.22
21.96
20.28
18.23
16.00
13.80
11.85
10.29
9.13
8.27
7.52
6.72
5.86
5.06
4.45
4.13
3.96
3.66
2.94
1.76
0.44
-0.31
0.33
2.98
7.89
14.76
22.88
31.22
38.62
43.92
46.08
44.47
39.08
30.59
20.28
9.58
-0.31
-8.74
-15.69
-21.54
-26.77
-31.69
-36.34
-40.61
-44.39
-47.70
-50.77
-53.93
-57.39
-61.03
-64.27
-66.15
-65.72
-62.31
-55.91
-47.01
-36.28
-24.32
-11.59
1.39
13.79
24.35
31.85
35.59
35.91
34.07
31.77
30.30
30.11
30.77
31.44
31.41
30.47
28.89
27.04
25.18
23.29
21.27
19.05
16.74
14.58
12.77
11.35
10.14
8.83
7.10
4.75
1.74
-1.82
-5.64
-9.42
-12.77
-15.32
-16.77
-16.90
-15.67
-13.20
-9.75
-5.69
-1.48
2.51
5.94
8.66
10.67
12.05
12.92
13.33
13.25
12.54
11.14
9.16
6.94
4.99
3.83
3.77
4.82
6.64
8.71
10.52
11.73
12.23
12.17
11.72
11.06
10.29
9.44
8.49
7.44
6.32
5.12
3.85
2.51
1.14
-0.21
-1.45
-2.58
-3.57
-4.42
-5.11
-5.61
-5.90
-6.04
-6.13
-6.33
-6.76
-7.47
-8.45
-9.62
-10.90
-12.20
-13.44
-14.58
-15.58
-16.48
-17.38
-18.41
-19.58
-20.67
-21.29
-20.93
-19.15
-15.89
-11.43
-6.42
-1.55
2.60
5.84
8.25
10.07
11.46
12.47
12.94
12.71
11.62
9.70
7.15
4.33
1.70
-0.27
-1.23
-1.06
0.10
1.91
3.92
5.77
7.23
8.25
8.86
9.05
8.70
7.58
5.39
1.97
-2.51
-7.54
-12.35
-16.18
-18.59
-19.63
-19.75
-19.59
-19.56
-19.65
-19.38
-18.14
-15.52
-11.48
-6.38
-0.76
4.80
9.78
13.73
16.28
17.10
16.01
13.22
9.44
5.91
3.96
4.54
7.79
12.86
18.20
22.18
23.85
23.31
21.65
20.36
20.60
22.66
25.98
29.48
32.15
33.41
33.12
31.45
28.60
24.72
19.96
14.57
8.96
3.68
-0.76
-4.13
-6.48
-8.11
-9.50
-11.10
-13.15
-15.52
-17.70
-19.00
-18.86
-17.05
-13.85
-9.88
-5.93
-2.66
-0.50
0.40
0.04
-1.43
-3.66
-6.12
-8.27
-9.65
-10.16
-10.11
-10.05
-10.57
-11.89
-13.82
-15.86
-17.50
-18.46
-18.81
-18.87
-19.07
-19.79
-21.33
-23.79
-27.04
-30.62
-33.64
-35.05
-33.94
-29.95
-23.50
-15.63
-7.64
-0.51
5.27
9.76
13.25
16.02
18.22
19.91
21.22
22.32
23.38
24.41
25.21
25.42
24.76
23.10
20.57
17.53
14.35
11.38
8.86
6.90
5.47
4.46
3.67
2.84
1.76
0.29
-1.67
-4.02
-6.54
-8.92
-10.77
-11.77
-11.77
-10.87
-9.41
-7.83
-6.50
-5.61
-5.12
-4.82
-4.52
-4.15
-3.80
-3.60
-3.61
-3.65
-3.31
-2.15
0.11
3.38
7.28
11.23
14.70
17.40
19.28
20.51
21.34
21.90
22.20
22.14
21.61
20.58
19.15
17.56
16.08
14.98
14.41
14.37
14.72
15.22
15.66
15.87
15.75
15.23
14.31
13.04
11.52
9.92
8.41
7.11
6.08
5.25
4.50
3.65
2.60
1.35
-0.00
-1.28
-2.28
-2.88
-3.09
-3.06
-2.98
-3.08
-3.54
-4.43
-5.69
-7.23
-8.86
-10.45
-11.90
-13.23
-14.51
-15.72
-16.69
-17.09
-16.51
-14.65
-11.51
-7.42
-2.87
1.64
5.77
9.37
12.39
14.75
16.36
17.14
17.13
16.50
15.52
14.44
13.42
12.55
11.90
11.56
11.60
11.99
12.56
13.07
13.28
13.08
12.58
11.93
11.27
10.62
9.88
8.92
7.69
6.25
4.74
3.28
1.95
0.77
-0.31
-1.34
-2.32
-3.26
-4.19
-5.10
-5.97
-6.78
-7.42
-7.82
-7.95
-7.83
-7.58
-7.38
-7.42
-7.86
-8.79
-10.16
-11.86
-13.68
-15.40
-16.74
-17.47
-17.39
-16.36
-14.32
-11.36
-7.64
-3.48
0.70
4.48
7.51
9.64
10.91
11.49
11.65
11.55
11.27
10.80
10.17
9.54
9.18
9.40
10.37
12.01
13.98
15.92
17.49
18.63
19.46
20.22
21.11
22.19
23.39
24.57
25.55
26.19
26.37
25.97
24.95
23.45
21.86
20.76
20.79
22.44
25.81
30.53
35.76
40.37
43.23
43.43
40.49
34.43
25.65
14.93
3.24
-8.39
-18.99
-27.86
-34.66
-39.46
-42.61
-44.55
-45.70
-46.49
-47.48
-49.42
-53.00
-58.47
-65.24
-71.85
-76.40
-77.23
-73.59
-65.78
-54.88
-42.26
-29.08
-16.25
-4.47
5.52
13.03
17.65
19.46
19.13
17.77
16.57
16.51
18.06
21.22
25.56
30.43
35.22
39.53
43.38
47.14
51.36
56.52
62.68
69.46
76.12
81.84
86.04
88.48
89.34
89.08
88.36
88.02
88.82
90.99
93.69
94.85
91.63
81.57
63.74
39.42
11.68
-15.79
-39.97
-59.32
-73.60
-83.21
-88.48
-89.59
-86.95
-81.60
-75.26
-69.69
-65.97
-64.02
-62.84
-61.18
-58.29
-54.34
-50.29
-47.46
-46.80
-48.54
-52.03
-56.09
-59.47
-61.29
-61.20
-59.30
-55.90
-51.40
-46.26
-41.07
-36.61
-33.70
-32.97
-34.60
-38.12
-42.56
-46.61
-49.08
-49.09
-46.24
-40.65
-32.92
-24.03
-15.11
-7.23
-1.14
2.84
4.81
5.15
4.42
3.22
2.09
1.43
1.37
1.83
2.47
2.85
2.70
2.02
1.14
0.57
0.76
1.92
3.92
6.40
8.98
11.47
13.93
16.56
19.53
22.68
25.50
27.20
27.03
24.51
19.65
12.93
5.31
-1.96
-7.51
-10.23
-9.67
-6.43
-2.14
1.06
1.27
-2.34
-9.25
-17.89
-26.47
-33.70
-39.12
-42.92
-45.45
-46.80
-46.73
-44.95
-41.41
-36.43
-30.58
-24.44
-18.37
-12.54
-6.95
-1.55
3.72
8.94
14.23
19.63
25.08
30.35
35.06
38.89
41.68
43.52
44.67
45.36
45.68
45.48
44.54
42.69
39.93
36.40
32.31
27.87
23.29
18.81
14.71
11.29
8.66
6.67
4.95
3.11
1.00
-1.23
-3.21
-4.68
-5.62
-6.32
-7.18
-8.44
-10.06
-11.84
-13.56
-15.12
-16.59
-18.05
-19.39
-20.29
-20.29
-19.02
-16.38
-12.58
-8.07
-3.39
0.96
4.64
7.46
9.44
10.71
11.56
12.29
13.13
14.17
15.31
16.36
17.11
17.49
17.64
17.90
18.68
20.34
23.02
26.53
30.40
33.98
36.66
38.04
38.10
37.15
35.72
34.40
33.67
33.74
34.45
35.13
34.63
31.56
24.77
13.87
-0.39
-16.25
-31.43
-43.96
-52.70
-57.63
-59.53
-59.52
-58.67
-57.83
-57.54
-58.13
-59.55
-61.37
-62.75
-62.61
-59.90
-53.96
-44.75
-32.96
-19.96
-7.43
3.08
10.57
14.92
16.86
17.63
18.45
20.09
22.63
25.61
28.37
30.41
31.57
31.95
31.76
31.23
30.53
29.78
29.07
28.43
27.72
26.69
25.01
22.39
18.70
14.06
8.73
3.10
-2.42
-7.55
-12.10
-15.99
-19.27
-22.01
-24.31
-26.25
-27.85
-29.10
-30.03
-30.72
-31.30
-31.92
-32.67
-33.61
-34.70
-35.81
-36.65
-36.84
-35.89
-33.44
-29.38
-23.93
-17.68
-11.38
-5.73
-1.23
1.91
3.69
4.29
3.85
2.65
0.96
-0.83
-2.24
-2.89
-2.50
-1.08
1.18
3.92
6.78
9.46
11.77
13.63
14.99
15.77
15.94
15.51
14.59
13.38
12.02
10.57
8.97
7.14
5.04
2.76
0.53
-1.40
-2.85
-3.79
-4.34
-4.63
-4.80
-4.92
-4.97
-4.96
-4.91
-4.91
-5.03
-5.38
-6.03
-7.02
-8.37
-10.06
-11.96
-13.89
-15.55
-16.59
-16.63
-15.33
-12.50
-8.20
-2.76
3.17
8.88
13.73
17.38
19.80
21.17
21.71
21.55
20.82
19.64
18.32
17.25
16.79
17.04
17.83
18.80
19.63
20.20
20.67
21.29
22.24
23.43
24.51
25.00
24.54
23.13
21.10
19.02
17.41
16.46
15.95
15.39
14.25
12.37
9.94
7.50
5.59
4.54
4.39
4.92
5.77
6.51
6.59
5.33
2.20
-2.99
-9.75
-16.91
-22.92
-26.43
-26.88
-24.65
-20.87
-16.87
-13.66
-11.61
-10.58
-10.21
-10.20
-10.45
-11.00
-11.84
-12.83
-13.73
-14.30
-14.43
-14.21
-13.82
-13.43
-13.04
-12.41
-11.12
-8.80
-5.27
-0.80
4.01
8.44
11.89
14.15
15.37
15.94
16.19
16.24
16.03
15.44
14.46
13.27
12.12
11.23
10.66
10.32
10.11
10.03
10.18
10.68
11.54
12.61
13.59
14.18
14.19
13.64
12.70
11.58
10.44
9.32
8.20
7.07
6.04
5.26
4.89
4.93
5.20
5.41
5.32
4.84
4.11
3.42
3.02
3.02
3.31
3.61
3.65
3.31
2.66
1.88
1.18
0.63
0.19
-0.26
-0.85
-1.62
-2.54
-3.48
-4.25
-4.54
-3.99
-2.24
1.03
5.86
11.93
18.55
24.82
29.90
33.31
34.98
35.17
34.24
32.26
29.02
24.13
17.38
9.01
-0.33
-9.78
-18.64
-26.58
-33.49
-39.25
-43.48
-45.55
-44.88
-41.38
-35.71
-29.13
-23.06
-18.52
-15.73
-14.17
-12.93
-11.21
-8.68
-5.56
-2.37
0.35
2.33
3.65
4.60
5.42
6.17
6.75
6.98
6.82
6.37
5.90
5.70
6.08
7.30
9.50
12.80
17.20
22.55
28.53
34.73
40.73
46.25
51.31
56.18
61.25
66.76
72.58
78.09
82.39
84.66
84.60
82.75
80.28
78.48
78.02
78.56
78.79
77.02
71.89
62.87
50.32
35.03
17.73
-1.23
-21.89
-44.23
-67.85
-91.84
-115.00
-136.28
-155.13
-171.41
-185.13
-195.97
-203.12
-205.50
-202.28
-193.49
-180.26
-164.45
-148.01
-132.21
-117.41
-103.23
-89.13
-74.98
-61.12
-48.20
-36.63
-26.33
-16.76
-7.29
2.44
12.22
21.49
29.60
36.10
40.90
44.11
45.85
46.08
44.71
41.72
37.37
32.23
27.04
22.45
18.91
16.54
15.26
14.91
15.31
16.30
17.72
19.40
21.16
22.82
24.13
24.87
24.79
23.75
21.80
19.29
16.75
14.73
13.54
13.14
13.17
13.11
12.52
11.22
9.23
6.74
4.03
1.44
-0.59
-1.51
-0.88
1.53
5.54
10.55
15.80
20.67
24.89
28.44
31.47
34.00
35.87
36.81
36.64
35.47
33.59
31.40
29.20
27.12
25.10
23.07
20.96
18.81
16.68
14.64
12.75
11.07
9.64
8.42
7.27
5.93
4.17
1.94
-0.59
-3.04
-5.04
-6.42
-7.27
-7.82
-8.22
-8.37
-7.90
-6.39
-3.70
-0.09
3.69
6.75
8.49
8.87
8.49
8.30
9.08
11.10
13.94
16.82
18.97
20.05
20.14
19.56
18.53
16.97
14.59
11.21
6.98
2.43
-1.73
-5.01
-7.26
-8.78
-10.00
-11.27
-12.64
-13.95
-14.91
-15.22
-14.82
-13.81
-12.53
-11.43
-10.93
-11.32
-12.62
-14.67
-17.12
-19.64
-21.98
-23.96
-25.61
-26.99
-28.21
-29.37
-30.43
-31.22
-31.37
-30.47
-28.11
-24.08
-18.44
-11.52
-3.85
3.92
11.10
17.02
21.16
23.24
23.29
21.66
18.96
15.93
13.28
11.64
11.40
12.70
15.32
18.64
21.74
23.65
23.64
21.55
17.98
14.16
11.56
11.21
13.30
17.06
21.13
24.14
25.30
24.57
22.49
19.72
16.66
13.45
10.02
6.44
3.04
0.30
-1.42
-2.12
-2.20
-2.25
-2.77
-3.91
-5.49
-7.12
-8.46
-9.41
-10.16
-11.04
-12.35
-14.15
-16.29
-18.40
-20.10
-21.16
-21.54
-21.42
-21.10
-20.88
-20.92
-21.21
-21.53
-21.62
-21.20
-20.09
-18.21
-15.50
-11.88
-7.30
-1.81
4.28
10.39
15.81
19.90
22.36
23.31
23.26
22.85
22.68
23.10
24.16
25.62
27.03
27.86
27.64
26.07
23.07
18.89
13.98
8.96
4.46
1.05
-0.95
-1.51
-0.91
0.31
1.62
2.65
3.28
3.63
3.84
3.90
3.63
2.79
1.20
-1.06
-3.70
-6.39
-8.86
-11.07
-13.05
-14.83
-16.36
-17.45
-17.94
-17.80
-17.17
-16.29
-15.42
-14.68
-14.02
-13.32
-12.40
-11.19
-9.70
-8.09
-6.58
-5.41
-4.72
-4.44
-4.31
-3.85
-2.54
-0.06
3.54
7.87
12.33
16.44
20.13
23.81
28.10
33.48
39.89
46.57
52.33
55.93
56.65
54.57
50.62
46.34
43.44
43.40
46.95
53.44
60.62
64.77
61.71
48.32
24.05
-8.40
-43.64
-75.31
-98.22
-109.92
-110.92
-103.71
-91.36
-76.31
-60.15
-44.06
-29.33
-17.48
-9.83
-6.84
-7.79
-10.95
-14.24
-16.13
-16.09
-14.62
-12.79
-11.59
-11.52
-12.40
-13.55
-14.22
-13.89
-12.61
-10.90
-9.52
-9.11
-9.83
-11.36
-13.11
-14.43
-14.94
-14.52
-13.18
-10.99
-7.97
-4.21
0.01
4.19
7.78
10.40
11.93
12.59
12.71
12.68
12.71
12.88
13.11
13.29
13.31
13.13
12.80
12.43
12.11
11.92
11.85
11.87
11.96
12.13
12.39
12.64
12.66
12.11
10.70
8.37
5.37
2.17
-0.79
-3.28
-5.30
-7.02
-8.57
-9.94
-10.98
-11.52
-11.52
-11.06
-10.31
-9.40
-8.32
-6.99
-5.39
-3.60
-1.84
-0.39
0.57
1.02
1.08
0.95
0.76
0.53
0.20
-0.37
-1.25
-2.41
-3.69
-4.78
-5.38
-5.20
-4.15
-2.30
0.11
2.80
5.47
7.80
9.50
10.26
9.88
8.37
6.03
3.37
0.94
-0.83
-1.81
-2.09
-1.87
-1.32
-0.49
0.60
1.89
3.28
4.69
6.16
7.89
10.15
13.05
16.41
19.72
22.33
23.74
23.93
23.36
22.83
23.16
24.75
27.46
30.62
33.46
35.39
36.27
36.40
36.35
36.74
37.99
40.24
43.20
46.14
47.82
46.75
41.70
32.31
19.61
5.93
-5.66
-12.50
-13.17
-8.10
0.76
10.64
18.95
24.14
25.97
25.36
23.69
22.10
20.92
19.70
17.40
13.07
6.37
-2.33
-12.17
-22.25
-31.73
-39.80
-45.43
-47.71
-46.06
-40.81
-33.43
-26.21
-21.37
-20.12
-22.14
-25.73
-29.16
-31.26
-31.81
-31.45
-31.20
-32.05
-34.44
-38.17
-42.49
-47.25
-52.44
-58.03
-63.77
-69.15
-73.65
-76.74
-77.83
-76.39
-73.37
-70.08
-67.54
-65.93
-64.71
-63.12
-60.62
-56.94
-52.01
-47.57
-45.29
-46.16
-50.17
-57.16
-67.71
-83.35
-105.54
-123.87
-128.75
-114.72
-84.21
-45.04
-5.24
29.90
58.03
79.34
95.66
107.63
115.36
118.86
118.68
116.08
112.56
109.47
107.97
108.93
111.43
113.81
114.65
113.42
110.00
105.48
100.79
96.74
93.95
92.14
90.63
89.33
88.93
90.62
95.35
103.10
113.01
123.62
133.10
139.63
142.60
142.49
140.37
136.99
132.07
124.36
111.74
95.42
75.80
53.74
30.37
6.65
-16.92
-40.07
-62.24
-82.06
-97.44
-106.95
-110.01
-107.57
-101.93
-96.06
-92.86
-94.05
-99.83
-109.05
-120.48
-133.02
-146.10
-159.46
-172.77
-185.87
-198.33
-209.60
-219.35
-228.06
-236.17
-243.22
-247.39
-246.32
-239.39
-227.87
-214.47
-202.32
-193.91
-189.51
-186.48
-179.76
-164.16
-137.66
-100.70
-55.22
-3.95
49.33
99.99
143.50
176.37
195.82
198.48
182.91
151.17
108.52
61.21
14.61
-27.32
-61.87
-75.02
-59.22
-19.75
27.88
69.19
96.92
110.11
110.27
104.48
98.59
94.51
92.19
90.66
88.55
84.54
75.80
59.92
36.72
7.86
-24.57
-57.31
-86.21
-107.62
-120.16
-125.11
-124.76
-120.27
-111.23
-96.55
-74.55
-44.25
-6.76
33.77
70.82
98.08
112.62
115.64
111.89
108.42
112.42
128.81
158.20
196.31
234.91
264.77
277.46
267.40
233.55
179.74
113.48
43.11
-23.82
-82.30
-128.30
-159.75
-176.55
-180.26
-173.50
-159.48
-142.22
-125.11
-111.17
-100.06
-89.98
-78.81
-64.85
-46.95
-24.95
-1.00
22.47
42.49
60.28
79.26
102.95
133.34
170.14
211.08
251.57
288.27
300.70
277.03
222.02
154.22
92.02
44.49
18.14
5.51
0.81
-0.77
-0.20
2.47
3.17
-1.68
-14.21
-33.65
-59.69
-85.92
-106.24
-116.61
-117.89
-114.19
-109.66
-106.43
-103.97
-100.58
-93.75
-83.22
-69.27
-53.37
-36.09
-17.96
0.78
20.32
40.76
61.64
80.53
94.81
102.61
103.66
99.32
92.07
80.93
66.96
51.47
35.09
18.39
2.20
-12.33
-24.31
-33.47
-40.22
-44.93
-48.21
-50.52
-51.84
-51.59
-49.00
-43.77
-36.31
-27.60
-18.28
-9.02
-0.46
6.72
11.72
13.78
12.49
8.22
2.15
-3.97
-8.91
-12.51
-15.73
-20.19
-27.31
-37.49
-49.72
-61.77
-70.82
-74.52
-71.75
-62.97
-49.91
-34.96
-20.41
-7.78
2.25
9.76
14.97
17.95
18.64
17.11
13.89
10.04
6.91
5.69
6.94
10.39
15.18
20.18
24.56
28.07
31.11
34.50
39.09
45.32
52.93
60.88
67.59
71.44
71.25
66.66
58.21
47.13
35.03
23.60
14.47
9.04
8.30
12.69
21.81
34.47
48.87
63.17
75.90
86.42
94.87
101.92
108.30
114.50
120.69
126.74
132.39
137.24
140.81
142.50
141.65
137.79
130.76
120.82
108.66
95.19
81.53
68.78
57.87
49.41
43.46
39.56
36.98
35.01
33.32
32.05
31.66
32.42
34.02
35.39
34.85
30.59
21.32
6.79
-12.02
-33.12
-54.15
-73.25
-89.59
-103.50
-116.08
-128.57
-141.80
-156.16
-171.65
-188.10
-205.12
-221.87
-236.98
-248.74
-255.67
-257.08
-253.35
-245.63
-235.26
-223.01
-209.02
-193.15
-175.47
-156.75
-138.43
-122.09
-108.82
-98.96
-92.14
-87.48
-84.22
-81.94
-80.68
-80.91
-83.24
-88.19
-95.88
-105.85
-116.94
-127.42
-135.37
-139.18
-138.19
-132.97
-125.13
-116.81
-109.76
-104.67
-100.88
-96.56
-89.38
-77.34
-59.41
-35.76
-7.51
24.00
57.84
93.70
131.64
171.49
212.14
251.35
285.69
311.00
323.18
319.13
297.76
260.46
211.08
154.98
97.59
42.86
-7.60
-54.23
-98.40
-140.84
-180.55
-214.64
-239.37
-251.46
-249.30
-233.40
-205.93
-169.72
-127.20
-79.76
-27.95
27.73
85.86
143.49
196.23
239.07
267.69
279.60
274.80
255.53
225.58
189.45
151.72
116.62
87.85
68.26
59.51
61.67
73.02
90.26
109.09
125.11
134.72
135.87
128.31
113.40
93.28
70.11
45.06
18.18
-11.30
-44.16
-80.15
-117.75
-154.54
-188.11
-217.02
-241.30
-262.24
-281.75
-301.36
-321.42
-340.87
-357.37
-368.06
-370.49
-363.41
-347.01
-322.45
-291.17
-254.15
-211.71
-163.88
-110.74
-52.70
9.54
75.07
142.42
208.95
270.47
321.54
356.88
373.28
370.93
353.64
327.40
298.35
271.03
247.82
229.59
216.78
210.06
209.96
216.00
225.99
236.33
243.11
243.54
236.96
224.77
209.64
194.11
179.45
165.37
150.24
132.03
109.28
81.69
50.16
16.21
-18.84
-54.55
-91.48
-130.76
-173.11
-217.89
-262.69
-303.84
-337.45
-360.78
-372.85
-374.42
-367.14
-352.51
-331.39
-304.28
-272.18
-237.31
-203.11
-173.16
-149.84
-133.36
-121.99
-113.27
-105.55
-98.76
-94.04
-92.56
-94.17
-97.17
-99.08
-97.90
-93.28
-86.43
-79.25
-73.08
-68.08
-63.36
-57.85
-51.08
-43.44
-35.69
-28.27
-20.70
-11.83
-0.35
14.25
31.30
49.07
65.31
78.06
86.19
89.49
88.53
84.30
77.83
70.05
61.71
53.57
46.49
41.31
38.76
39.13
42.21
47.41
54.05
61.60
69.64
77.65
84.76
89.78
91.52
89.22
82.81
72.98
60.88
47.84
35.11
23.74
14.55
7.90
3.62
0.93
-1.22
-3.83
-7.44
-12.07
-17.39
-23.03
-28.85
-34.88
-41.09
-47.09
-51.99
-54.56
-53.55
-48.18
-38.46
-25.27
-10.16
5.14
19.11
30.83
39.95
46.65
51.42
54.85
57.66
60.57
64.20
68.86
74.49
80.60
86.47
91.39
94.77
96.24
95.68
93.12
88.91
83.64
78.15
73.30
69.73
67.69
66.97
67.05
67.26
66.96
65.71
63.36
60.00
55.93
51.51
47.07
42.80
38.74
34.90
31.23
27.73
24.35
21.05
17.82
14.67
11.70
8.95
6.33
3.45
-0.32
-5.54
-12.47
-20.65
-28.89
-35.43
-38.55
-37.12
-31.13
-21.64
-10.47
0.48
9.87
17.14
22.50
26.52
29.75
32.46
34.71
36.42
37.54
38.08
38.08
37.56
36.58
35.37
34.39
34.30
35.71
38.92
43.72
49.31
54.50
58.07
59.17
57.56
53.61
48.17
42.22
36.63
32.04
28.80
27.06
26.71
27.35
28.30
28.78
28.06
25.79
22.12
17.59
13.00
9.04
6.18
4.55
3.98
4.10
4.38
4.22
3.07
0.58
-3.29
-8.17
-13.46
-18.46
-22.62
-25.75
-27.97
-29.69
-31.46
-33.87
-37.32
-41.94
-47.35
-52.61
-56.34
-57.06
-53.65
-45.85
-34.41
-20.92
-7.32
4.67
14.00
20.40
24.17
25.92
26.24
25.63
24.50
23.18
22.02
21.28
21.11
21.46
22.22
23.18
24.28
25.51
26.92
28.60
30.52
32.54
34.43
35.86
36.55
36.29
35.01
32.81
29.93
26.80
23.79
21.25
19.33
18.00
17.09
16.38
15.67
14.84
13.86
12.73
11.51
10.21
8.84
7.41
5.94
4.41
2.83
1.16
-0.63
-2.55
-4.65
-7.00
-9.64
-12.60
-15.76
-18.99
-22.05
-24.79
-27.09
-28.98
-30.56
-32.03
-33.65
-35.74
-38.56
-42.25
-46.61
-51.06
-54.59
-56.03
-54.39
-49.21
-40.80
-30.21
-18.90
-8.34
0.45
7.11
11.76
14.86
16.83
17.95
18.35
18.13
17.48
16.69
16.06
15.84
16.11
16.83
17.88
19.12
20.45
21.85
23.31
24.85
26.39
27.71
28.48
28.41
27.36
25.48
23.21
21.05
19.39
18.39
17.93
17.75
17.56
17.18
16.53
15.54
14.24
12.66
10.89
9.06
7.34
5.81
4.52
3.40
2.38
1.37
0.30
-0.90
-2.28
-3.85
-5.61
-7.55
-9.70
-12.17
-15.06
-18.39
-22.01
-25.57
-28.64
-30.90
-32.36
-33.38
-34.58
-36.55
-39.58
-43.47
-47.53
-50.71
-51.99
-50.62
-46.31
-39.43
-30.79
-21.52
-12.69
-5.09
0.92
5.37
8.49
10.55
11.70
11.96
11.34
9.97
8.14
6.29
4.86
4.14
4.23
5.01
6.30
7.91
9.78
11.82
13.91
15.81
17.29
18.11
18.20
17.59
16.42
14.78
12.74
10.33
7.62
4.75
1.97
-0.55
-2.63
-4.31
-5.66
-6.81
-7.82
-8.74
-9.55
-10.30
-11.17
-12.38
-14.14
-16.47
-19.16
-21.85
-24.17
-25.98
-27.39
-28.71
-30.31
-32.45
-35.22
-38.50
-41.98
-45.13
-47.23
-47.48
-45.25
-40.32
-33.06
-24.35
-15.30
-6.89
0.29
6.00
10.29
13.22
14.80
15.06
14.18
12.52
10.62
9.02
8.08
7.90
8.34
9.18
10.24
11.43
12.72
14.05
15.37
16.55
17.54
18.28
18.78
18.99
18.78
18.04
16.72
14.95
12.99
11.09
9.42
7.99
6.67
5.33
3.87
2.29
0.81
-0.39
-1.26
-1.93
-2.63
-3.48
-4.58
-5.90
-7.35
-8.73
-9.96
-11.14
-12.52
-14.33
-16.62
-19.22
-21.92
-24.49
-26.63
-28.30
-29.79
-31.62
-34.27
-37.98
-42.69
-47.98
-53.07
-56.10
-55.55
-50.78
-42.36
-31.61
-20.06
-9.21
-0.14
6.63
12.71
19.54
27.37
35.30
42.18
47.41
50.86
52.63
52.90
54.47
59.28
67.68
78.59
90.99
104.45
118.66
132.88
146.00
160.28
177.30
197.29
219.16
241.92
265.13
288.13
309.46
306.38
265.75
190.18
96.46
2.16
-82.23
-152.40
-207.55
-248.86
-281.94
-307.74
-325.99
-335.92
-337.10
-328.94
-311.06
-284.04
-249.46
-203.76
-140.46
-64.11
11.03
67.04
92.16
86.18
58.88
24.33
-5.19
-22.40
-27.60
-25.17
-20.02
-14.40
-8.00
0.09
9.59
18.78
25.78
28.96
28.76
26.96
25.98
27.77
32.81
40.06
47.58
53.47
56.08
56.14
54.99
54.26
55.24
58.30
62.93
68.12
72.74
76.21
79.11
81.98
85.11
88.69
92.87
97.62
102.75
107.88
112.87
118.20
123.61
127.20
127.60
124.75
119.56
112.70
103.76
91.06
78.54
66.87
52.03
30.97
3.77
-26.78
-57.71
-87.03
-113.50
-136.16
-155.55
-178.65
-210.24
-249.62
-291.53
-330.37
-362.38
-385.60
-399.28
-404.68
-412.02
-428.88
-455.97
-488.75
-523.21
-558.66
-596.23
-636.17
-625.93
-539.07
-389.23
-217.04
-57.05
73.72
170.16
233.79
270.79
289.93
292.21
279.60
257.14
231.92
209.13
191.05
178.55
172.19
172.09
171.60
166.38
156.75
147.11
141.69
142.55
150.18
164.13
183.50
200.40
210.61
213.68
212.44
210.25
209.19
209.47
209.16
204.81
190.99
165.29
129.74
90.31
53.81
24.98
5.14
-7.29
-15.21
-21.54
-27.09
-31.20
-32.88
-32.17
-30.73
-30.45
-32.70
-37.53
-43.80
-49.56
-53.20
-54.10
-52.72
-50.34
-48.39
-47.98
-49.60
-53.18
-58.21
-63.84
-68.71
-70.77
-67.68
-57.70
-40.76
-18.94
3.99
23.96
38.11
45.91
48.95
49.78
50.52
51.98
53.73
54.82
54.58
52.66
49.32
45.03
40.18
34.95
29.34
23.37
17.23
11.21
5.60
0.55
-4.05
-8.58
-13.40
-18.60
-23.87
-28.43
-31.39
-32.21
-31.19
-29.43
-28.91
-31.88
-39.87
-52.97
-69.54
-86.87
-102.00
-112.56
-117.19
-116.05
-110.71
-103.52
-96.99
-93.20
-93.51
-98.35
-107.06
-117.51
-127.18
-134.14
-137.44
-137.30
-135.04
-132.58
-131.81
-133.90
-137.24
-139.47
-138.50
-132.50
-119.83
-99.51
-71.96
-39.47
-5.80
27.58
58.44
83.30
99.01
104.53
100.73
89.47
72.98
54.05
41.07
41.23
56.94
86.28
125.20
168.38
210.68
247.94
278.26
308.50
344.53
385.81
426.12
457.97
475.16
476.24
464.09
406.61
300.18
172.53
59.00
-24.38
-81.42
-123.59
-158.17
-187.90
-211.57
-224.48
-223.21
-209.43
-187.69
-161.14
-131.73
-97.56
-56.54
-13.22
22.44
38.00
24.80
-14.47
-57.30
-95.12
-122.28
-136.76
-141.94
-138.59
-128.21
-113.59
-97.59
-82.06
-69.55
-60.13
-53.94
-51.58
-51.50
-51.26
-48.93
-43.76
-36.30
-29.23
-23.81
-20.95
-21.42
-24.46
-28.37
-31.37
-32.27
-31.04
-29.36
-28.30
-28.71
-31.16
-35.38
-40.22
-44.03
-45.41
-43.72
-39.58
-33.56
-26.31
-18.44
-10.36
-2.29
5.75
13.66
21.20
27.88
33.33
37.20
39.22
39.31
37.70
35.01
32.16
29.98
29.04
29.47
31.01
33.19
35.55
37.78
39.72
41.37
42.76
43.98
44.96
45.58
45.56
44.59
42.37
38.82
34.16
28.90
23.71
19.16
15.52
12.73
10.41
8.15
5.68
2.97
0.20
-2.41
-4.78
-7.03
-9.47
-12.38
-15.91
-19.95
-24.12
-27.89
-30.62
-31.80
-31.13
-28.51
-24.08
-18.08
-10.86
-2.86
5.43
13.43
20.53
26.26
30.41
33.02
34.38
34.83
34.66
34.08
33.18
32.12
31.13
30.51
30.55
31.42
33.10
35.41
38.01
40.57
42.75
44.35
45.32
45.65
45.43
44.78
43.81
42.65
41.44
40.31
39.43
38.87
38.62
38.59
38.68
38.81
39.05
39.62
40.69
42.23
44.07
45.91
47.55
49.06
50.73
52.89
55.68
58.93
62.15
64.84
66.76
68.05
69.36
71.68
76.11
83.46
93.80
106.18
118.73
129.08
135.13
135.65
130.54
120.53
106.55
89.24
68.85
45.57
20.07
-6.25
-31.40
-53.38
-70.73
-82.93
-90.22
-93.32
-92.96
-89.69
-83.92
-76.00
-66.48
-56.03
-45.54
-36.00
-28.46
-23.84
-22.72
-24.93
-29.44
-34.66
-38.89
-41.00
-40.88
-39.28
-37.34
-35.85
-34.90
-33.88
-32.03
-28.83
-24.36
-19.13
-13.78
-8.79
-4.39
-0.71
2.13
4.03
5.08
5.67
6.40
7.82
10.14
13.03
15.57
16.97
16.98
15.91
14.31
12.65
11.18
9.99
9.34
9.65
11.73
16.56
24.87
36.73
51.70
69.30
89.26
111.48
134.94
157.80
177.35
190.18
193.02
183.87
163.03
132.87
97.01
57.52
16.38
-24.25
-62.33
-96.66
-126.99
-153.74
-178.54
-203.75
-234.96
-274.89
-321.29
-367.83
-407.31
-434.10
-445.33
-442.55
-430.55
-420.79
-421.40
-433.65
-453.00
-473.26
-488.63
-493.74
-485.58
-462.72
-432.25
-399.76
-366.74
-332.22
-296.62
-262.13
-230.51
-204.08
-143.68
-39.85
84.57
195.81
277.31
331.20
362.98
386.64
408.87
432.58
452.50
466.58
475.98
483.22
487.78
486.28
476.35
457.26
431.98
400.72
366.40
334.63
311.12
298.07
293.85
294.90
295.67
290.96
273.85
241.63
197.33
147.79
99.73
57.25
21.68
-8.66
-36.58
-66.39
-100.98
-140.92
-184.56
-228.75
-268.93
-299.58
-316.32
-317.94
-308.35
-294.77
-284.42
-280.93
-282.48
-282.84
-274.52
-252.71
-217.06
-170.90
-118.87
-64.88
-11.70
37.79
79.61
109.03
122.67
120.51
106.87
88.91
73.88
66.70
68.83
78.91
94.08
111.14
126.97
138.70
143.81
140.80
129.81
112.69
92.05
69.97
46.93
21.56
-8.37
-44.36
-85.60
-128.63
-168.49
-201.09
-225.29
-243.70
-261.14
-281.57
-304.98
-326.30
-337.15
-329.68
-300.43
-252.13
-192.48
-130.76
-73.96
-24.81
18.07
58.15
98.87
142.42
189.51
239.21
288.77
333.50
367.20
383.66
378.95
353.07
310.09
256.44
198.22
139.14
80.03
19.79
-43.11
-109.45
-178.81
-249.44
-318.13
-380.06
-429.20
-459.59
-467.36
-452.37
-418.47
-372.29
-320.87
-269.90
-223.05
-182.40
-149.17
-123.84
-105.70
-92.33
-79.94
-64.76
-44.70
-20.42
4.97
27.59
44.82
56.61
65.42
74.70
86.94
102.34
118.79
133.00
142.22
145.57
144.32
141.26
139.26
139.96
143.30
147.89
152.07
154.80
156.32
157.94
161.76
169.95
184.14
204.45
228.74
252.19
267.95
268.84
249.77
209.92
153.50
88.67
24.75
-30.87
-74.67
-107.01
-130.62
-148.44
-162.30
-172.89
-180.32
-184.81
-186.61
-185.27
-179.03
-164.99
-140.38
-104.36
-59.46
-11.31
32.95
67.23
88.52
97.44
97.50
93.41
89.54
88.96
93.26
102.60
115.90
130.91
144.39
152.74
152.97
143.78
126.31
103.94
81.37
63.31
53.28
52.93
62.11
79.23
101.86
127.41
153.72
179.29
203.52
226.47
248.32
268.64
285.83
297.27
300.06
292.47
275.16
251.62
227.16
206.80
192.97
184.23
175.73
161.19
135.30
95.69
43.45
-17.74
-82.89
-146.91
-205.05
-252.81
-285.86
-300.44
-294.10
-266.73
-221.06
-162.44
-97.79
-34.20
22.22
67.00
97.31
111.68
109.77
92.52
62.51
23.93
-17.98
-58.18
-92.96
-120.48
-140.35
-152.79
-157.98
-156.24
-148.72
-137.96
-127.63
-121.23
-120.45
-124.30
-129.53
-132.04
-128.84
-119.21
-104.84
-89.18
-76.25
-69.65
-71.88
-83.85
-104.59
-131.25
-159.52
-184.66
-202.78
-211.90
-212.41
-206.78
-198.66
-191.66
-188.17
-188.60
-191.30
-193.11
-190.35
-179.64
-158.78
-127.27
-86.54
-39.94
7.84
51.75
87.79
114.36
133.22
148.42
164.12
182.29
201.96
220.27
234.43
243.51
248.87
253.73
260.56
269.08
275.91
276.80
269.53
255.38
238.52
224.06
216.76
218.46
226.87
235.72
237.67
227.47
203.16
165.51
116.81
61.61
5.59
-45.13
-84.98
-108.86
-112.47
-94.27
-57.04
-16.90
8.04
7.98
-11.89
-39.44
-65.40
-86.12
-101.98
-114.82
-125.79
-133.04
-133.26
-124.02
-105.94
-83.45
-61.82
-45.97
-39.64
-44.65
-59.31
-80.55
-101.40
-116.14
-122.24
-120.10
-112.25
-102.04
-92.14
-83.26
-74.71
-65.47
-56.11
-48.45
-44.18
-44.19
-48.62
-55.97
-64.18
-71.55
-77.08
-81.70
-87.55
-96.68
-109.91
-126.08
-141.97
-153.30
-156.34
-149.06
-132.28
-109.07
-83.23
-57.98
-34.94
-14.03
5.84
24.02
39.54
51.69
60.74
67.98
74.83
81.92
88.77
93.67
94.77
91.52
85.12
78.38
74.42
75.25
81.71
93.74
110.09
128.26
144.92
156.64
161.30
158.66
149.93
138.26
128.04
122.87
124.17
130.75
139.57
147.25
150.14
143.79
124.65
91.65
46.41
-6.84
-61.78
-110.91
-144.58
-151.15
-129.75
-92.22
-53.06
-20.35
5.22
27.11
45.86
58.58
60.55
47.20
18.17
-21.40
-63.22
-93.68
-102.65
-89.72
-62.96
-33.22
-8.51
9.46
24.01
39.01
56.16
73.44
87.11
94.23
95.21
92.09
88.19
86.87
89.68
96.22
103.66
108.27
107.35
100.02
86.82
68.77
50.87
35.08
21.24
6.89
-11.36
-36.05
-67.86
-104.84
-142.87
-177.25
-205.24
-226.24
-242.37
-257.54
-275.68
-299.47
-327.64
-354.60
-372.39
-374.29
-356.31
-318.49
-264.82
-202.48
-141.58
-91.93
-60.96
-52.79
-66.97
-96.47
-128.78
-150.14
-151.51
-133.85
-105.50
-76.70
-54.39
-39.01
-24.41
-2.50
31.28
82.66
140.82
185.04
201.92
193.86
173.14
151.78
135.43
123.75
114.01
104.06
94.04
86.85
84.34
84.64
82.96
73.34
52.02
16.49
-27.51
-70.02
-102.36
-121.31
-131.21
-134.57
-132.70
-125.77
-113.71
-97.09
-77.00
-53.39
-26.55
3.49
37.16
73.84
112.24
150.89
188.86
226.55
265.86
308.35
353.26
396.33
430.21
447.33
442.77
415.97
370.48
312.48
248.77
185.71
129.51
87.31
67.74
78.56
121.70
190.87
272.06
347.55
402.21
427.49
423.91
398.90
361.45
315.01
260.28
198.47
133.83
74.13
25.07
-9.55
-29.13
-37.37
-46.55
-66.34
-98.12
-135.42
-166.81
-187.82
-197.52
-197.86
-194.43
-203.82
-237.94
-296.76
-369.70
-439.88
-502.05
-555.19
-599.51
-637.19
-682.64
-744.74
-819.77
-894.75
-952.36
-992.25
-1018.92
-1035.27
-965.57
-778.71
-511.18
-239.00
-52.55
66.87
140.36
179.50
201.86
215.87
216.23
200.85
177.20
158.61
160.95
188.95
232.57
277.36
311.45
321.84
304.82
267.93
224.75
192.92
173.97
164.44
163.09
169.85
178.52
183.50
185.12
184.85
188.99
196.12
194.77
178.62
149.48
111.17
67.68
28.57
-4.34
-26.88
-37.99
-37.55
-25.36
0.62
38.99
85.29
128.04
156.23
165.97
159.21
155.54
162.31
183.06
219.03
257.94
292.92
320.18
339.62
352.32
338.96
292.66
223.03
147.49
78.91
23.22
-19.54
-50.96
-73.09
-88.05
-95.88
-96.25
-90.81
-82.90
-74.70
-67.56
-62.32
-60.63
-64.93
-75.96
-92.99
-114.34
-137.32
-157.83
-171.81
-176.43
-171.19
-159.51
-143.55
-126.93
-114.23
-109.45
-114.45
-128.37
-148.20
-169.93
-189.56
-203.14
-206.75
-196.96
-171.74
-131.98
-81.62
-26.98
25.02
68.95
102.14
125.59
138.12
142.86
143.41
142.57
141.86
141.99
147.34
155.83
164.90
172.41
175.64
171.16
156.79
133.25
105.00
79.62
65.01
61.31
69.32
82.68
89.20
78.39
48.05
5.32
-37.82
-71.47
-91.53
-99.39
-100.36
-99.17
-97.46
-94.06
-87.30
-77.48
-67.69
-62.16
-63.21
-70.73
-80.48
-85.83
-80.34
-60.89
-29.47
7.46
40.43
61.48
67.54
61.18
48.10
34.06
22.46
14.04
9.06
7.20
9.99
19.33
35.36
54.29
69.10
72.21
57.78
28.65
-6.88
-38.59
-59.30
-65.51
-58.53
-43.38
-26.79
-15.15
-12.79
-22.29
-44.03
-74.79
-108.42
-138.10
-158.33
-166.37
-162.46
-148.39
-122.92
-88.52
-47.79
-2.50
45.57
93.49
136.42
167.51
179.96
168.41
132.49
80.33
27.02
-10.70
-20.28
2.41
51.83
115.23
175.23
215.55
226.89
208.38
165.43
106.86
41.99
-23.30
-76.82
-109.53
-121.23
-117.17
-102.68
-81.98
-58.89
-37.33
-21.02
-11.34
-8.56
-11.31
-17.00
-22.19
-25.50
-27.71
-30.56
-35.74
-42.94
-51.10
-58.64
-63.50
-64.12
-60.51
-54.02
-43.16
-28.06
-8.36
15.74
43.47
73.49
103.94
132.49
157.12
176.83
191.41
201.78
208.66
212.05
211.12
204.49
190.84
169.79
142.60
111.79
81.11
54.37
34.61
23.61
21.60
27.27
38.09
50.76
61.47
66.96
65.23
56.12
41.63
25.35
11.20
1.81
-2.64
-4.45
-6.99
-13.06
-23.71
-37.79
-52.77
-66.20
-76.93
-85.61
-94.08
-104.14
-116.73
-131.52
-147.24
-162.19
-174.93
-184.59
-191.14
-194.48
-193.98
-188.67
-177.87
-161.81
-141.93
-120.72
-101.01
-86.11
-77.32
-73.30
-70.99
-67.50
-61.40
-52.83
-43.58
-35.77
-33.27
-37.57
-46.99
-58.13
-68.29
-76.53
-82.94
-88.52
-93.83
-102.56
-116.31
-133.81
-152.38
-170.45
-187.82
-204.06
-219.00
-231.68
-245.76
-262.76
-280.55
-294.71
-301.79
-300.51
-290.85
-275.37
-227.06
-140.05
-31.22
72.85
155.79
214.81
250.46
271.20
280.16
278.60
263.79
236.94
203.59
171.40
145.54
127.43
117.36
113.58
115.17
119.07
125.07
135.67
153.81
179.91
211.50
245.08
274.29
292.47
292.18
269.96
227.42
170.31
105.98
38.66
-19.85
-58.39
-73.68
-72.32
-63.25
-52.51
-42.30
-32.66
-23.34
-14.04
-6.53
-3.00
-4.47
-9.54
-15.24
-18.65
-18.18
-14.11
-7.72
-1.93
0.53
-1.46
-7.25
-15.41
-24.91
-35.15
-45.31
-53.41
-57.33
-55.48
-47.84
-36.54
-25.33
-17.50
-13.75
-12.02
-9.07
-3.60
2.53
5.25
1.23
-9.71
-24.08
-36.21
-42.10
-40.71
-34.41
-26.67
-20.20
-15.58
-12.08
-9.33
-7.88
-10.31
-19.15
-34.85
-53.70
-70.12
-79.03
-77.82
-67.02
-48.27
-25.53
-3.75
12.55
22.54
27.59
30.81
36.15
47.70
69.73
102.09
139.47
172.65
193.62
196.70
180.78
150.11
101.91
45.82
-1.99
-25.25
-28.39
-17.49
1.89
26.92
55.87
87.04
118.43
147.04
171.17
191.45
211.83
234.94
258.21
274.90
276.96
257.86
215.85
156.16
88.58
24.30
-29.13
-71.22
-105.06
-134.13
-162.60
-192.97
-224.68
-255.94
-285.09
-311.42
-337.00
-362.79
-368.29
-340.34
-283.40
-214.68
-149.94
-103.98
-72.53
-53.52
-46.60
-51.72
-67.90
-93.62
-123.18
-147.66
-158.62
-150.33
-124.18
-85.95
-43.76
-8.05
13.61
20.01
15.56
6.79
0.22
-1.30
3.23
13.70
27.97
43.64
59.36
74.08
85.77
91.88
