1723050395.00
64.000000
-0.00
-0.00
-0.00
-0.00
-0.00
-0.00
-0.00
-0.00
-0.00
-0.00
0.00
0.01
0.01
-0.00
-0.03
-0.05
-0.05
0.00
0.13
0.36
0.66
1.01
1.37
1.72
2.06
2.40
2.79
3.24
3.80
4.42
5.06
5.67
6.21
6.70
7.19
7.74
8.43
9.33
10.39
11.48
12.51
13.40
14.22
15.12
16.31
17.94
20.24
23.01
25.98
28.87
31.50
33.96
36.54
39.69
43.72
49.03
55.28
61.94
68.45
74.44
79.97
85.53
91.82
99.38
108.79
119.55
130.91
141.96
152.15
161.49
170.59
180.77
190.77
202.92
217.85
235.70
255.28
273.65
286.46
289.02
277.91
252.32
214.70
168.96
119.47
69.49
20.53
-27.21
-73.90
-119.35
-162.67
-202.36
-237.49
-267.44
-291.85
-310.29
-321.95
-325.82
-321.60
-309.52
-290.36
-265.87
-238.14
-209.25
-180.81
-153.77
-128.45
-104.78
-82.51
-61.46
-41.83
-24.02
-8.56
4.16
13.95
21.35
26.86
31.02
34.27
36.80
38.67
39.91
40.53
40.63
40.35
39.79
39.08
38.25
37.32
36.23
34.90
33.30
31.41
29.27
26.92
24.41
21.86
19.37
17.04
14.96
13.18
11.76
10.71
9.94
9.39
8.99
8.65
8.32
7.94
7.48
6.94
6.31
5.62
4.86
4.05
3.18
2.29
1.37
0.43
-0.55
-1.55
-2.59
-3.65
-4.71
-5.72
-6.67
-7.47
-8.11
-8.57
-8.82
-8.83
-8.61
-8.20
-7.67
-7.04
-6.41
-5.84
-5.34
-4.98
-4.78
-4.71
-4.78
-4.89
-5.05
-5.19
-5.30
-5.33
-5.33
-5.31
-5.35
-5.48
-5.80
-6.34
-7.10
-8.12
-9.34
-10.68
-12.07
-13.42
-14.63
-15.62
-16.33
-16.74
-16.87
-16.77
-16.54
-16.24
-15.97
-15.80
-15.74
-15.72
-15.65
-15.43
-15.02
-14.29
-13.25
-11.86
-10.13
-8.00
-5.46
-2.53
0.74
4.27
7.83
11.20
14.20
16.70
18.63
20.11
21.29
22.31
23.11
23.53
23.29
22.00
19.46
15.58
10.45
4.29
-2.84
-10.95
-20.31
-31.28
-44.04
-58.42
-73.85
-89.27
-103.57
-115.89
-126.02
-134.40
-141.91
-149.60
-158.16
-167.55
-177.29
-186.59
-194.87
-201.97
-208.34
-214.97
-223.13
-234.05
-248.79
-267.54
-288.92
-309.85
-325.95
-332.73
-326.98
-308.00
-277.94
-241.05
-202.44
-166.40
-135.38
-109.47
-87.23
-66.49
-45.59
-23.63
-1.02
21.13
41.70
59.95
75.70
89.17
100.39
108.92
114.33
116.71
117.25
117.81
120.24
125.41
132.50
139.41
143.72
144.01
140.54
135.05
129.86
126.55
125.43
125.47
125.07
122.86
118.37
112.02
104.72
97.24
89.69
81.99
73.98
65.88
58.34
52.15
47.70
44.81
42.85
40.99
38.82
36.35
34.03
32.12
30.91
30.30
30.21
30.77
32.01
33.72
35.04
34.91
32.51
27.90
22.36
17.86
16.16
17.67
21.09
24.04
24.66
22.64
19.54
17.65
18.39
21.39
24.66
25.97
24.33
20.49
16.57
14.58
15.05
16.84
17.84
16.18
11.47
5.03
-0.93
-4.39
-4.72
-2.72
-0.24
1.06
0.68
-0.69
-1.52
-0.82
1.19
3.27
3.72
1.63
-2.20
-5.85
-7.00
-4.14
2.61
11.60
20.40
27.01
30.50
31.13
29.76
27.43
24.68
21.62
18.32
15.26
12.86
11.53
11.04
10.70
9.57
7.05
3.19
-1.48
-6.28
-10.34
-12.92
-13.57
-12.19
-9.12
-5.29
-1.91
0.04
0.34
-0.61
-1.90
-2.67
-2.49
-1.45
-0.02
1.03
1.02
-0.78
-4.58
-9.63
-14.38
-16.74
-15.26
-10.11
-3.00
3.28
6.72
6.87
4.98
3.17
3.13
4.87
7.51
9.68
10.47
9.93
8.68
7.49
6.73
6.37
6.02
5.22
3.82
1.92
0.07
-1.08
-0.91
0.64
3.31
6.76
10.59
14.77
18.66
21.26
21.07
17.08
9.79
1.12
-5.90
-8.88
-7.39
-3.01
1.58
3.86
2.89
-0.64
-5.17
-8.90
-10.77
-10.19
-7.27
-2.42
3.31
8.42
11.41
11.02
7.01
0.29
-7.17
-13.26
-16.19
-15.54
-12.53
-8.97
-6.68
-6.11
-6.42
-5.94
-3.57
0.28
4.15
6.18
5.53
2.92
0.14
-1.25
-0.85
0.40
0.94
0.21
-1.09
-1.19
1.34
6.65
13.01
17.77
19.07
16.48
11.32
5.91
2.40
1.44
2.63
4.60
5.84
5.48
3.37
0.36
-2.32
-3.30
-1.62
2.63
8.01
12.29
13.22
9.89
3.25
-4.35
-10.43
-13.77
-14.87
-15.16
-15.87
-17.07
-17.96
-17.46
-15.40
-12.60
-10.18
-8.89
-8.55
-8.07
-6.23
-2.64
2.28
7.39
11.78
15.08
17.67
20.45
23.91
27.67
30.46
30.66
26.82
19.03
8.77
-1.25
-8.34
-10.85
-8.88
-4.02
1.55
5.93
8.32
8.96
8.35
6.89
4.36
0.36
-5.12
-11.41
-17.15
-20.61
-20.53
-16.79
-10.04
-1.68
7.04
15.15
22.05
27.39
30.65
31.28
29.05
24.43
18.56
12.94
8.79
6.53
5.53
4.45
2.00
-2.53
-8.67
-14.88
-19.08
-19.44
-15.26
-7.40
1.83
9.66
13.92
14.05
11.03
6.98
4.10
3.41
4.53
5.90
5.73
2.92
-2.70
-10.05
-17.56
-23.66
-27.05
-27.14
-23.97
-18.26
-11.31
-4.48
0.91
3.77
3.62
0.55
-4.57
-10.20
-14.71
-16.86
-16.23
-13.48
-9.72
-5.97
-2.95
-0.57
1.32
2.54
2.65
1.28
-1.49
-4.94
-7.98
-9.72
-9.90
-8.65
-6.34
-2.93
1.74
7.66
14.21
20.35
24.68
26.25
25.12
22.03
18.08
13.99
10.25
7.14
4.94
4.03
4.67
6.36
8.20
9.07
8.17
5.41
1.46
-2.68
-6.13
-8.40
-9.55
-9.92
-9.93
-9.90
-10.01
-10.06
-9.85
-9.15
-7.82
-5.90
-3.56
-0.95
1.67
4.02
5.73
6.48
6.36
5.76
5.37
5.54
5.96
5.84
4.20
0.66
-4.35
-9.84
-14.82
-18.56
-20.76
-21.09
-19.04
-14.16
-6.86
1.27
7.88
11.07
10.13
6.46
2.57
0.83
2.22
6.10
10.89
15.21
18.42
20.91
23.10
24.86
25.51
23.97
19.70
13.26
5.98
-0.14
-3.99
-5.43
-5.69
-6.51
-9.42
-14.38
-20.19
-24.73
-26.09
-23.47
-17.83
-11.40
-6.84
-5.65
-7.80
-11.32
-13.70
-12.77
-8.06
-0.73
7.14
13.76
18.12
20.53
21.73
22.21
21.80
19.81
15.75
10.13
4.20
-0.14
-1.52
0.32
4.26
8.26
10.03
8.64
4.74
0.42
-2.14
-1.73
1.06
4.25
6.04
5.93
4.94
5.10
7.46
11.33
14.10
12.63
5.10
-7.44
-21.52
-32.53
-37.04
-34.49
-27.01
-18.44
-12.33
-10.34
-11.75
-14.25
-15.49
-14.35
-11.01
-6.41
-1.49
3.43
8.17
12.57
15.62
16.08
13.01
6.37
-2.41
-10.95
-16.76
-17.99
-14.43
-7.65
0.03
6.31
9.83
10.56
9.24
6.76
3.63
-0.06
-4.18
-8.07
-10.47
-10.30
-6.94
-0.79
6.95
14.57
20.79
24.82
26.51
26.11
23.80
19.79
14.25
7.63
0.63
-6.02
-11.71
-16.24
-19.58
-21.75
-22.29
-20.81
-16.77
-10.19
-2.00
6.36
13.31
17.69
19.06
18.03
15.42
12.15
9.10
6.73
5.26
4.91
5.83
7.81
10.71
13.97
16.68
17.77
16.30
11.85
4.83
-3.50
-11.35
-17.13
-19.85
-19.58
-17.07
-13.39
-9.46
-6.05
-3.62
-2.67
-3.65
-6.58
-10.61
-14.29
-16.14
-15.25
-11.82
-7.11
-2.66
0.41
1.65
1.41
0.43
-0.65
-1.27
-1.08
-0.01
1.57
2.87
3.03
1.42
-1.77
-5.39
-7.92
-8.07
-5.44
-0.73
4.89
10.15
14.33
17.27
18.86
19.11
17.84
15.17
11.88
8.94
7.43
7.72
9.05
9.84
8.53
4.73
-0.36
-4.49
-5.80
-3.97
-0.62
1.80
1.75
-0.52
-3.00
-3.66
-1.99
0.50
1.35
-1.14
-6.30
-11.60
-13.76
-11.31
-5.21
1.75
6.47
7.33
4.86
1.19
-1.25
-1.30
0.74
3.42
5.28
5.61
4.67
3.14
1.88
1.32
1.41
2.03
2.69
2.98
2.42
0.69
-2.16
-5.49
-8.50
-10.24
-10.22
-8.63
-6.19
-3.96
-2.55
-2.21
-2.75
-3.84
-5.22
-6.73
-8.19
-9.37
-10.02
-9.86
-8.70
-6.29
-2.59
2.10
6.72
9.63
9.58
6.23
0.54
-5.45
-9.77
-11.03
-9.30
-5.80
-2.05
1.06
3.36
5.35
7.43
9.34
10.26
9.47
7.12
4.20
2.15
2.06
3.77
6.12
7.41
6.31
2.76
-2.06
-6.27
-8.25
-7.46
-4.46
-0.47
3.35
6.66
9.67
12.97
16.54
19.34
19.90
17.07
10.84
2.61
-5.39
-11.33
-14.44
-15.01
-13.82
-11.42
-7.77
-2.34
4.75
12.19
17.72
18.64
13.69
4.00
-6.85
-14.33
-15.14
-8.85
1.87
12.73
19.79
21.16
17.25
10.21
2.27
-4.84
-10.26
-13.47
-13.95
-11.46
-6.58
-0.75
3.88
5.53
3.60
-1.05
-6.26
-9.78
-10.10
-6.66
-0.41
6.51
11.53
12.35
8.29
0.61
-7.85
-13.93
-15.72
-13.31
-8.88
-5.18
-4.03
-5.61
-8.52
-10.67
-10.82
-8.91
-6.18
-4.10
-3.33
-3.70
-4.48
-4.65
-3.63
-1.45
1.53
4.54
7.12
8.99
9.91
9.81
8.71
6.57
3.36
-0.77
-5.44
-9.92
-13.18
-14.11
-12.26
-8.24
-3.86
-1.24
-1.36
-3.62
-5.92
-5.82
-2.03
4.89
12.84
19.15
22.06
21.08
16.73
10.21
3.08
-2.81
-5.77
-4.85
-0.39
5.60
10.24
11.24
8.21
2.74
-2.54
-5.56
-5.65
-3.51
-0.42
2.59
5.34
8.08
10.73
12.74
13.09
10.92
6.03
-0.79
-7.74
-12.82
-14.34
-11.86
-6.17
0.91
7.36
11.74
13.30
12.27
9.17
4.56
-0.72
-5.70
-9.32
-10.67
-9.47
-6.61
-3.64
-2.28
-3.18
-5.62
-7.82
-7.83
-4.73
0.90
7.23
12.37
15.14
15.50
14.10
11.57
7.92
2.79
-3.92
-11.61
-18.57
-22.94
-23.48
-20.13
-14.27
-7.60
-1.72
2.46
4.86
5.77
5.53
4.37
2.48
0.20
-1.82
-3.22
-3.74
-3.83
-4.58
-6.68
-9.93
-12.81
-13.30
-9.97
-2.95
5.86
13.62
18.03
18.23
15.32
11.50
8.65
7.70
7.98
7.86
6.10
2.04
-3.50
-9.06
-13.20
-15.12
-15.12
-14.35
-14.02
-14.68
-15.90
-16.22
-14.59
-10.81
-6.06
-2.51
-2.07
-5.61
-12.19
-19.61
-25.22
-26.77
-23.47
-16.08
-6.57
2.65
9.73
14.14
16.34
17.85
20.05
23.66
28.33
32.65
34.94
34.01
29.71
23.23
16.58
11.89
10.20
11.28
13.50
14.56
12.98
8.86
3.91
0.71
0.83
3.93
8.09
10.76
10.19
6.68
1.81
-2.57
-5.55
-7.49
-9.44
-12.12
-15.48
-18.61
-20.50
-20.53
-18.73
-15.44
-11.19
-6.48
-1.83
2.47
6.14
9.08
10.96
11.37
9.88
6.27
1.18
-3.53
-5.58
-3.27
3.42
12.07
18.98
20.76
16.26
7.29
-2.01
-7.22
-5.83
1.65
11.76
19.77
21.85
16.98
7.52
-2.58
-9.92
-13.17
-12.64
-8.96
-1.89
9.24
23.66
37.34
43.61
36.57
15.70
-12.11
-35.32
-43.44
-33.70
-13.23
4.87
9.63
-1.19
-20.15
-34.97
-36.51
-23.85
-4.38
11.59
16.94
11.16
-0.37
-10.57
-14.69
-12.56
-7.50
-3.96
-4.64
-9.11
-14.44
-16.88
-14.21
-6.80
2.49
9.86
12.46
10.00
4.61
-0.49
-2.99
-2.83
-1.72
-2.05
-5.11
-10.16
-15.25
-18.36
-18.34
-15.48
-11.32
-7.65
-5.81
-6.12
-7.92
-10.02
-10.96
-10.09
-7.25
-2.94
2.31
8.14
14.16
19.77
23.99
25.66
23.98
19.40
13.66
9.11
7.57
9.53
13.98
18.78
22.02
22.69
21.03
18.06
14.63
10.75
5.93
-0.20
-7.12
-13.28
-16.89
-16.90
-14.01
-10.37
-8.30
-9.25
-12.59
-16.42
-18.37
-16.93
-12.17
-5.75
0.07
3.60
4.14
2.10
-1.42
-5.07
-7.71
-8.75
-7.88
-5.26
-1.35
3.10
7.35
10.38
11.05
8.48
2.72
-5.02
-12.45
-16.86
-16.47
-11.11
-2.76
5.83
12.24
15.43
16.29
16.23
16.20
16.09
14.93
11.89
7.15
1.90
-2.24
-4.46
-5.30
-5.72
-6.57
-7.51
-7.35
-4.84
0.15
5.88
9.76
9.60
4.98
-2.42
-9.53
-13.56
-13.21
-9.25
-3.71
1.47
5.11
7.13
7.79
7.05
4.87
1.39
-2.46
-4.82
-4.14
-0.02
6.00
10.86
12.17
9.19
3.37
-2.10
-4.60
-3.08
1.14
5.48
7.63
6.56
3.01
-1.09
-3.86
-4.20
-2.13
1.33
4.94
7.63
8.89
8.68
7.27
5.25
3.27
2.05
2.27
4.11
7.01
9.93
11.50
10.72
7.27
1.42
-5.68
-12.68
-18.21
-21.09
-20.70
-17.17
-11.67
-6.01
-1.84
-0.08
-0.44
-1.53
-2.06
-1.70
-1.22
-1.89
-4.36
-8.33
-12.48
-15.26
-15.88
-14.34
-11.36
-7.64
-3.65
0.19
3.27
4.81
4.12
1.21
-2.94
-6.92
-9.34
-9.56
-7.64
-4.24
0.04
4.73
9.21
12.57
13.93
12.64
9.03
4.59
1.52
1.48
4.74
9.86
14.59
16.81
15.77
12.59
9.27
7.66
7.85
8.18
6.41
1.17
-7.01
-15.45
-21.00
-21.59
-17.45
-11.11
-5.73
-3.83
-5.91
-10.55
-15.54
-18.98
-20.12
-19.15
-16.55
-12.85
-8.27
-3.19
1.75
5.72
8.05
8.78
9.02
10.02
12.75
17.27
22.11
25.58
26.29
23.83
19.01
13.32
8.05
4.02
1.56
0.63
1.11
2.60
4.55
5.75
4.74
0.72
-6.17
-14.15
-20.68
-23.23
-20.48
-13.25
-3.98
4.27
9.23
10.42
9.05
6.80
4.82
2.82
-0.22
-4.70
-9.93
-13.65
-13.47
-8.24
1.17
12.15
21.58
27.12
28.17
25.17
18.97
10.34
0.40
-9.42
-17.06
-20.35
-18.49
-12.36
-4.74
1.11
2.67
-0.74
-8.04
-16.75
-24.45
-29.49
-31.10
-29.41
-25.11
-19.23
-12.92
-7.16
-2.50
1.19
4.46
8.20
13.01
18.71
24.43
28.73
30.15
27.93
22.29
14.34
6.03
-0.79
-4.69
-5.02
-2.21
2.60
7.92
12.53
15.76
17.36
17.17
14.99
10.58
4.12
-3.70
-11.55
-18.09
-22.45
-24.34
-24.02
-21.78
-17.48
-11.11
-3.20
5.02
11.52
14.51
13.40
8.96
3.07
-2.42
-6.29
-8.15
-8.51
-8.26
-8.33
-9.20
-10.55
-11.33
-10.26
-6.43
-0.13
7.46
14.59
19.91
23.15
24.66
25.04
24.29
22.01
18.25
13.87
10.20
8.48
8.74
9.79
9.77
7.27
2.09
-4.73
-11.64
-17.11
-20.35
-21.28
-20.00
-16.73
-12.12
-7.20
-3.56
-2.54
-4.62
-8.99
-13.74
-16.79
-16.55
-12.93
-7.19
-1.36
2.38
3.14
1.58
-0.47
-0.94
1.27
5.75
10.80
13.96
13.87
10.46
5.04
-0.44
-4.43
-6.43
-6.62
-5.60
-3.99
-2.40
-1.54
-2.31
-5.33
-10.28
-15.70
-19.71
-20.52
-17.57
-11.79
-4.93
0.83
3.86
3.84
1.19
-2.88
-6.82
-9.35
-9.53
-7.04
-1.93
5.20
13.06
20.27
25.53
27.91
27.37
24.45
20.20
15.72
11.52
7.72
3.94
-0.18
-4.56
-8.79
-11.98
-12.88
-10.56
-4.66
3.91
12.97
19.94
22.50
19.74
12.79
3.99
-3.91
-9.06
-10.73
-9.30
-5.82
-1.36
3.17
6.82
8.73
8.38
5.98
3.04
1.47
3.08
8.58
16.97
26.08
33.21
35.93
33.06
24.82
12.66
-1.02
-13.55
-22.52
-26.62
-26.12
-22.69
-18.98
-17.29
-18.58
-22.32
-26.42
-28.73
-27.84
-23.49
-16.68
-9.03
-2.05
3.25
6.55
8.24
8.91
9.25
9.51
9.48
8.55
5.92
1.63
-3.56
-8.16
-10.72
-10.74
-8.93
-6.69
-5.22
-4.84
-4.75
-3.93
-1.78
1.19
3.73
4.80
3.94
1.87
-0.24
-1.48
-1.74
-1.56
-1.73
-2.52
-3.48
-3.74
-2.42
0.67
5.17
9.68
12.86
13.63
11.45
6.98
1.22
-4.50
-8.80
-10.76
-9.75
-5.64
0.98
8.63
15.39
19.01
18.29
13.30
5.63
-2.20
-7.96
-10.39
-9.93
-7.87
-5.68
-4.13
-3.22
-2.48
-1.60
-0.63
0.07
0.08
-0.26
-0.58
-0.27
0.90
2.43
3.49
3.02
0.34
-4.43
-10.76
-17.59
-23.53
-27.32
-27.87
-24.49
-17.49
-7.92
2.40
11.61
18.53
22.80
25.04
25.92
25.79
24.54
21.86
17.66
12.48
7.06
2.04
-2.44
-6.62
-10.10
-12.13
-11.79
-9.04
-5.15
-2.23
-2.20
-5.18
-9.38
-12.53
-13.06
-11.05
-8.01
-5.19
-2.68
0.52
5.51
11.98
18.07
21.35
20.44
16.15
11.03
7.67
7.15
8.48
9.59
8.89
6.17
2.73
-0.07
-1.43
-1.37
-0.37
1.10
2.93
4.70
5.54
4.32
0.29
-5.87
-12.59
-17.55
-19.10
-17.16
-12.92
-8.16
-4.26
-1.75
-0.95
-1.75
-3.81
-6.20
-7.08
-4.63
1.83
11.31
20.84
26.98
27.51
22.47
14.20
5.79
-0.23
-2.77
-1.93
1.09
5.15
8.80
10.50
9.14
4.47
-2.27
-9.12
-13.93
-15.56
-14.28
-11.33
-8.07
-5.42
-3.58
-2.71
-2.89
-4.29
-6.77
-9.11
-9.65
-6.88
-0.36
8.61
17.49
23.54
24.82
20.95
13.12
3.23
-6.70
-14.92
-20.31
-22.22
-20.70
-16.53
-11.09
-6.04
-2.71
-1.84
-3.29
-6.51
-10.73
-15.32
-19.78
-23.48
-25.50
-25.15
-22.10
-16.63
-9.85
-3.22
2.08
5.48
7.32
8.50
10.18
13.12
17.46
22.31
26.39
28.45
27.84
24.59
19.55
13.64
7.82
2.70
-1.36
-4.15
-5.50
-5.62
-4.73
-3.38
-2.01
-0.68
0.56
1.69
2.58
2.73
1.66
-0.60
-3.34
-5.25
-5.27
-3.12
0.33
3.44
4.86
4.01
1.65
-0.82
-2.38
-2.69
-2.38
-2.22
-2.40
-2.60
-1.83
0.48
4.03
7.52
9.29
8.07
3.68
-2.86
-9.78
-15.11
-17.52
-16.72
-13.40
-8.85
-4.35
-0.87
1.06
1.50
0.81
-0.14
-0.26
1.16
4.34
8.70
12.98
15.96
16.82
15.62
12.87
9.32
5.63
1.96
-1.38
-4.04
-5.27
-4.30
-1.14
3.26
6.96
7.72
4.40
-2.44
-10.69
-17.59
-20.88
-19.79
-15.05
-8.51
-2.03
2.99
6.05
7.28
7.33
6.56
5.07
2.67
-0.78
-5.01
-9.46
-13.27
-15.62
-16.18
-15.12
-13.15
-10.87
-8.58
-6.30
-3.67
-0.48
3.58
8.76
14.94
21.55
27.43
31.01
30.98
27.11
20.32
12.42
5.28
0.33
-2.08
-2.39
-1.40
0.03
1.31
2.21
2.76
3.07
3.34
3.54
3.42
2.74
1.39
-0.29
-1.71
-2.22
-1.30
0.53
2.36
2.89
1.43
-1.61
-4.87
-6.58
-5.70
-2.61
0.99
2.89
1.60
-2.56
-7.87
-11.72
-12.39
-10.09
-6.32
-3.46
-2.80
-4.17
-6.13
-7.05
-6.04
-3.69
-1.72
-1.99
-5.40
-11.24
-17.44
-21.18
-20.15
-13.85
-3.77
7.06
15.33
18.89
17.55
12.99
7.48
2.63
-0.94
-3.35
-4.61
-3.98
-0.82
4.86
11.66
16.97
18.78
16.33
11.10
5.89
3.19
3.91
7.21
10.78
12.30
10.76
6.83
2.49
-0.13
0.23
3.37
7.91
11.77
13.36
11.99
8.19
3.04
-2.12
-6.43
-9.85
-12.76
-15.60
-18.14
-19.45
-18.34
-13.92
-6.25
3.13
11.86
17.48
18.50
15.18
9.26
3.22
-0.91
-2.65
-3.06
-3.91
-6.71
-11.77
-18.13
-23.96
-27.36
-27.27
-23.89
-18.37
-12.37
-6.87
-2.19
1.98
5.96
9.46
11.52
10.92
7.18
0.98
-5.95
-11.36
-13.23
-10.79
-4.88
2.64
9.58
14.38
16.34
15.86
13.68
10.42
6.46
2.00
-2.88
-7.58
-11.28
-13.14
-12.82
-11.08
-9.55
-10.11
-13.73
-19.83
-26.25
-30.00
-28.46
-20.68
-7.76
7.27
20.65
29.44
32.15
29.38
23.07
15.48
8.25
2.19
-2.46
-5.63
-7.25
-7.04
-5.04
-1.94
0.89
2.02
0.52
-3.37
-8.40
-12.46
-13.55
-10.69
-4.11
4.43
12.48
17.91
19.56
17.68
13.50
8.50
3.87
0.07
-2.91
-4.77
-5.27
-3.98
-1.07
2.53
5.26
5.88
4.42
2.43
2.03
4.64
9.80
15.29
18.49
17.79
13.80
8.92
5.55
4.92
6.17
7.25
6.55
4.13
1.20
-0.79
-1.35
-1.25
-1.51
-2.94
-5.26
-7.88
-10.22
-12.12
-13.79
-15.09
-15.18
-12.79
-7.08
1.83
12.39
22.27
29.20
31.91
30.26
24.94
17.32
8.69
0.16
-7.09
-12.19
-14.43
-13.87
-11.76
-10.27
-11.65
-17.00
-25.26
-33.55
-38.60
-38.09
-32.20
-23.05
-14.14
-8.33
-6.76
-8.82
-12.74
-16.47
-18.40
-17.72
-14.24
-8.17
-0.01
9.27
18.29
25.31
28.50
26.87
20.96
12.83
5.80
2.47
3.79
8.35
13.15
15.12
12.77
6.96
0.36
-4.21
-5.22
-2.86
1.35
5.84
9.57
12.43
14.52
15.73
15.69
14.29
11.84
9.35
7.97
8.18
9.50
10.50
9.68
6.37
1.42
-3.09
-5.07
-3.40
1.70
8.44
14.57
18.19
18.40
15.32
9.78
3.01
-3.70
-9.31
-13.06
-14.69
-14.33
-12.68
-10.82
-9.45
-8.81
-8.75
-8.81
-8.50
-7.88
-7.17
-6.68
-6.64
-7.07
-7.79
-8.51
-9.08
-9.51
-9.63
-9.51
-9.05
-7.87
-5.64
-2.46
0.95
3.24
3.15
0.30
-4.39
-8.60
-10.22
-8.20
-3.21
2.87
7.94
10.43
10.16
7.82
4.30
0.58
-2.73
-5.19
-6.30
-5.71
-3.38
0.29
4.34
7.90
10.12
10.53
9.12
6.10
2.07
-1.85
-4.43
-4.71
-2.61
0.96
4.45
6.19
4.91
0.67
-5.45
-11.47
-15.25
-15.36
-11.53
-4.94
2.57
8.93
12.44
12.53
9.50
4.58
-0.68
-5.25
-8.87
-11.62
-13.84
-15.18
-14.91
-12.19
-6.76
0.22
6.69
10.84
11.76
10.22
8.09
7.33
9.00
12.80
17.66
22.30
25.61
27.08
26.34
23.33
18.28
11.67
4.54
-1.98
-7.07
-10.10
-11.24
-11.17
-10.62
-10.37
-11.22
-13.43
-16.66
-20.12
-22.62
-23.32
-21.91
-18.95
-15.49
-12.38
-9.98
-7.98
-6.04
-3.76
-1.00
1.94
5.14
8.63
12.24
15.68
18.16
18.91
17.57
14.15
9.24
3.70
-1.80
-6.24
-8.77
-8.87
-6.42
-2.04
3.06
7.51
10.38
11.20
10.13
7.50
3.67
-0.82
-4.98
-7.90
-8.98
-8.08
-5.97
-3.44
-0.89
1.55
4.35
7.46
10.13
11.38
10.38
7.04
2.30
-2.45
-5.95
-7.84
-8.81
-9.75
-11.28
-13.12
-13.93
-12.28
-7.09
1.20
10.49
17.84
20.44
17.19
9.34
-0.23
-7.93
-11.21
-9.61
-4.49
1.48
5.91
7.47
5.76
1.53
-3.87
-9.06
-12.72
-13.82
-12.02
-7.64
-2.05
3.01
6.22
7.02
6.08
4.79
4.57
6.18
9.28
12.87
15.67
16.72
15.85
13.39
9.99
6.47
3.53
1.94
1.95
3.28
5.12
5.93
4.47
0.47
-5.01
-10.16
-13.19
-13.42
-11.30
-8.33
-6.04
-4.94
-4.98
-5.61
-6.32
-6.92
-7.32
-7.33
-6.76
-5.78
-5.06
-5.58
-7.77
-11.15
-14.15
-14.96
-12.54
-7.43
-1.39
3.85
7.05
8.19
8.12
7.53
6.83
6.02
5.02
4.06
3.55
3.46
3.87
4.52
5.29
6.67
8.94
11.92
14.57
15.33
12.90
7.15
-0.73
-8.59
-14.57
-17.76
-18.31
-17.13
-15.21
-13.09
-10.97
-8.94
-7.41
-6.66
-7.14
-8.64
-10.33
-11.29
-10.85
-8.88
-5.98
-2.63
0.79
4.24
7.78
10.92
12.65
11.86
7.89
1.22
-6.26
-12.07
-14.01
-11.29
-4.78
3.58
11.43
17.11
19.79
19.58
17.22
14.00
10.95
8.92
7.98
7.68
7.08
5.50
3.08
0.61
-0.66
0.04
2.41
5.47
7.97
9.20
9.39
9.17
8.99
8.88
8.47
7.31
5.22
2.38
-0.64
-3.36
-5.34
-6.41
-6.80
-6.79
-6.69
-6.72
-6.91
-7.03
-6.70
-5.55
-3.48
-0.59
2.47
4.85
5.79
4.77
2.12
-1.24
-3.89
-4.53
-3.02
-0.32
1.89
2.11
-0.06
-3.93
-7.96
-10.42
-10.34
-7.76
-3.40
1.30
4.89
6.30
5.36
2.88
0.18
-1.67
-2.01
-1.07
0.67
2.68
4.58
6.11
6.83
6.08
3.43
-0.87
-5.48
-8.66
-8.90
-5.47
0.57
7.09
11.74
12.84
10.19
4.80
-1.57
-6.95
-10.26
-11.52
-11.19
-10.13
-8.85
-7.62
-6.64
-6.02
-5.99
-6.56
-7.22
-7.19
-5.86
-3.10
0.33
3.28
5.05
5.46
5.34
5.51
6.52
7.98
8.96
8.82
7.42
5.20
3.25
2.40
2.94
4.22
5.07
4.67
2.53
-0.87
-4.23
-6.36
-6.52
-4.99
-2.91
-1.44
-1.15
-1.89
-2.85
-3.20
-2.72
-1.79
-1.28
-2.02
-4.34
-8.04
-12.17
-15.56
-17.01
-15.71
-11.68
-5.44
1.78
8.46
13.38
15.77
15.78
13.92
10.78
7.05
3.13
-0.57
-3.49
-5.24
-5.36
-3.85
-1.17
1.54
3.41
3.72
2.67
1.18
0.25
0.61
2.25
4.51
6.30
6.73
5.57
2.83
-0.86
-4.66
-7.75
-9.25
-8.80
-6.52
-3.11
0.14
2.26
2.88
2.22
1.02
-0.20
-1.36
-2.75
-4.66
-6.61
-7.74
-7.12
-4.79
-1.76
0.17
0.06
-1.77
-3.88
-4.71
-3.73
-1.58
0.08
0.23
-0.83
-2.10
-2.27
-1.01
1.04
2.88
3.93
4.61
6.16
9.32
13.97
18.96
22.58
23.57
21.58
17.39
12.67
8.87
6.99
6.92
7.70
8.36
8.13
6.71
4.41
1.44
-1.99
-5.73
-9.46
-12.20
-13.14
-11.82
-8.44
-4.09
0.09
3.35
5.66
7.35
8.45
8.36
6.18
1.54
-4.83
-11.12
-15.11
-15.43
-12.30
-7.48
-3.14
-0.93
-1.01
-2.25
-3.38
-3.72
-3.72
-4.45
-6.40
-9.19
-11.50
-11.86
-9.92
-6.24
-2.49
-0.24
-0.22
-2.35
-5.69
-8.88
-10.84
-10.90
-9.10
-5.93
-2.23
1.20
3.91
5.58
6.33
6.27
5.66
4.52
3.05
1.60
0.57
0.13
0.37
1.01
1.60
1.74
1.46
0.94
0.56
0.85
1.78
3.17
4.18
4.13
3.10
1.91
1.68
3.06
5.68
8.27
9.47
8.71
6.34
3.22
0.17
-2.57
-5.18
-8.10
-11.21
-14.02
-15.64
-15.42
-13.15
-9.28
-4.73
-0.40
2.87
4.73
5.71
6.62
8.44
11.27
14.23
16.08
15.84
13.57
10.42
7.75
6.38
5.94
5.30
3.73
1.31
-0.59
-0.33
2.82
7.91
12.64
14.54
12.39
6.89
0.27
-5.05
-7.52
-7.58
-6.86
-7.17
-9.15
-11.94
-13.78
-13.28
-10.46
-6.43
-2.91
-1.18
-1.30
-2.64
-4.41
-5.97
-7.36
-8.61
-9.48
-9.60
-8.48
-6.17
-3.15
-0.07
2.67
5.02
6.75
7.55
6.54
3.07
-2.35
-8.03
-11.53
-11.00
-6.48
-0.09
4.98
5.97
2.39
-3.76
-8.89
-9.78
-5.19
3.23
12.10
17.82
18.59
14.84
8.67
2.52
-2.19
-5.23
-7.01
-7.92
-7.85
-6.38
-3.51
0.22
3.43
5.05
4.92
3.84
3.16
4.03
6.28
8.79
9.83
8.17
4.04
-0.93
-4.28
-4.15
-0.27
5.39
9.71
10.19
6.35
-0.05
-5.67
-7.90
-5.96
-0.99
4.87
9.66
12.52
13.60
13.57
12.84
11.51
9.64
7.32
4.63
1.55
-1.99
-6.09
-10.38
-13.95
-15.51
-14.46
-11.24
-7.48
-5.21
-5.91
-9.53
-14.25
-17.39
-16.78
-11.80
-3.87
4.34
10.14
12.08
10.59
7.58
5.23
4.83
6.00
7.23
6.89
4.10
-0.24
-4.22
-6.02
-4.98
-2.32
-0.17
-0.28
-3.21
-7.47
-10.31
-9.64
-4.77
2.70
10.06
14.74
15.50
12.95
9.00
5.59
3.65
2.87
2.34
1.12
-1.06
-3.59
-5.44
-6.04
-5.47
-4.56
-4.14
-4.63
-6.04
-8.15
-10.63
-13.28
-15.49
-16.34
-14.79
-9.99
-2.61
5.40
11.47
13.55
11.28
6.20
1.07
-1.73
-1.35
1.48
5.19
8.44
10.83
12.53
13.92
14.99
15.06
13.80
11.37
8.43
5.76
3.55
1.26
-1.84
-5.98
-10.42
-13.56
-14.07
-11.65
-7.49
-3.56
-1.59
-2.02
-3.94
-5.81
-6.41
-5.39
-3.33
-1.10
0.78
2.03
2.79
3.27
3.44
3.27
2.71
1.78
0.76
-0.39
-1.94
-4.08
-6.98
-10.13
-12.55
-13.25
-11.67
-8.36
-4.67
-2.21
-1.96
-3.61
-6.02
-7.54
-7.31
-5.66
-3.75
-2.67
-3.00
-3.84
-3.69
-1.32
3.55
9.72
15.31
18.52
18.56
15.94
12.09
8.49
6.17
5.15
4.74
4.29
3.36
2.30
1.60
1.67
2.51
3.71
4.87
5.60
5.55
4.64
2.72
-0.10
-3.37
-6.28
-7.77
-6.89
-3.62
1.11
5.32
7.14
5.68
1.37
-4.06
-8.70
-11.23
-11.24
-9.24
-6.25
-3.20
-0.99
-0.20
-1.08
-3.43
-6.55
-9.41
-11.15
-11.30
-10.29
-8.70
-6.95
-5.06
-2.70
0.27
3.33
5.60
5.99
4.17
0.72
-3.08
-5.72
-6.20
-4.68
-1.83
1.21
3.72
5.32
5.99
6.08
6.03
6.18
6.92
8.21
9.65
10.26
9.23
6.48
2.98
0.38
0.29
3.00
7.33
11.18
12.79
11.74
9.16
6.52
4.95
4.11
2.88
0.26
-3.81
-8.11
-10.91
-11.18
-9.13
-6.23
-4.27
-4.67
-7.58
-11.99
-16.24
-18.60
-17.88
-13.88
-7.15
1.02
9.06
15.43
19.01
19.29
16.66
12.14
7.27
3.38
0.90
-0.42
-1.36
-2.67
-4.19
-5.27
-5.00
-3.03
-0.30
1.84
1.97
-0.28
-3.96
-7.47
-9.24
-8.67
-6.21
-2.76
0.66
3.52
5.55
6.42
5.91
3.81
0.39
-3.44
-6.44
-7.56
-6.43
-3.96
-1.79
-1.45
-3.85
-8.36
-13.46
-17.41
-18.83
-17.49
-13.90
-8.99
-3.66
1.54
6.14
9.54
11.50
11.65
10.27
8.26
6.61
6.16
7.07
8.95
11.34
13.74
15.95
17.77
18.76
18.48
16.49
12.66
7.65
2.35
-2.09
-4.82
-5.72
-5.17
-4.11
-3.50
-3.62
-4.29
-4.91
-4.81
-3.73
-1.92
0.00
1.13
1.20
0.22
-1.14
-2.01
-1.65
0.27
3.17
5.70
6.35
4.16
-0.61
-6.48
-11.29
-13.57
-13.23
-11.69
-10.39
-10.01
-9.72
-8.11
-4.29
1.07
6.05
8.47
7.50
4.14
0.58
-1.17
-0.63
1.21
2.76
2.75
1.39
-0.19
-0.52
0.71
2.88
4.60
4.69
3.02
0.55
-1.13
-0.85
1.46
4.67
7.15
7.61
5.89
3.24
1.19
1.05
2.63
4.79
5.85
4.79
2.04
-0.88
-2.34
-1.59
0.59
2.12
1.29
-2.17
-6.71
-9.66
-8.94
-4.05
3.24
10.21
14.38
14.53
10.97
4.92
-2.37
-9.78
-16.32
-21.10
-22.96
-21.44
-16.88
-10.55
-4.02
1.31
4.81
6.63
7.41
7.76
8.27
9.31
10.81
12.54
13.78
13.67
11.76
8.31
4.27
1.01
-0.43
-0.08
1.30
2.67
3.36
3.21
2.22
0.50
-2.36
-6.24
-10.35
-13.24
-13.54
-11.07
-7.18
-4.35
-4.55
-8.11
-13.29
-17.56
-18.69
-16.35
-12.01
-7.75
-5.03
-3.94
-3.73
-3.55
-2.93
-1.89
-0.39
1.93
5.67
10.62
15.76
19.39
20.03
17.20
11.88
6.24
2.18
0.66
1.11
1.87
1.57
-0.40
-3.33
-6.00
-7.47
-7.52
-6.71
-5.95
-5.59
-5.51
-5.36
-5.03
-4.82
-5.34
-6.94
-9.17
-10.85
-10.45
-7.15
-1.50
4.70
9.08
9.99
7.31
2.75
-1.09
-2.01
0.49
4.89
8.70
9.83
7.62
3.45
-0.37
-1.91
-0.71
2.17
4.99
6.56
6.59
6.02
6.25
8.25
12.08
16.77
20.89
23.08
22.81
20.30
16.35
11.77
7.09
2.46
-1.96
-5.51
-7.31
-6.47
-3.25
0.87
3.46
2.46
-2.45
-9.58
-16.04
-19.15
-17.96
-13.52
-8.15
-3.85
-1.39
0.03
1.86
4.89
8.76
11.95
12.69
10.10
4.87
-0.97
-5.12
-6.22
-4.31
-0.83
2.10
2.89
0.99
-3.11
-8.59
-14.53
-20.19
-24.72
-27.38
-27.41
-24.66
-19.76
-14.02
-8.77
-5.02
-2.87
-2.24
-2.75
-4.03
-5.72
-7.08
-6.90
-4.12
1.68
9.70
18.12
24.72
28.06
28.19
26.21
23.90
22.36
21.59
20.64
18.48
14.74
9.87
4.87
0.72
-2.40
-4.98
-7.80
-11.21
-14.70
-17.24
-17.79
-16.13
-12.78
-8.96
-5.87
-3.97
-3.14
-2.96
-2.97
-3.10
-3.23
-3.48
-3.53
-3.14
-2.18
-0.83
0.53
1.50
2.14
2.71
3.57
4.77
6.32
8.05
9.48
10.45
10.52
9.53
7.43
4.55
1.36
-1.57
-3.83
-5.14
-5.51
-4.99
-4.08
-3.61
-4.50
-7.28
-11.53
-15.96
-18.79
-19.23
-17.59
-15.47
-14.66
-16.19
-19.55
-23.26
-25.28
-24.41
-20.21
-13.11
-4.24
5.05
12.97
18.17
20.01
18.89
16.03
12.99
10.35
8.18
5.87
3.26
0.79
-0.67
-0.13
2.72
7.20
12.10
16.12
18.10
17.80
15.31
11.46
7.42
4.39
3.52
5.23
8.79
13.01
16.44
17.92
17.18
14.61
11.16
7.89
5.64
4.92
5.71
7.32
8.93
9.53
8.41
5.26
0.43
-5.22
-10.59
-14.57
-16.41
-16.25
-14.77
-12.84
-11.38
-10.71
-10.88
-11.59
-12.41
-13.20
-13.79
-13.88
-13.36
-12.12
-10.13
-7.88
-6.03
-5.22
-5.56
-6.39
-6.59
-5.11
-1.59
3.23
7.58
9.80
9.00
5.64
1.53
-1.19
-1.14
1.72
6.22
10.45
13.13
13.98
13.65
13.10
12.70
12.04
10.33
7.01
2.35
-2.31
-5.40
-5.96
-4.43
-2.34
-1.39
-2.48
-4.70
-6.12
-4.83
-0.32
5.83
10.90
12.45
9.50
3.15
-4.28
-10.28
-13.43
-13.59
-11.63
-8.35
-4.46
-0.26
3.93
7.33
9.12
8.77
6.17
1.91
-2.91
-6.90
-8.71
-7.69
-4.13
0.49
4.18
5.53
4.17
1.27
-1.49
-2.86
-2.47
-1.05
0.07
0.22
-0.77
-2.24
-3.41
-3.79
-3.21
-1.79
0.24
2.56
4.63
5.76
5.87
5.14
3.91
2.59
1.14
-0.52
-2.35
-3.79
-4.16
-3.15
-1.11
0.85
1.76
1.48
0.87
1.34
3.95
8.34
12.91
15.61
15.03
11.47
6.34
1.61
-1.42
-2.68
-3.15
-4.39
-7.17
-11.30
-15.64
-19.13
-20.99
-21.13
-19.77
-17.09
-12.98
-7.13
-0.12
6.71
11.41
12.48
10.08
6.09
3.16
3.31
6.65
11.34
14.90
15.35
12.49
7.25
1.07
-4.76
-9.55
-12.73
-13.83
-12.35
-8.26
-2.38
3.68
8.12
9.65
7.93
3.51
-2.24
-7.64
-11.11
-11.63
-8.90
-3.82
1.80
5.97
7.44
6.20
3.66
1.64
1.72
4.20
7.95
11.11
12.03
10.40
7.27
4.63
4.07
5.76
8.09
8.83
6.33
0.65
-6.36
-12.20
-15.20
-15.55
-14.83
-14.88
-16.27
-17.92
-18.02
-15.37
-10.44
-5.28
-2.18
-2.42
-5.51
-9.29
-11.47
-11.01
-8.37
-5.23
-3.36
-3.73
-6.12
-9.31
-12.03
-13.10
-12.02
-8.69
-3.52
2.80
9.49
15.91
21.40
25.54
28.37
29.96
30.62
30.57
29.91
28.82
27.27
25.03
22.09
18.19
13.33
7.92
2.36
-2.62
-6.66
-9.68
-11.86
-13.52
-14.84
-16.00
-17.06
-18.00
-19.11
-20.44
-21.78
-22.58
-21.75
-18.46
-12.57
-4.71
3.46
10.03
13.72
14.10
11.62
7.57
3.31
0.22
-0.73
0.68
3.83
7.33
9.42
9.02
6.15
2.33
-0.55
-0.95
1.18
4.42
6.79
6.90
4.93
2.59
2.10
4.83
10.67
17.40
22.18
22.56
17.75
9.13
-0.79
-9.11
-13.86
-14.55
-12.47
-9.57
-7.89
-8.45
-11.31
-15.29
-18.89
-20.83
-20.68
-18.68
-15.44
-11.31
-6.45
-0.83
5.37
11.54
16.47
19.01
18.29
14.31
7.90
0.46
-6.45
-11.71
-14.74
-15.54
-14.42
-11.64
-7.97
-4.18
-1.31
0.06
-0.01
-0.59
-0.43
1.69
5.82
11.04
15.85
19.07
20.21
19.54
17.21
13.38
8.19
2.17
-3.61
-7.64
-9.23
-8.38
-6.16
-3.52
-0.99
1.71
4.74
7.64
9.15
8.01
3.82
-2.09
-7.50
-10.30
-10.06
-8.07
-6.46
-6.87
-9.45
-12.70
-14.61
-13.72
-10.23
-5.29
-0.80
2.05
2.78
2.06
0.96
0.62
1.68
4.20
7.44
10.35
12.08
12.31
11.31
9.88
8.95
9.03
10.32
12.61
15.45
18.25
20.03
19.88
17.10
11.77
5.03
-1.59
-6.57
-9.42
-10.80
-11.85
-13.76
-16.60
-19.99
-23.14
-26.07
-29.01
-32.15
-34.97
-35.89
-33.20
-26.03
-15.26
-3.03
7.81
15.20
18.40
18.02
15.43
12.28
9.83
8.75
9.54
11.88
15.02
17.83
19.05
18.20
15.35
11.48
7.82
5.30
4.07
3.60
2.94
1.24
-1.46
-4.50
-6.75
-7.36
-6.33
-4.43
-2.97
-2.79
-3.98
-5.61
-6.64
-6.68
-6.15
-6.25
-7.74
-10.53
-13.28
-14.52
-13.01
-8.85
-3.09
2.78
7.48
10.50
11.82
11.85
11.10
10.26
9.54
9.21
8.99
8.32
6.39
2.95
-1.44
-5.51
-7.63
-6.87
-3.58
1.04
5.30
8.07
9.21
8.94
7.72
5.56
2.38
-1.84
-6.51
-10.51
-12.78
-12.72
-10.72
-8.02
-5.84
-4.75
-4.39
-3.97
-2.85
-1.00
0.83
1.75
1.18
-0.52
-2.60
-3.83
-3.11
-0.03
5.00
10.97
16.27
19.71
20.69
19.40
16.84
14.04
11.78
9.89
7.91
5.35
2.09
-1.23
-4.01
-5.94
-7.56
-9.60
-12.44
-15.33
-17.00
-16.27
-12.89
-8.13
-3.67
-1.01
-0.39
-0.97
-1.76
-2.23
-2.60
-3.30
-4.52
-5.82
-6.57
-6.16
-4.55
-2.08
0.80
3.65
6.42
8.68
10.04
10.06
8.55
6.05
3.45
1.73
1.13
1.40
1.77
1.92
1.84
1.81
1.93
1.87
0.93
-1.69
-6.07
-11.41
-16.20
-19.15
-19.64
-18.18
-15.53
-12.40
-8.80
-4.44
0.33
4.69
7.43
7.93
6.84
5.41
4.85
5.46
6.48
6.92
6.33
4.97
3.60
2.60
1.66
0.39
-1.34
-2.95
-3.90
-4.14
-4.59
-6.37
-9.90
-13.92
-15.80
-13.21
-5.59
5.12
15.19
20.73
19.85
13.38
4.30
-3.78
-8.40
-9.00
-6.65
-2.82
1.35
5.55
9.54
12.78
14.50
13.99
11.99
10.24
10.67
14.02
18.88
22.45
22.13
17.34
9.92
2.93
-1.25
-2.28
-1.78
-1.81
-3.62
-6.70
-9.77
-11.80
-12.80
-13.75
-15.52
-17.92
-19.86
-19.64
-16.47
-10.81
-4.39
0.84
3.50
3.21
0.64
-3.10
-6.86
-9.76
-11.48
-11.94
-11.45
-10.45
-9.30
-8.04
-6.20
-3.33
0.60
4.78
7.74
8.27
6.23
3.18
1.57
3.41
8.75
15.25
19.18
17.73
10.26
-0.76
-11.19
-17.30
-17.52
-12.89
-6.03
0.45
5.15
8.29
10.71
13.06
14.89
15.36
13.42
9.09
3.30
-2.15
-5.56
-5.66
-2.30
3.44
9.54
13.84
14.78
12.20
7.35
2.13
-1.84
-4.11
-5.37
-6.38
-7.44
-7.67
-6.05
-2.27
2.24
4.89
3.18
-3.40
-12.92
-21.67
-26.21
-25.13
-19.87
-13.77
-10.20
-10.40
-13.04
-14.76
-12.42
-5.06
5.41
15.23
20.74
20.62
16.26
10.97
7.89
8.19
10.83
13.49
14.25
12.90
10.58
9.20
9.67
11.41
12.76
12.04
8.60
3.49
-1.19
-3.38
-2.38
1.02
5.07
8.01
8.82
7.65
5.20
2.13
-1.04
-4.09
-6.39
-6.98
-5.06
-0.61
4.84
9.09
10.23
7.81
2.87
-2.79
-7.76
-11.51
-14.29
-16.06
-16.38
-15.02
-12.38
-10.16
-10.49
-14.51
-21.26
-27.81
-30.78
-28.40
-21.27
-11.65
-2.13
5.83
11.89
16.31
19.19
20.15
18.95
15.99
12.58
10.44
10.48
12.43
14.60
14.73
11.50
4.94
-3.41
-11.20
-16.48
-18.35
-17.15
-14.35
-11.60
-9.89
-9.33
-9.21
-8.70
-7.25
-4.58
-0.71
4.37
10.46
16.99
23.06
27.34
29.05
27.92
24.33
19.18
13.41
7.84
2.94
-1.09
-4.41
-7.23
-10.04
-12.94
-15.69
-17.58
-17.73
-15.85
-12.20
-7.67
-3.43
-0.59
0.10
-1.64
-5.47
-10.42
-15.13
-18.15
-18.73
-16.92
-13.61
-9.93
-6.63
-4.26
-2.76
-1.99
-1.64
-1.28
-0.33
1.48
3.95
6.22
7.29
6.99
6.22
6.48
8.80
12.73
16.61
18.16
16.51
12.75
9.45
8.96
11.86
16.66
20.70
21.76
19.43
15.08
10.76
7.96
6.95
7.00
7.19
6.96
6.36
5.32
3.40
0.03
-5.02
-11.12
-16.67
-20.25
-21.08
-19.48
-16.58
-13.60
-11.39
-10.16
-9.35
-8.34
-6.41
-3.43
0.12
3.36
5.33
5.51
3.92
0.94
-2.68
-6.15
-9.11
-11.43
-13.40
-15.22
-16.72
-17.61
-17.27
-15.38
-12.02
-7.67
-3.03
1.35
5.26
8.58
11.54
14.16
16.09
17.11
17.15
16.49
15.61
14.53
12.90
10.13
5.94
0.75
-4.51
-8.80
-11.31
-12.14
-11.56
-9.72
-6.64
-1.98
4.04
10.37
15.22
16.52
13.27
6.14
-2.62
-9.98
-13.68
-13.03
-9.06
-4.15
-0.40
1.06
0.48
-0.75
-1.09
0.29
3.17
6.19
8.01
7.91
6.35
4.42
3.15
2.70
2.55
1.71
-0.03
-2.21
-3.93
-4.48
-4.10
-3.69
-4.03
-5.39
-7.10
-7.91
-7.04
-4.52
-1.36
1.08
2.23
2.26
2.41
3.72
6.65
10.82
15.22
18.68
20.21
19.24
15.63
9.72
2.48
-4.62
-9.94
-12.08
-10.43
-5.77
0.00
4.70
6.71
5.56
1.92
-3.10
-8.24
-12.70
-15.69
-16.63
-15.14
-11.41
-6.47
-1.96
0.34
-0.80
-5.02
-10.55
-15.08
-16.51
-14.26
-9.42
-4.14
-0.60
0.02
-2.38
-6.77
-11.57
-15.35
-17.38
-17.65
-16.68
-15.32
-13.77
-11.76
-8.74
-4.54
0.20
4.52
7.14
7.61
6.03
3.39
0.77
-1.01
-1.33
0.29
3.98
9.75
16.98
24.22
29.83
32.33
31.24
27.33
22.03
17.05
13.37
11.24
10.38
10.42
10.82
11.29
11.73
11.71
10.86
8.68
5.12
0.56
-4.08
-7.55
-8.95
-8.00
-5.54
-2.95
-1.94
-3.60
-8.02
-13.85
-19.09
-21.83
-21.43
-18.66
-15.04
-11.93
-9.67
-7.48
-4.14
0.93
6.86
11.85
14.29
13.90
11.78
9.81
9.26
10.05
11.17
11.54
11.17
10.86
11.69
14.04
17.25
20.09
21.29
20.33
17.31
12.53
6.38
-0.49
-6.94
-11.52
-13.19
-12.10
-9.68
-7.99
-8.47
-11.10
-14.52
-17.08
-18.15
-18.64
-19.88
-22.69
-26.48
-29.37
-29.51
-26.20
-20.48
-14.40
-9.79
-7.28
-6.22
-5.25
-3.48
-0.99
1.39
2.75
2.70
1.36
-0.46
-1.70
-1.46
0.96
5.32
10.69
15.60
18.49
18.43
15.69
11.40
7.36
5.37
6.01
9.03
13.22
16.88
18.68
17.82
14.45
9.60
4.76
1.36
0.12
0.79
2.71
5.29
8.33
11.84
15.69
19.39
21.90
22.33
20.38
16.34
11.30
6.18
1.62
-1.81
-3.91
-4.64
-4.44
-4.24
-5.17
-7.97
-12.57
-18.07
-22.94
-26.17
-27.16
-26.07
-23.64
-20.81
-18.62
-17.58
-17.70
-18.11
-17.39
-14.08
-7.48
1.65
11.16
18.70
22.67
22.85
20.32
16.20
11.17
5.20
-2.08
-10.09
-17.34
-21.68
-21.63
-17.23
-10.47
-4.36
-1.34
-2.09
-4.92
-7.05
-5.93
-1.04
6.03
12.19
14.55
12.23
6.42
-0.04
-4.44
-5.67
-4.44
-2.72
-2.38
-3.93
-6.29
-7.82
-7.41
-5.57
-4.06
-5.03
-9.39
-16.04
-21.95
-23.90
-20.03
-11.13
-0.42
7.87
10.79
8.27
2.98
-1.21
-1.23
3.46
11.24
19.46
25.90
29.88
31.84
32.32
31.55
28.99
24.23
17.53
9.97
3.10
-1.90
-4.49
-4.92
-3.78
-1.68
0.79
3.21
5.11
6.31
6.87
6.71
5.39
2.15
-3.88
-13.02
-23.96
-34.12
-40.66
-41.66
-37.40
-30.02
-22.49
-17.21
-14.81
-14.31
-14.31
-13.69
-12.28
-10.55
-8.90
-7.09
-4.23
0.48
7.21
15.09
22.67
28.61
31.98
32.58
30.67
26.64
21.04
14.41
7.40
0.97
-3.79
-6.32
-6.46
-4.53
-1.58
1.62
4.59
7.44
10.35
13.40
16.26
18.29
18.91
17.79
15.00
10.93
6.13
1.19
-3.36
-6.96
-9.20
-9.71
-8.65
-6.51
-4.24
-2.72
-2.26
-2.58
-2.81
-2.26
-0.64
1.77
4.25
5.95
6.29
4.95
1.85
-2.84
-8.88
-15.42
-21.39
-25.38
-26.13
-23.16
-17.11
-9.65
-2.91
1.39
2.35
0.34
-3.23
-6.56
-8.30
-7.72
-4.85
-0.08
6.08
13.32
21.19
28.91
35.33
38.94
38.75
34.44
26.54
16.44
6.09
-2.70
-8.43
-10.62
-10.03
-8.28
-7.43
-8.96
-13.47
-19.93
-26.44
-30.68
-30.86
-26.33
-17.83
-7.36
2.68
10.13
13.73
13.61
11.25
8.87
8.31
10.17
13.54
16.60
17.72
16.23
12.93
9.51
7.69
8.40
11.37
15.13
17.97
18.21
15.08
8.93
0.83
-7.33
-13.93
-17.63
-18.19
-16.67
-14.81
-14.37
-16.04
-19.32
-22.66
-24.66
-24.64
-23.32
-21.93
-21.22
-20.85
-19.54
-16.11
-10.35
-3.41
2.72
6.28
6.62
4.53
1.78
0.21
0.93
4.09
8.81
13.78
18.08
21.32
23.67
25.33
26.40
26.49
25.10
22.08
17.97
13.81
10.42
7.86
5.31
1.85
-2.96
-8.21
-12.13
-13.24
-11.06
-6.70
-2.14
0.80
1.21
-0.74
-4.23
-8.24
-12.12
-15.65
-18.73
-21.42
-23.57
-25.10
-25.72
-25.03
-22.93
-19.98
-16.99
-15.20
-15.14
-16.38
-17.33
-16.08
-11.55
-4.45
3.04
8.36
9.93
8.06
4.68
2.05
1.63
3.27
5.68
7.48
8.14
8.18
8.75
10.76
14.33
18.64
22.54
24.73
24.66
22.48
19.13
15.91
13.94
13.50
14.11
14.30
12.62
8.41
2.44
-3.54
-7.61
-9.12
-8.87
-8.54
-9.54
-11.72
-13.50
-12.92
-8.84
-2.03
5.37
10.97
13.15
11.71
7.54
2.03
-3.63
-8.44
-11.36
-12.00
-10.45
-7.72
-5.19
-3.92
-4.12
-5.23
-6.25
-6.78
-7.15
-8.13
-10.03
-12.25
-13.40
-12.21
-8.30
-2.74
2.59
6.24
7.87
8.26
8.69
9.68
10.74
10.65
8.60
5.03
1.65
0.66
3.38
9.15
15.91
20.91
22.63
21.46
19.33
18.29
19.01
20.31
20.18
16.92
10.46
2.36
-5.14
-10.25
-12.54
-13.25
-14.02
-15.85
-18.54
-20.80
-21.25
-19.26
-15.16
-10.02
-4.77
0.16
4.73
9.00
12.58
14.69
14.80
13.03
10.50
8.65
8.38
9.53
11.08
12.02
11.83
10.63
8.92
6.67
3.47
-1.30
-7.64
-14.79
-21.08
-25.01
-25.82
-23.53
-18.95
-12.94
-6.33
0.01
5.02
7.59
6.87
3.00
-2.92
-9.08
-13.67
-15.63
-15.19
-13.53
-12.05
-11.88
-13.31
-16.07
-19.45
-22.60
-24.70
-25.03
-22.99
-18.66
-12.56
-5.83
0.38
5.19
8.61
11.18
13.56
16.34
19.29
21.75
22.79
22.06
19.75
16.60
13.60
11.23
9.46
7.64
5.09
1.61
-2.28
-5.78
-7.98
-8.59
-7.82
-6.11
-3.80
-0.80
2.86
6.66
9.66
10.55
8.74
4.67
0.06
-3.21
-4.01
-2.85
-1.41
-1.49
-4.04
-8.66
-14.07
-18.75
-21.62
-22.38
-20.95
-17.65
-12.55
-5.83
1.83
9.34
15.64
19.86
21.99
22.46
21.95
20.97
19.50
17.46
14.81
11.76
8.91
6.77
5.89
6.55
8.78
12.34
16.68
20.62
22.85
22.16
18.21
12.14
6.11
2.26
1.42
2.31
2.30
-1.30
-9.30
-19.91
-29.67
-35.33
-35.66
-32.16
-27.64
-24.88
-24.63
-25.56
-25.44
-22.62
-17.01
-10.18
-4.00
0.40
3.08
4.97
6.75
8.48
9.96
10.96
11.92
13.83
17.29
22.03
26.49
28.81
27.71
23.16
16.46
9.39
3.42
-0.67
-2.75
-3.03
-1.96
-0.44
0.43
-0.40
-2.97
-6.06
-7.78
-6.75
-2.63
3.24
8.87
12.65
14.09
14.15
14.21
14.93
15.93
15.92
13.64
8.60
1.32
-6.75
-14.10
-19.59
-22.65
-23.63
-23.17
-22.08
-20.98
-20.31
-20.47
-21.75
-23.85
-25.70
-25.77
-22.69
-16.06
-6.86
2.86
11.00
16.44
19.37
21.10
22.91
25.17
27.10
27.21
24.38
18.61
11.14
3.87
-1.50
-4.44
-5.47
-5.86
-6.95
-9.08
-11.82
-14.05
-15.03
-14.55
-13.05
-11.26
-9.64
-8.11
-6.31
-3.93
-1.00
1.93
4.27
5.54
5.63
4.82
3.34
1.53
-0.49
-2.50
-4.26
-5.62
-6.55
-6.98
-6.75
-5.46
-2.85
0.94
5.26
8.84
10.54
10.06
8.02
5.86
4.62
4.14
3.15
-0.22
-7.10
-16.81
-27.13
-34.99
-37.94
-34.98
-26.65
-14.94
-2.35
8.93
17.48
23.03
26.04
27.20
26.93
25.18
21.69
16.80
11.69
8.43
8.54
12.10
17.07
19.87
17.45
9.26
-1.87
-11.00
-13.67
-9.04
-0.40
6.31
5.94
-2.67
-16.17
-28.35
-34.05
-31.58
-23.12
-12.94
-4.52
0.88
3.96
5.75
6.36
5.22
2.36
-0.83
-2.01
0.61
6.38
12.42
14.93
12.02
4.86
-2.85
-7.13
-5.97
-0.08
7.95
15.39
20.39
22.24
20.51
14.92
5.78
-5.34
-15.47
-21.70
-22.56
-19.16
-14.54
-11.53
-10.96
-11.24
-9.62
-4.51
3.09
10.32
14.03
12.91
8.42
3.70
1.86
4.11
9.43
15.39
19.47
20.38
18.34
14.55
10.31
6.38
2.93
0.16
-1.27
-0.49
2.87
7.66
11.50
11.44
6.05
-3.50
-13.82
-20.83
-21.96
-17.68
-10.84
-5.07
-2.52
-3.06
-4.93
-5.96
-4.91
-1.80
2.72
7.83
12.76
16.74
18.76
17.95
13.95
7.40
-0.12
-6.80
-11.28
-13.17
-12.96
-11.46
-9.56
-8.13
-7.79
-9.09
-11.96
-15.39
-17.74
-17.31
-13.47
-7.23
-0.83
2.97
2.69
-1.20
-6.70
-11.26
-13.21
-12.43
-9.84
-6.49
-2.86
1.45
6.83
13.06
18.73
21.70
20.35
14.43
5.62
-3.08
-8.86
-10.16
-7.41
-2.52
2.34
5.55
6.54
5.64
3.33
0.28
-2.92
-5.41
-6.01
-4.04
0.13
4.89
7.87
7.23
2.63
-4.50
-11.64
-16.47
-18.00
-16.71
-14.13
-11.74
-10.26
-9.57
-8.82
-7.49
-5.41
-2.95
-0.66
1.23
2.75
3.96
4.62
3.89
0.84
-4.75
-11.97
-18.88
-23.17
-23.43
-19.64
-13.29
-6.50
-0.96
2.56
4.28
4.93
5.36
6.30
8.26
11.59
16.33
21.83
26.82
29.82
30.00
27.64
23.96
20.84
19.58
20.38
22.18
23.20
21.81
17.66
11.79
6.17
2.69
2.21
4.05
6.40
7.16
4.96
-0.47
-8.37
-17.46
-26.36
-33.89
-39.01
-40.61
-37.43
-28.96
-15.84
-0.26
14.45
24.96
28.91
26.02
18.12
8.33
0.10
-4.01
-2.94
2.46
9.75
15.68
17.24
12.87
3.24
-8.78
-19.38
-25.44
-25.93
-22.08
-16.36
-11.00
-6.79
-3.35
-0.03
3.24
5.73
6.56
5.78
4.30
3.56
4.28
5.99
7.43
7.42
5.90
4.29
4.45
7.47
12.71
17.77
20.07
18.27
13.31
7.75
4.06
3.08
3.61
3.27
0.45
-4.78
-10.59
-15.00
-17.46
-18.87
-20.84
-23.68
-25.86
-25.01
-19.81
-11.43
-3.25
1.26
0.59
-3.92
-9.05
-11.75
-10.91
-7.35
-3.11
0.22
2.62
5.14
9.07
14.44
19.70
22.60
21.37
15.96
8.00
0.10
-5.49
-8.09
-8.51
-8.19
-8.16
-8.25
-7.58
-5.56
-2.68
-0.42
-0.05
-1.74
-4.12
-4.90
-2.75
1.89
7.21
10.96
11.79
9.90
6.63
3.56
1.81
1.85
3.62
6.58
9.67
11.43
10.50
6.43
-0.25
-7.77
-14.09
-17.89
-19.00
-18.03
-15.81
-12.75
-8.74
-3.75
1.65
6.36
9.49
10.70
10.33
9.33
8.29
7.51
7.02
6.69
6.59
6.95
7.84
9.30
11.10
12.86
14.32
15.11
14.96
13.58
10.77
6.59
1.56
-3.28
-6.64
-7.68
-6.60
-4.43
-2.70
-2.59
-4.42
-7.52
-10.63
-12.75
-13.37
-12.55
-10.75
-8.31
-5.66
-3.20
-1.46
-1.02
-2.28
-4.91
-8.24
-11.37
-13.41
-13.81
-12.28
-8.98
-4.69
-0.56
2.12
2.38
0.38
-2.72
-5.18
-5.62
-4.05
-1.72
-0.37
-0.92
-3.16
-5.68
-7.05
-6.67
-5.06
-3.19
-1.55
0.29
3.30
8.16
14.26
19.93
23.22
23.12
20.35
16.57
13.45
11.59
10.36
8.74
6.25
3.44
1.65
2.00
4.35
7.17
8.38
6.60
2.18
-2.84
-6.02
-5.60
-1.83
3.48
7.85
9.55
8.40
5.29
1.58
-1.89
-5.06
-8.15
-11.03
-13.03
-13.20
-11.24
-8.03
-5.30
-4.81
-7.13
-11.52
-16.38
-20.11
-22.03
-22.43
-22.00
-21.19
-19.68
-16.66
-11.78
-5.72
-0.14
3.03
2.83
-0.26
-4.22
-6.64
-5.90
-1.78
4.42
10.81
15.76
18.59
19.70
20.14
20.47
20.33
18.68
14.53
8.01
0.55
-5.39
-7.38
-4.42
2.35
10.11
15.57
16.54
12.82
6.09
-1.04
-6.21
-8.23
-7.30
-4.52
-0.92
2.50
5.38
7.61
9.03
9.58
9.39
8.94
8.95
9.91
11.75
13.72
14.63
13.48
9.85
4.25
-2.21
-8.21
-12.69
-15.29
-16.28
-16.33
-15.83
-14.92
-13.25
-10.45
-6.54
-1.98
2.45
6.15
8.83
10.38
11.11
10.80
9.12
5.78
0.79
-5.17
-10.82
-14.72
-15.90
-14.18
-10.28
-5.27
-0.33
3.57
5.68
5.42
2.63
-2.49
-8.74
-14.19
-16.79
-15.09
-9.34
-1.49
5.65
9.63
9.56
6.67
3.10
0.83
0.73
1.94
3.17
3.43
2.77
2.07
2.19
3.20
3.98
3.25
0.24
-4.56
-9.61
-13.09
-13.93
-12.23
-9.00
-5.65
-2.91
-1.09
0.34
2.03
4.36
7.51
10.97
13.78
14.67
12.70
7.71
1.19
-4.43
-6.95
-5.69
-2.00
1.41
2.14
-0.54
-5.45
-10.32
-13.01
-12.65
-9.41
-4.18
2.00
8.39
14.12
18.14
19.39
17.41
12.31
5.30
-2.23
-8.78
-13.03
-14.12
-11.92
-7.23
-1.94
1.59
1.49
-2.67
-9.50
-16.40
-20.89
-21.82
-19.47
-15.18
-10.49
-6.27
-2.89
-0.49
0.91
1.57
2.04
3.19
5.38
8.61
12.06
14.72
15.94
15.77
14.80
13.93
13.23
12.18
10.01
6.41
1.81
-3.01
-7.35
-10.69
-13.07
-14.54
-14.87
-13.72
-10.79
-6.15
-0.35
5.83
11.35
15.28
16.89
15.73
11.83
6.13
0.09
-4.45
-6.48
-5.69
-2.96
0.49
3.89
7.06
10.16
13.22
15.42
15.40
12.23
6.12
-1.19
-7.45
-11.04
-11.56
-9.99
-7.63
-5.41
-3.58
-2.03
-0.96
-0.81
-2.01
-4.58
-7.68
-10.02
-10.67
-9.29
-6.38
-2.64
1.64
6.15
10.61
14.25
16.03
15.33
12.47
8.77
5.99
5.23
6.54
9.03
11.32
12.22
10.97
7.62
2.82
-2.49
-7.01
-10.03
-11.50
-12.13
-13.37
-16.29
-20.88
-25.91
-29.33
-29.36
-25.62
-19.00
-11.57
-5.02
-0.11
3.35
6.05
8.35
9.92
10.02
8.29
5.16
2.02
0.28
0.66
2.81
5.51
7.58
8.47
8.75
9.51
11.41
14.21
16.51
16.50
13.22
7.37
1.11
-2.77
-2.56
1.72
8.17
13.98
16.83
15.49
10.77
4.43
-1.71
-6.45
-9.61
-11.85
-13.88
-16.07
-17.97
-18.63
-16.97
-12.54
-6.01
0.81
5.77
7.21
5.05
0.78
-3.53
-6.06
-6.22
-4.45
-1.82
1.00
4.06
7.70
11.63
14.71
14.97
11.01
3.12
-6.56
-14.84
-19.01
-18.45
-14.82
-10.69
-8.19
-7.88
-9.00
-10.11
-10.36
-9.62
-8.12
-6.01
-3.18
0.83
6.24
12.68
19.28
24.81
28.24
28.89
26.73
21.96
14.88
6.19
-2.98
-11.32
-17.14
-19.31
-17.39
-11.81
-3.94
4.22
10.75
14.16
13.91
10.42
4.94
-0.83
-5.42
-7.92
-8.03
-6.38
-3.97
-1.74
-0.20
0.61
0.85
0.67
0.03
-1.22
-2.98
-5.13
-7.12
-7.92
-6.43
-1.99
5.09
13.14
19.78
22.90
21.46
16.03
8.01
-0.86
-9.18
-15.96
-20.14
-20.99
-18.30
-12.76
-6.29
-1.41
0.36
-0.95
-3.46
-4.88
-3.90
-0.74
2.84
5.20
5.65
4.55
2.86
1.13
-0.76
-2.96
-5.19
-6.56
-6.10
-3.55
0.32
3.95
5.87
5.52
3.37
0.59
-1.91
-3.87
-5.31
-6.26
-6.36
-5.34
-3.59
-2.52
-3.41
-6.66
-10.80
-13.25
-11.70
-5.65
2.76
10.06
13.17
11.24
5.99
0.49
-2.50
-1.98
1.07
4.78
7.63
8.76
8.35
6.78
4.62
2.39
0.50
-0.67
-1.01
-0.89
-0.83
-1.52
-3.14
-5.15
-6.55
-6.58
-5.03
-2.69
-0.87
-0.79
-2.62
-5.20
-6.69
-5.54
-1.61
3.65
8.23
10.52
10.54
9.64
9.34
10.15
11.39
11.48
9.57
6.09
2.71
1.10
1.59
3.13
3.75
2.01
-2.10
-7.28
-11.63
-13.69
-13.19
-10.72
-7.44
-4.29
-1.27
1.95
5.76
9.95
13.19
13.80
10.53
3.44
-5.52
-13.41
-17.27
-15.61
-9.20
-0.91
5.83
8.38
6.16
0.77
-5.04
-8.66
-8.87
-5.99
-1.35
3.49
7.42
9.90
10.86
10.47
8.82
6.40
3.84
1.74
0.56
0.09
-0.21
-0.77
-1.77
-2.76
-3.34
-3.61
-3.88
-4.70
-6.00
-7.16
-7.24
-5.92
-3.58
-1.17
0.43
1.08
1.39
2.41
4.48
7.17
9.55
10.81
10.88
10.25
9.34
8.22
6.75
4.61
1.88
-1.00
-3.69
-6.07
-8.53
-11.20
-13.91
-15.88
-16.18
-14.16
-9.93
-4.77
-0.30
2.16
2.19
0.38
-1.88
-3.49
-3.93
-3.72
-3.69
-4.26
-5.36
-6.18
-5.90
-4.35
-2.28
-0.62
-0.13
-0.90
-2.25
-3.40
-3.85
-3.47
-2.61
-1.51
-0.33
0.90
2.25
3.91
5.86
8.15
10.98
14.06
16.92
18.76
18.61
15.85
10.70
4.10
-2.36
-7.43
-10.43
-11.35
-10.80
-9.74
-8.88
-8.64
-9.32
-10.69
-12.28
-13.25
-12.75
-10.20
-5.86
-0.37
5.26
10.33
14.61
18.17
20.91
22.57
22.77
21.40
19.16
16.85
15.15
14.25
13.41
11.82
9.08
5.53
2.48
1.26
2.69
6.21
10.18
12.31
10.77
5.13
-3.34
-12.25
-18.90
-21.47
-19.87
-15.27
-9.85
-5.57
-3.38
-3.08
-3.99
-5.15
-6.14
-6.91
-7.45
-7.57
-6.98
-5.49
-3.36
-1.23
0.06
0.13
-0.71
-1.56
-1.32
0.41
3.48
7.07
10.05
11.67
11.45
9.18
5.36
0.52
-4.35
-8.14
-10.15
-10.12
-8.38
-5.86
-3.54
-2.31
-2.64
-4.38
-6.94
-9.42
-10.98
-11.07
-9.78
-7.74
-5.68
-4.15
-3.28
-2.85
-2.78
-3.33
-4.70
-7.02
-9.64
-11.31
-11.19
-9.05
-5.85
-3.26
-2.38
-3.45
-5.50
-7.07
-7.25
-6.06
-4.44
-3.29
-2.88
-2.72
-1.79
0.51
3.86
7.43
10.21
11.74
12.41
12.84
13.43
14.03
14.07
13.13
11.36
9.58
8.77
9.54
11.43
13.50
14.44
13.96
12.59
11.32
10.96
11.08
10.60
8.26
3.64
-2.24
-7.77
-11.28
-12.19
-11.08
-9.41
-8.43
-8.65
-9.42
-9.49
-7.78
-3.91
1.45
6.80
10.53
11.34
9.15
4.65
-0.54
-5.03
-7.87
-9.17
-9.24
-8.61
-7.25
-4.94
-1.62
2.67
7.26
11.57
14.88
16.65
16.45
14.11
9.92
4.61
-0.50
-4.35
-6.42
-7.15
-7.31
-7.52
-7.74
-7.42
-6.20
-4.47
-3.10
-3.15
-4.50
-6.04
-6.09
-3.44
1.94
8.56
14.33
17.24
16.19
11.11
3.01
-6.34
-14.80
-20.28
-21.60
-18.80
-13.39
-7.51
-2.97
-0.53
0.20
0.37
0.82
1.82
3.06
3.94
4.32
4.42
4.82
5.71
7.09
8.55
9.74
10.65
11.58
12.95
14.61
16.37
17.52
17.81
17.33
16.67
16.33
16.05
14.91
11.80
6.12
-1.44
-9.15
-14.98
-17.89
-18.29
-18.06
-18.87
-21.68
-25.38
-27.78
-26.68
-21.42
-13.69
-6.42
-2.63
-3.38
-7.60
-12.30
-14.75
-13.62
-9.75
-5.60
-3.24
-3.53
-5.49
-7.49
-8.16
-7.27
-5.39
-3.41
-1.47
0.70
3.44
6.35
8.12
7.31
3.15
-3.66
-10.95
-16.27
-17.68
-14.96
-9.16
-1.92
5.09
10.84
14.83
16.87
16.86
15.23
12.65
10.34
9.50
10.64
13.18
15.94
17.37
16.81
14.39
11.03
7.92
5.60
4.26
3.43
2.83
2.29
1.91
1.94
2.24
2.54
2.24
0.76
-1.94
-5.40
-8.71
-10.65
-10.43
-8.07
-4.27
-0.45
2.24
3.59
4.18
5.18
7.44
10.75
13.78
15.10
13.47
9.01
2.59
-4.50
-10.97
-15.94
-18.54
-18.29
-14.84
-8.87
-1.66
4.96
9.45
11.33
11.28
10.13
8.71
7.36
6.08
5.13
5.00
5.70
6.98
7.62
6.33
2.58
-3.45
-10.72
-17.93
-24.13
-28.74
-31.20
-31.37
-29.21
-25.49
-21.42
-18.00
-15.57
-13.07
-9.11
-2.76
5.24
12.68
17.29
18.04
15.85
13.31
12.68
14.62
17.66
19.25
17.51
12.72
6.83
2.95
2.80
6.27
11.38
15.57
16.86
14.73
9.84
3.59
-2.64
-7.91
-11.59
-13.36
-13.31
-11.67
-9.26
-6.82
-5.18
-4.86
-6.05
-9.13
-14.03
-20.37
-26.84
-31.59
-32.73
-29.43
-22.39
-13.72
-5.84
-0.43
2.07
2.66
2.49
2.26
1.92
1.09
0.15
0.13
2.25
7.01
13.20
18.56
20.58
18.22
12.36
5.31
-0.57
-4.15
-5.89
-7.12
-8.60
-9.91
-9.46
-6.12
-0.02
6.90
11.97
13.40
11.19
7.31
4.55
4.69
7.79
12.11
15.18
15.23
12.33
8.01
4.74
4.19
6.41
10.01
12.65
12.61
9.49
4.62
0.17
-2.27
-2.51
-1.91
-2.35
-5.05
-9.58
-14.07
-16.18
-14.71
-10.10
-4.12
1.06
4.25
5.53
6.26
7.90
10.65
13.46
14.57
12.49
7.28
0.86
-3.88
-4.25
0.61
8.92
17.25
21.86
20.53
13.70
3.94
-5.28
-11.53
-14.10
-13.93
-12.51
-11.16
-10.41
-10.30
-10.36
-10.16
-9.37
-7.73
-5.27
-2.41
-0.04
0.94
0.26
-1.73
-4.00
-5.39
-5.48
-4.30
-2.37
0.10
3.25
7.27
11.75
15.61
17.48
16.25
12.05
5.99
-0.14
-4.62
-6.53
-5.95
-3.59
-0.80
1.23
1.09
-1.88
-7.62
-14.81
-21.32
-25.03
-24.77
-20.90
-14.98
-8.94
-4.26
-1.30
0.29
1.06
1.58
2.04
2.81
4.15
6.23
8.75
10.82
11.48
10.08
6.87
2.56
-1.75
-5.00
-6.49
-5.91
-3.19
0.90
5.25
8.33
9.21
7.79
5.02
2.36
0.82
0.52
0.74
0.95
1.31
2.40
4.78
8.23
11.58
13.47
12.87
9.86
5.18
-0.03
-4.73
-8.35
-10.43
-10.80
-9.25
-6.17
-2.30
1.45
4.40
6.26
7.06
7.01
6.35
5.40
4.78
5.08
6.59
8.92
11.02
11.82
10.65
7.48
3.28
-0.84
-4.08
-6.18
-7.50
-8.28
-8.28
-6.73
-2.98
2.55
8.15
11.43
10.39
4.81
-3.50
-11.42
-16.36
-17.62
-16.56
-15.27
-15.44
-16.80
-18.06
-17.99
-16.27
-13.91
-12.01
-10.73
-9.24
-6.23
-1.23
4.84
10.01
12.36
11.03
6.90
2.03
-1.42
-2.10
-0.29
2.71
5.21
6.11
5.21
2.98
0.32
-2.13
-4.04
-5.19
-5.08
-3.29
0.17
4.36
7.67
8.41
5.74
0.49
-5.34
-9.39
-10.13
-7.53
-2.75
2.47
6.67
9.18
10.13
10.15
9.98
10.15
10.63
11.29
11.90
12.35
12.39
11.83
10.45
8.00
4.66
0.96
-2.08
-3.79
-3.91
-2.96
-1.92
-1.49
-1.84
-2.22
-1.94
-0.59
1.29
2.76
2.85
1.54
-0.65
-2.74
-4.23
-4.81
-4.67
-4.24
-3.56
-2.61
-1.30
0.10
1.09
1.24
0.11
-2.53
-6.40
-10.79
-14.84
-17.77
-19.19
-19.30
-18.77
-18.32
-17.94
-16.93
-14.40
-9.93
-4.35
0.59
2.98
2.05
-1.64
-5.87
-8.38
-7.62
-3.85
1.49
6.58
9.97
11.27
10.98
10.21
9.85
10.31
11.58
13.22
14.60
15.09
14.34
12.32
9.42
6.34
3.91
2.61
2.18
1.96
1.22
-0.16
-1.96
-3.44
-4.10
-4.01
-3.76
-3.90
-4.42
-4.82
-4.17
-2.06
1.10
4.14
5.83
5.50
3.48
0.79
-1.41
-2.33
-2.01
-1.04
-0.39
-0.77
-2.26
-4.10
-5.23
-4.81
-2.71
0.14
2.47
3.25
2.58
1.40
0.85
1.33
2.30
2.83
2.10
0.21
-2.06
-3.87
-4.95
-5.67
-6.44
-7.08
-6.79
-4.66
-0.49
4.79
9.47
11.96
11.40
8.34
4.16
0.49
-1.48
-1.36
0.25
2.10
3.09
2.58
1.13
-0.04
0.63
3.61
8.36
13.28
16.38
16.71
14.53
10.99
7.24
4.05
1.42
-0.72
-2.53
-3.76
-4.14
-3.99
-3.83
-4.34
-5.55
-6.77
-7.07
-5.78
-3.22
-0.47
1.22
1.24
-0.07
-1.64
-2.44
-2.01
-0.72
0.44
0.68
-0.37
-2.12
-3.42
-3.41
-1.97
0.01
1.17
0.35
-2.75
-7.24
-11.54
-14.47
-15.53
-14.93
-13.59
-12.12
-10.92
-9.96
-9.18
-8.55
-7.92
-6.88
-5.15
-2.51
0.50
2.94
3.89
2.72
-0.24
-4.05
-7.31
-8.96
-8.69
-7.10
-5.25
-4.04
-3.65
-3.30
-1.69
2.06
7.70
14.01
19.33
22.46
23.47
23.64
24.20
25.46
26.50
26.13
23.79
20.02
16.19
13.57
12.02
10.26
6.84
1.16
-5.87
-12.60
-17.21
-19.04
-18.62
-17.15
-15.32
-12.98
-9.35
-3.91
2.92
9.71
14.75
16.76
15.52
11.69
6.40
0.37
-5.90
-11.87
-16.64
-19.01
-18.10
-14.20
-8.77
-4.26
-2.89
-5.42
-10.55
-15.92
-19.07
-18.68
-14.72
-8.29
-0.88
6.49
12.87
17.77
20.88
22.24
22.27
21.20
19.01
14.99
8.47
-0.66
-11.00
-19.72
-23.79
-21.64
-14.04
-3.94
4.85
9.81
10.41
7.82
3.83
-0.25
-3.78
-6.71
-8.84
-9.66
-8.53
-5.11
0.21
6.28
11.55
14.98
15.85
14.57
12.10
9.61
7.98
7.12
6.44
4.83
1.71
-2.80
-7.79
-11.90
-14.05
-13.73
-11.09
-7.05
-3.08
-0.58
-0.61
-3.36
-7.86
-12.68
-16.28
-17.68
-16.51
-13.33
-9.10
-4.95
-1.61
0.66
2.30
4.29
7.25
11.18
14.91
16.73
15.55
11.51
6.33
1.86
-1.00
-2.75
-4.60
-7.40
-10.73
-13.31
-13.91
-12.47
-10.20
-8.53
-8.13
-8.59
-8.57
-7.02
-3.81
0.41
4.79
8.77
12.00
14.00
14.31
12.62
9.60
6.81
5.97
7.90
11.66
15.05
15.80
13.25
8.80
4.74
2.89
3.50
5.43
7.21
8.22
8.55
8.92
9.36
9.22
7.56
3.82
-1.62
-7.42
-11.96
-14.16
-13.74
-11.27
-7.95
-5.10
-3.93
-4.90
-7.66
-10.67
-12.27
-11.48
-8.43
-4.42
-0.96
0.86
0.93
-0.19
-1.60
-2.78
-3.56
-4.18
-4.71
-4.59
-3.29
0.13
5.86
13.15
20.27
24.99
25.56
21.50
14.04
5.62
-1.46
-6.01
-8.20
-9.08
-9.57
-9.64
-9.03
-7.46
-5.50
-4.34
-4.75
-6.53
-8.58
-9.33
-7.80
-4.40
-0.24
3.26
5.48
6.48
6.61
6.04
4.28
1.15
-3.05
-7.18
-9.99
-10.66
-9.36
-7.10
-5.25
-4.63
-5.10
-6.14
-6.66
-6.00
-3.89
-0.23
4.43
9.62
14.51
18.15
19.65
18.78
15.71
11.12
5.70
-0.11
-5.89
-11.26
-15.48
-18.04
-18.41
-16.95
-14.66
-12.58
-11.53
-11.29
-10.92
-9.24
-5.91
-1.44
2.83
5.29
5.15
2.43
-1.50
-5.10
-6.99
-6.77
-5.21
-3.62
-3.01
-3.32
-3.57
-2.44
0.70
5.39
9.96
12.42
11.74
8.06
2.78
-2.55
-6.73
-9.37
-10.76
-11.04
-10.02
-7.33
-3.04
2.25
7.11
10.12
10.33
7.95
4.47
1.76
1.63
4.76
10.45
16.69
21.16
22.24
19.96
16.01
12.92
12.69
15.36
19.11
21.15
19.34
13.84
6.90
1.86
0.99
4.10
8.68
11.14
8.86
1.92
-7.03
-14.36
-17.16
-14.89
-9.39
-3.86
-1.10
-2.17
-6.39
-11.59
-15.34
-16.30
-14.27
-10.28
-5.82
-1.92
1.29
4.05
7.03
10.36
13.60
15.59
14.99
11.08
4.05
-4.68
-12.89
-18.51
-20.22
-18.14
-13.86
-9.60
-7.22
-7.33
-9.01
-10.58
-10.86
-9.81
-8.25
-6.82
-5.46
-3.09
1.62
9.00
18.06
26.55
31.94
32.83
29.39
23.29
16.88
12.20
10.27
10.48
10.92
9.54
4.98
-2.37
-10.51
-17.07
-20.56
-21.26
-20.74
-20.47
-20.76
-20.57
-18.51
-14.39
-9.67
-6.42
-5.98
-7.58
-8.73
-7.04
-2.15
3.62
6.83
5.32
-0.36
-6.57
-9.24
-6.29
0.69
7.29
9.10
4.50
-4.40
-12.64
-15.90
-12.74
-5.42
1.54
4.35
2.19
-2.54
-6.02
-5.73
-1.97
2.84
5.91
6.10
4.64
3.94
5.92
10.35
15.29
18.15
17.46
13.62
8.46
3.94
1.31
0.83
2.15
5.04
9.36
14.58
19.46
22.04
20.85
15.60
7.73
-0.19
-5.59
-6.99
-4.82
-0.95
2.55
4.22
3.73
1.68
-0.98
-3.56
-5.86
-8.07
-10.49
-13.28
-16.18
-18.63
-19.87
-19.40
-17.33
-14.60
-12.31
-11.02
-10.45
-9.52
-7.05
-2.73
2.77
7.91
11.29
12.26
11.25
8.96
5.98
2.47
-1.74
-6.48
-10.86
-13.59
-13.50
-10.26
-4.52
2.42
9.22
14.93
19.09
21.58
22.48
21.68
19.16
15.07
10.05
5.19
1.77
0.81
2.46
5.56
8.19
8.29
4.88
-1.44
-8.63
-14.41
-17.15
-16.74
-14.18
-11.05
-8.66
-7.63
-7.92
-8.91
-9.40
-8.21
-4.50
1.36
7.80
12.66
14.28
12.41
8.62
4.90
2.77
2.16
1.98
1.14
-0.75
-2.88
-4.06
-3.89
-3.00
-2.32
-2.50
-3.36
-4.04
-3.91
-3.22
-2.93
-3.88
-6.47
-10.29
-14.69
-19.02
-23.03
-26.28
-28.00
-27.11
-22.64
-14.74
-4.94
4.40
11.27
14.98
16.31
16.77
17.27
17.72
17.29
15.27
11.84
8.20
5.68
4.89
5.40
5.95
5.35
3.32
0.75
-0.99
-0.91
0.71
2.46
2.43
-0.41
-5.44
-10.59
-13.11
-11.41
-5.86
1.29
7.29
10.28
10.10
8.26
6.71
6.46
7.13
7.45
6.43
4.09
1.44
-0.06
0.39
2.36
4.60
5.87
5.62
4.29
2.75
1.61
0.74
-0.27
-1.74
-3.34
-4.27
-3.73
-1.68
1.10
3.55
4.81
4.89
4.29
3.70
3.65
3.97
3.97
3.16
1.40
-0.73
-2.39
-2.98
-2.39
-1.53
-1.43
-2.83
-5.52
-8.38
-9.96
-9.38
-6.86
-3.51
-0.48
1.82
3.81
6.27
9.10
11.15
10.55
5.94
-2.34
-12.03
-20.01
-23.67
-22.20
-16.99
-10.61
-5.59
-3.12
-2.76
-3.05
-2.58
-0.80
1.82
4.35
6.04
6.90
7.48
8.41
9.79
11.05
11.46
10.55
8.41
5.91
4.23
3.93
5.04
6.78
8.03
7.97
6.21
2.99
-1.10
-5.51
-9.83
-13.90
-17.72
-20.99
-23.08
-22.94
-19.75
-13.30
-4.60
4.20
10.71
13.20
11.51
7.08
2.31
-0.66
-0.56
2.69
8.29
14.84
20.40
23.14
21.76
16.04
7.39
-1.65
-8.37
-10.96
-9.22
-4.46
1.13
5.28
6.55
4.17
-1.80
-10.30
-19.42
-26.63
-29.82
-28.21
-22.82
-15.89
-9.80
-6.06
-5.05
-6.23
-8.39
-10.32
-10.95
-9.54
-6.02
-1.05
3.97
7.74
9.68
10.28
10.65
11.62
13.10
13.98
12.93
9.50
4.45
-0.78
-4.49
-5.65
-4.11
-0.44
4.26
8.50
11.07
11.46
9.98
7.88
6.54
6.86
8.57
10.62
12.05
12.76
13.61
15.56
18.59
21.25
21.13
16.36
7.12
-3.96
-13.04
-17.00
-14.94
-8.33
-0.23
6.50
10.49
11.87
11.43
9.63
6.17
0.50
-7.25
-15.47
-21.56
-23.25
-20.03
-13.84
-8.21
-6.38
-9.68
-16.75
-24.36
-29.03
-28.57
-22.95
-14.06
-4.34
4.21
10.82
15.47
18.53
20.26
20.67
19.61
17.02
13.00
7.98
2.38
-3.13
-7.71
-10.55
-11.13
-9.45
-6.53
-3.78
-2.57
-3.57
-6.12
-8.71
-9.68
-8.11
-4.29
0.43
4.46
6.83
7.66
7.99
9.04
11.25
13.74
15.29
14.96
12.83
9.90
7.20
5.08
3.00
-0.09
-4.48
-9.30
-12.65
-12.70
-9.09
-3.38
1.89
4.47
3.92
1.43
-1.18
-2.87
-3.97
-5.79
-9.06
-13.06
-16.01
-16.06
-12.53
-6.75
-1.29
1.45
0.88
-1.78
-3.99
-3.53
0.46
7.19
14.53
19.81
20.88
16.84
8.33
-2.54
-12.90
-20.22
-23.29
-22.42
-18.82
-13.92
-8.45
-2.47
4.19
11.23
17.41
20.90
20.26
15.37
7.66
-0.31
-5.78
-7.29
-5.12
-1.18
2.34
3.76
3.24
2.22
2.45
4.66
7.84
9.76
8.56
3.97
-2.31
-7.75
-10.45
-10.14
-8.24
-6.69
-6.57
-7.39
-7.76
-6.21
-2.51
2.17
5.86
6.96
5.14
1.37
-2.53
-4.90
-4.66
-1.56
3.78
10.04
15.49
18.47
18.05
14.06
7.64
0.99
-3.49
-4.30
-1.59
2.60
5.63
5.53
2.10
-3.13
-8.13
-11.23
-11.91
-10.43
-7.61
-4.23
-1.12
0.86
1.13
-0.24
-2.07
-2.70
-0.60
4.30
10.29
14.68
15.26
11.87
6.44
1.78
0.25
2.10
5.76
8.82
9.28
6.38
0.63
-6.66
-13.74
-18.82
-20.33
-17.35
-10.23
-0.79
8.15
13.81
14.77
11.34
5.52
-0.19
-4.00
-5.58
-5.62
-5.12
-4.51
-3.86
-3.07
-2.61
-3.40
-6.07
-10.18
-14.17
-15.91
-14.29
-9.73
-4.25
-0.24
1.14
0.70
0.83
3.71
9.58
16.02
19.22
16.30
7.28
-4.46
-13.94
-17.14
-13.61
-6.19
0.53
3.04
0.77
-3.74
-6.73
-5.47
0.18
7.91
14.40
17.01
15.08
9.99
4.38
0.96
1.05
4.43
9.58
14.53
17.82
18.88
17.97
15.52
11.58
5.82
-2.13
-11.99
-22.27
-30.60
-34.65
-32.89
-25.76
-15.36
-4.62
3.78
8.19
8.51
5.84
1.93
-1.50
-3.27
-2.74
0.09
4.53
9.05
11.67
10.59
5.15
-3.43
-12.40
-18.72
-20.49
-17.82
-12.56
-7.16
-3.52
-2.19
-2.69
-4.28
-6.31
-8.07
-8.85
-7.57
-3.45
3.18
10.75
16.86
19.49
18.09
13.84
8.94
5.37
3.91
3.98
4.33
4.11
3.58
3.91
6.39
11.24
17.45
22.97
25.68
24.52
20.21
14.84
10.88
9.71
10.76
11.80
10.17
4.38
-4.84
-14.71
-21.86
-24.15
-21.69
-16.62
-11.54
-8.30
-7.07
-6.91
-6.79
-6.69
-7.27
-8.98
-11.49
-13.77
-14.83
-14.61
-13.80
-13.14
-12.45
-10.58
-6.30
0.28
7.34
12.08
12.35
8.00
1.11
-5.39
-9.38
-10.38
-9.31
-7.46
-5.26
-2.40
1.42
5.51
8.22
7.68
3.26
-3.83
-10.57
-13.67
-11.16
-3.10
8.25
19.26
26.29
26.93
20.73
9.38
-3.83
-15.41
-22.65
-24.63
-22.09
-16.80
-10.54
-4.73
0.14
3.79
5.93
6.27
5.29
4.16
4.70
8.32
14.72
21.82
26.54
26.31
20.75
11.79
2.95
-2.34
-2.63
1.19
6.42
9.86
9.38
4.85
-2.28
-10.05
-16.77
-21.81
-25.10
-26.73
-26.16
-22.61
-15.53
-5.56
5.63
15.85
23.13
26.31
25.30
20.74
13.77
5.93
-1.03
-5.37
-5.80
-2.21
4.30
11.51
17.03
19.12
17.29
12.43
6.23
0.47
-3.57
-5.32
-4.85
-2.55
0.84
4.38
6.99
7.45
5.03
-0.22
-6.83
-12.43
-14.67
-12.32
-6.25
0.83
5.57
5.69
1.25
-5.28
-10.34
-10.91
-6.13
2.10
9.90
13.39
10.58
2.22
-8.59
-18.11
-23.71
-24.72
-22.15
-17.50
-11.98
-5.91
0.52
6.81
11.94
14.68
14.23
10.55
4.55
-2.34
-8.62
-13.00
-14.58
-13.45
-10.72
-8.39
-8.36
-11.09
-15.32
-18.29
-17.46
-11.97
-3.34
5.37
11.28
13.06
11.55
8.97
7.42
7.67
8.89
9.43
8.27
5.59
2.93
2.06
4.03
8.43
13.62
17.68
19.35
18.84
17.41
16.42
16.75
18.10
19.38
19.25
16.93
12.45
6.45
-0.10
-6.15
-10.79
-13.43
-13.94
-12.48
-9.49
-5.90
-2.81
-1.41
-2.62
-6.72
-13.15
-20.36
-26.30
-29.13
-28.00
-23.33
-16.63
-9.92
-4.70
-1.82
-1.31
-2.97
-6.62
-11.98
-18.23
-23.88
-27.11
-26.61
-22.64
-16.89
-12.09
-10.37
-11.95
-14.85
-16.04
-13.17
-5.88
3.87
12.98
18.94
21.10
20.55
19.41
19.28
20.56
22.62
24.43
25.45
25.86
26.39
27.40
28.70
29.35
28.38
25.28
20.22
14.18
8.31
3.72
1.21
0.80
2.02
3.66
4.39
3.08
-0.47
-5.40
-9.98
-12.66
-12.79
-11.35
-10.21
-11.14
-14.61
-19.32
-22.79
-23.00
-19.38
-13.26
-7.05
-3.01
-2.00
-3.50
-5.75
-7.06
-6.34
-3.47
0.96
5.99
10.84
14.73
17.16
17.62
15.80
11.62
5.45
-1.72
-8.62
-13.75
-15.99
-15.14
-11.71
-7.03
-2.38
1.51
5.04
8.82
13.35
17.94
21.03
21.19
17.97
12.55
7.04
3.09
1.05
-0.08
-1.79
-4.92
-8.91
-12.20
-13.22
-11.45
-7.43
-2.45
2.22
5.61
7.34
7.49
6.38
4.49
2.39
0.37
-1.53
-3.28
-4.87
-6.20
-7.02
-7.62
-8.25
-9.37
-10.97
-12.47
-12.78
-10.77
-5.90
1.32
9.39
16.48
21.02
22.18
19.97
15.17
8.94
2.43
-3.24
-6.99
-8.05
-6.22
-2.37
1.58
3.46
1.76
-3.05
-8.68
-12.42
-12.72
-10.50
-8.63
-9.98
-15.81
-24.30
-31.93
-35.03
-31.99
-23.87
-13.73
-4.89
0.51
2.16
1.28
-0.24
-0.79
0.50
3.59
7.87
12.25
15.73
17.72
18.16
17.39
16.11
15.06
14.90
16.02
18.30
21.04
22.81
22.16
18.22
11.20
2.57
-5.75
-11.86
-14.93
-15.03
-13.00
-9.92
-6.80
-4.42
-3.54
-4.44
-6.86
-9.56
-10.86
-9.56
-5.82
-1.17
2.13
2.69
0.64
-2.08
-3.14
-1.11
3.72
9.30
13.21
13.81
11.27
7.18
3.63
2.09
2.77
4.97
7.63
9.85
11.08
11.22
10.41
8.71
6.06
2.61
-1.30
-4.82
-7.31
-8.47
-8.71
-8.55
-8.51
-8.39
-7.65
-5.73
-2.84
0.14
1.99
1.88
0.06
-2.26
-3.69
-3.37
-1.60
0.65
2.25
2.64
1.79
-0.16
-2.94
-6.24
-9.62
-12.49
-14.43
-15.35
-15.58
-15.17
-13.97
-11.26
-6.64
-0.19
6.91
13.13
17.02
18.01
16.58
13.86
10.98
8.90
8.15
8.85
10.82
13.63
16.27
17.69
16.84
13.44
8.13
2.23
-2.67
-5.53
-6.48
-6.34
-6.26
-6.81
-7.85
-8.57
-8.41
-7.26
-5.45
-3.47
-1.45
1.02
4.43
8.77
13.23
16.45
17.20
15.25
11.36
6.93
3.29
1.05
0.08
-0.21
-0.45
-0.72
-0.75
-0.22
0.87
1.82
1.53
-0.94
-5.83
-12.21
-18.43
-22.80
-24.44
-23.55
-21.21
-18.85
-17.35
-16.94
-17.23
-17.66
-17.96
-18.16
-18.31
-17.96
-16.58
-13.59
-9.24
-4.63
-1.21
0.02
-0.58
-1.59
-1.40
0.75
4.41
8.34
11.41
13.34
14.63
16.00
17.57
18.80
18.92
17.77
16.06
14.95
15.42
17.66
21.11
24.68
27.43
28.88
28.87
27.50
24.73
20.48
14.88
8.61
2.46
-2.66
-6.32
-8.95
-11.57
-15.27
-20.44
-26.20
-30.82
-32.39
-29.94
-24.07
-17.03
-11.30
-8.81
-9.75
-12.90
-16.12
-17.55
-16.48
-13.38
-9.37
-5.50
-2.19
0.90
4.34
8.35
12.60
16.33
18.73
19.34
18.35
16.20
13.54
11.01
8.81
7.17
6.17
5.62
5.32
4.94
4.29
3.53
3.32
4.18
6.47
9.91
13.56
16.16
16.67
14.71
10.77
5.71
0.58
-3.68
-6.62
-8.36
-9.29
-10.01
-11.02
-12.67
-14.86
-17.18
-18.92
-19.30
-17.79
-14.25
-9.24
-3.85
0.73
3.69
4.66
4.05
2.49
0.69
-0.93
-2.43
-4.04
-5.84
-7.60
-8.79
-8.91
-8.08
-6.74
-5.73
-5.71
-6.49
-7.32
-7.26
-6.08
-4.42
-3.34
-3.50
-4.55
-5.22
-4.21
-1.04
3.49
7.87
10.91
12.24
12.56
13.01
13.98
14.89
14.36
11.44
6.33
0.64
-3.55
-4.62
-2.26
2.37
7.26
10.39
10.50
7.39
1.89
-4.61
-10.56
-14.42
-15.17
-12.48
-7.00
-0.48
5.09
8.02
7.78
5.12
1.53
-1.65
-3.51
-3.83
-2.76
-0.64
2.27
5.28
7.56
8.34
7.19
4.76
2.11
0.12
-0.89
-1.58
-2.86
-5.05
-7.51
-8.92
-8.03
-4.91
-0.78
2.60
3.94
3.28
2.03
1.84
3.64
6.84
9.89
10.82
8.64
3.59
-3.07
-9.60
-14.75
-17.99
-19.25
-18.76
-16.61
-12.87
-8.01
-2.95
1.19
3.40
3.74
3.00
2.71
4.00
6.85
10.10
12.23
12.19
10.28
7.89
6.54
6.98
8.61
10.12
10.07
7.61
2.97
-3.05
-9.27
-14.56
-17.72
-18.00
-15.42
-11.09
-6.94
-4.82
-5.49
-7.91
-9.97
-9.55
-6.03
-0.67
4.37
6.92
6.25
3.29
0.18
-1.03
0.58
4.30
8.28
10.50
9.96
7.37
4.62
3.80
6.01
10.51
15.27
18.10
18.09
15.77
12.56
9.60
6.85
3.37
-1.52
-7.50
-13.12
-16.62
-17.20
-15.32
-12.74
-11.44
-12.52
-15.70
-19.54
-22.18
-21.86
-17.88
-10.88
-2.48
5.01
9.49
9.67
5.75
-0.55
-6.72
-10.16
-9.45
-4.64
2.68
10.24
15.95
18.48
17.85
15.13
11.83
9.15
7.56
6.69
5.91
5.16
4.98
6.31
9.49
13.67
17.11
18.11
15.68
10.27
3.44
-2.88
-7.12
-8.66
-7.51
-4.40
-0.41
3.35
5.65
5.82
3.90
0.76
-2.32
-4.18
-4.50
-3.76
-3.01
-3.10
-4.16
-5.79
-7.16
-7.61
-6.96
-5.43
-3.57
-1.70
0.24
2.80
6.20
9.87
12.25
11.50
6.50
-2.01
-11.39
-18.44
-20.80
-18.55
-14.05
-10.55
-10.40
-13.51
-17.63
-19.73
-17.82
-11.87
-3.84
3.78
9.23
12.16
13.48
14.22
15.08
16.00
16.61
16.81
16.97
17.56
18.44
18.90
18.06
15.66
12.72
11.19
12.60
16.81
21.57
23.44
19.71
9.97
-3.42
-16.56
-25.82
-29.63
-28.49
-24.33
-19.32
-14.88
-11.64
-9.76
-9.28
-10.05
-11.66
-13.52
-14.63
-13.96
-11.11
-6.64
-1.88
1.49
2.52
1.56
0.23
0.19
2.31
5.97
9.41
10.78
9.04
4.69
-0.72
-5.33
-7.97
-8.51
-7.49
-5.88
-4.41
-3.40
-2.91
-2.66
-2.21
-1.47
-0.64
-0.00
0.33
0.75
1.68
3.46
5.56
6.63
5.49
1.99
-2.55
-5.83
-5.68
-1.37
5.69
12.51
15.96
14.56
9.31
3.12
-0.93
-1.48
0.31
1.57
-0.27
-5.44
-11.56
-14.72
-11.98
-3.32
8.26
17.94
21.78
18.70
10.97
2.70
-2.68
-4.05
-2.73
-1.31
-2.03
-5.24
-9.56
-12.90
-14.00
-13.06
-11.43
-10.34
-10.06
-9.95
-9.20
-7.84
-6.85
-7.41
-9.76
-12.86
-14.89
-14.46
-11.41
-7.01
-3.19
-1.35
-1.62
-2.87
-3.67
-3.04
-1.03
1.61
4.20
6.38
8.19
9.65
10.36
9.84
7.87
4.60
1.10
-1.41
-2.00
-0.54
2.34
5.39
7.56
8.45
8.32
8.11
8.65
10.38
13.27
16.54
19.35
20.92
21.07
20.09
18.54
16.81
14.75
12.10
8.86
5.45
2.56
0.60
-0.71
-2.07
-4.42
-7.85
-11.42
-13.80
-13.97
-12.06
-9.12
-6.96
-6.91
-9.15
-12.63
-15.82
-17.52
-17.41
-16.28
-15.14
-14.41
-13.72
-12.19
-9.40
-5.74
-2.47
-0.60
-0.42
-0.79
-0.27
2.41
7.05
12.15
15.62
15.70
12.47
7.10
1.72
-1.75
-2.17
0.36
4.67
9.37
13.07
15.23
15.85
15.50
14.44
12.66
9.76
5.43
0.01
-5.72
-10.33
-12.69
-12.22
-9.29
-5.01
-0.85
1.91
3.08
2.89
2.41
2.22
2.61
3.28
3.72
3.76
3.67
3.84
4.41
5.15
5.61
5.70
5.73
6.33
7.97
9.97
11.02
9.65
5.57
-0.05
-4.93
-7.06
-6.11
-3.24
-0.30
1.31
1.54
1.48
2.01
3.12
3.68
2.19
-1.98
-8.12
-14.27
-18.15
-18.36
-15.12
-9.85
-4.57
-0.97
0.22
-0.70
-2.53
-4.30
-5.38
-5.76
-5.80
-5.94
-6.17
-6.09
-5.62
-4.98
-4.78
-5.59
-7.23
-8.66
-8.73
-6.84
-3.51
-0.17
1.96
2.28
1.36
0.52
0.71
1.98
3.67
4.74
4.55
3.31
1.77
0.70
0.45
0.85
1.70
2.94
4.56
6.43
7.96
8.05
5.78
1.24
-4.29
-8.57
-9.54
-6.63
-1.16
4.34
7.54
7.50
5.04
1.86
-0.37
-1.34
-1.89
-3.14
-5.60
-8.68
-10.74
-10.21
-6.56
-0.43
6.60
12.40
15.36
14.96
11.79
7.48
3.92
2.46
3.31
5.68
8.00
9.10
8.67
7.33
6.07
5.66
5.87
5.94
5.08
2.80
-0.73
-5.15
-10.08
-15.21
-19.83
-22.83
-22.71
-18.66
-11.25
-2.80
3.47
4.92
1.12
-6.09
-13.38
-17.48
-16.82
-11.78
-4.26
3.35
9.16
12.44
13.40
12.72
10.76
7.53
2.75
-3.12
-8.80
-12.21
-11.38
-5.73
3.09
11.52
15.82
14.08
7.55
-0.32
-5.73
-6.80
-4.32
-0.97
0.81
0.32
-1.10
-1.33
0.91
5.30
10.24
13.98
15.74
15.76
14.65
12.75
9.84
5.69
0.65
-4.08
-7.23
-7.92
-6.70
-5.12
-5.01
-7.33
-11.53
-15.92
-18.59
-18.52
-15.92
-12.28
-9.03
-7.05
-6.25
-5.77
-4.91
-3.49
-1.85
-0.61
-0.27
-0.88
-1.98
-2.76
-2.33
-0.13
3.68
8.15
11.72
12.82
10.86
6.56
1.53
-2.09
-2.97
-1.12
2.36
6.06
8.96
10.79
11.69
11.88
11.52
10.55
9.35
8.32
7.80
7.95
8.31
8.03
6.43
3.19
-1.30
-6.21
-10.60
-13.62
-14.96
-14.82
-13.63
-11.91
-10.05
-8.20
-6.56
-5.34
-4.87
-5.32
-6.40
-7.19
-6.75
-4.42
-0.27
4.55
8.62
10.86
11.25
10.53
10.05
10.69
12.27
13.64
13.54
11.41
8.15
5.53
5.28
8.01
12.71
17.34
19.83
19.12
15.42
9.67
2.85
-4.29
-11.41
-18.04
-23.32
-26.32
-26.28
-23.02
-17.18
-10.06
-3.18
2.11
4.74
4.35
1.54
-2.48
-6.33
-8.85
-9.57
-8.72
-6.77
-4.33
-1.69
0.85
3.08
4.59
5.22
5.12
4.43
3.41
2.18
0.84
-0.48
-1.24
-0.99
0.27
1.88
2.78
2.46
1.16
-0.06
-0.16
0.96
2.61
3.60
3.05
1.10
-1.31
-3.20
-4.00
-4.13
-4.28
-5.09
-6.48
-7.65
-7.84
-6.62
-4.27
-1.67
0.35
1.10
0.62
-0.26
-0.40
1.00
4.11
7.98
11.26
12.88
12.72
11.63
10.83
10.99
11.87
12.05
9.98
4.60
-3.50
-12.20
-18.68
-20.90
-18.75
-14.23
-10.24
-8.89
-10.28
-12.29
-12.17
-8.23
-1.03
6.98
13.14
15.91
15.57
13.62
11.35
9.15
6.72
3.62
0.30
-2.37
-3.54
-3.15
-1.93
-1.19
-1.55
-3.14
-5.19
-7.12
-8.37
-8.53
-7.23
-4.14
0.41
5.41
9.06
9.97
7.70
3.26
-1.33
-4.06
-3.82
-0.85
3.66
8.32
11.97
14.18
14.76
13.71
10.97
6.46
0.47
-6.49
-13.44
-19.29
-23.05
-24.24
-22.66
-18.56
-12.42
-4.91
2.88
9.85
14.82
17.05
16.47
13.88
10.39
7.02
4.25
1.93
-0.18
-2.18
-3.73
-4.50
-4.37
-3.57
-2.82
-2.34
-2.19
-2.03
-1.57
-0.99
-0.85
-1.82
-4.05
-6.70
-8.40
-7.91
-5.07
-0.89
2.93
4.96
4.64
2.51
-0.62
-3.86
-6.64
-8.60
-9.05
-7.30
-3.15
2.51
7.83
10.68
9.98
6.24
1.43
-2.21
-3.33
-1.81
1.33
4.81
7.79
9.89
11.01
11.21
10.26
8.13
4.79
0.66
-3.95
-8.69
-13.09
-16.66
-18.81
-19.08
-17.68
-15.20
-12.29
-9.29
-5.94
-1.93
2.79
7.65
11.68
13.88
13.65
11.24
7.60
3.80
0.76
-1.24
-2.54
-3.72
-5.24
-7.18
-8.97
-9.78
-8.68
-5.68
-1.92
0.79
1.23
-0.33
-1.89
-0.93
3.87
11.49
18.86
22.74
21.46
16.06
9.56
5.03
3.88
5.11
6.47
6.21
4.25
2.20
2.13
4.71
9.07
13.03
14.45
12.49
8.12
3.56
1.19
2.01
5.39
9.53
12.44
12.97
11.04
7.21
2.04
-4.29
-11.62
-19.24
-25.74
-29.27
-28.60
-23.93
-16.72
-9.21
-3.10
0.71
2.30
1.86
-0.46
-4.59
-9.64
-14.18
-16.38
-15.41
-11.90
-7.83
-5.16
-4.62
-5.16
-4.66
-1.44
4.62
11.72
17.50
20.21
19.67
17.28
14.99
14.17
14.97
16.44
17.54
17.57
16.37
14.17
11.10
7.26
2.91
-1.16
-3.84
-4.38
-3.01
-1.03
-0.72
-3.50
-9.34
-16.20
-21.38
-22.84
-20.32
-15.34
-10.55
-7.62
-6.80
-7.02
-6.84
-5.59
-3.78
-2.33
-1.85
-2.14
-2.10
-0.91
1.67
4.84
7.22
7.69
6.03
2.86
-0.48
-2.57
-2.53
-0.58
2.13
4.17
3.91
1.00
-3.86
-8.79
-11.63
-11.21
-7.74
-2.67
1.82
4.23
4.40
3.47
3.10
4.33
6.76
8.85
8.83
5.66
-0.22
-7.00
-12.23
-14.08
-12.13
-7.54
-2.08
2.51
5.29
6.20
5.82
4.89
3.89
3.36
3.54
4.33
5.25
5.51
4.55
2.32
-0.69
-3.58
-5.61
-6.64
-7.27
-8.26
-10.20
-12.66
-14.43
-14.22
-11.23
-5.76
0.75
6.37
9.63
10.08
8.63
6.80
5.97
6.62
8.29
9.66
9.76
8.49
6.51
4.81
4.11
4.17
4.02
2.44
-1.18
-6.39
-11.78
-15.49
-16.33
-14.07
-9.83
-5.33
-2.45
-2.14
-4.11
-6.93
-8.76
-8.21
-5.06
-0.16
5.16
9.67
12.63
13.89
13.70
12.35
10.29
7.73
5.06
2.73
1.08
0.19
-0.25
-0.71
-1.68
-3.17
-4.75
-6.00
-6.68
-6.85
-6.96
-7.39
-8.20
-9.03
-9.14
-7.84
-4.96
-1.25
2.09
4.00
3.91
2.16
-0.22
-2.20
-3.00
-2.40
-0.67
2.01
5.60
10.15
15.54
20.96
25.01
26.13
23.33
17.01
8.92
1.49
-2.99
-3.59
-0.90
3.22
6.62
7.97
7.00
4.48
1.37
-1.82
-4.96
-8.12
-10.89
-12.20
-11.02
-7.17
-1.59
3.42
5.72
4.31
0.05
-4.54
-6.87
-5.52
-1.02
4.14
7.17
6.41
2.16
-3.44
-7.57
-8.52
-6.38
-3.02
-0.64
-0.67
-2.80
-5.24
-6.52
-5.92
-4.32
-3.31
-3.77
-5.54
-7.21
-7.16
-4.83
-1.09
2.52
4.26
3.65
1.36
-1.10
-2.12
-0.91
1.93
5.06
6.98
6.62
4.16
0.42
-3.43
-6.58
-8.75
-9.99
-10.37
-9.54
-7.37
-4.28
-1.37
-0.26
-1.83
-5.67
-10.08
-12.85
-12.74
-10.03
-6.01
-1.94
1.53
4.67
8.07
11.64
14.77
16.44
16.19
14.52
12.46
10.83
10.08
9.63
8.92
7.54
5.73
4.06
3.24
3.77
5.59
7.99
9.92
10.15
8.05
3.98
-0.79
-4.44
-5.82
-4.93
-3.01
-1.98
-3.33
-7.22
-12.51
-17.54
-21.00
-22.70
-23.28
-23.69
-24.03
-23.52
-20.85
-15.44
-7.85
-0.15
5.26
6.67
4.20
-0.26
-3.98
-4.76
-1.62
4.57
11.95
18.28
21.83
21.84
18.49
12.87
6.44
0.88
-2.76
-3.97
-2.98
-0.57
2.24
4.68
6.20
6.67
6.33
5.43
4.49
3.78
3.65
4.17
5.15
6.21
7.11
7.77
8.56
9.95
12.22
14.74
16.44
16.14
13.19
7.97
1.63
-4.51
-9.59
-13.42
-16.28
-18.30
-19.14
-17.96
-13.97
-7.11
1.61
10.30
16.82
19.67
18.52
14.31
8.91
4.13
0.90
-0.71
-1.48
-2.17
-3.13
-4.26
-5.05
-5.24
-4.65
-3.39
-1.67
0.20
1.59
1.78
0.17
-3.51
-8.69
-14.21
-18.72
-20.94
-20.25
-16.65
-10.68
-3.40
3.65
8.71
10.22
7.69
1.94
-5.17
-11.46
-15.39
-16.79
-16.53
-15.75
-15.31
-15.28
-15.22
-14.64
-13.11
-10.62
-7.16
-2.87
2.13
7.38
12.31
16.62
20.08
22.76
24.70
25.55
24.95
22.48
18.05
12.04
5.17
-1.74
-7.99
-12.96
-16.07
-17.10
-16.19
-13.93
-11.45
-9.52
-8.37
-7.44
-5.83
-3.02
0.85
5.04
8.88
11.80
13.86
14.99
14.97
13.43
10.19
5.82
1.50
-1.31
-1.98
-1.16
-0.35
-1.06
-3.80
-7.69
-11.07
-12.59
-12.18
-10.91
-10.13
-10.65
-12.05
-12.83
-11.85
-8.79
-4.61
-0.82
1.36
1.81
1.29
1.03
1.92
3.85
6.17
7.90
8.41
7.65
6.16
4.97
4.87
6.53
9.90
14.07
17.75
19.36
17.96
13.78
7.92
2.05
-2.61
-5.64
-7.49
-9.01
-10.67
-12.08
-12.47
-11.00
-7.70
-3.42
0.46
2.94
3.81
3.83
3.97
4.75
5.83
6.37
5.70
4.01
2.23
1.76
3.43
7.10
11.56
15.09
16.60
15.62
12.82
9.66
7.41
6.97
8.22
10.28
11.97
12.10
10.30
7.20
3.88
1.54
0.81
1.42
2.61
3.55
3.76
3.29
2.41
1.24
-0.49
-3.18
-7.11
-11.93
-16.75
-20.38
-21.91
-21.12
-18.66
-15.73
-13.27
-11.87
-11.55
-12.14
-13.35
-14.99
-16.76
-18.29
-19.05
-18.67
-17.12
-14.56
-11.39
-7.90
-4.29
-0.86
2.16
4.36
5.55
5.89
5.66
5.17
4.26
2.33
-0.90
-5.29
-9.79
-12.80
-13.05
-10.37
-5.80
-1.23
1.47
1.48
-0.76
-3.75
-5.76
-5.63
-3.20
0.83
5.26
8.89
11.25
12.46
13.13
13.85
14.93
16.22
17.37
17.88
17.43
16.21
14.46
12.77
11.47
10.45
9.55
8.37
6.98
5.99
6.34
8.55
12.52
17.20
20.80
22.06
20.32
16.08
10.45
4.59
-1.06
-6.31
-11.02
-15.07
-17.89
-19.04
-18.25
-15.88
-12.43
-8.40
-4.18
-0.22
2.92
4.85
5.26
4.52
3.53
3.15
3.86
5.46
7.14
7.90
7.23
5.01
1.54
-2.65
-7.15
-11.47
-15.17
-17.55
-17.97
-15.95
-11.66
-5.84
0.27
5.18
7.62
6.89
3.22
-2.29
-7.88
-12.11
-14.28
-14.51
-13.46
-11.58
-8.83
-4.95
0.04
5.25
9.00
9.89
7.69
3.74
0.53
0.32
3.67
9.28
14.84
18.04
17.93
15.20
11.34
7.84
5.74
4.98
4.94
4.86
4.05
2.27
-0.42
-3.76
-7.40
-11.11
-14.91
-18.86
-22.81
-26.09
-27.59
-26.20
-21.57
-14.57
-7.04
-0.93
2.51
3.41
3.20
3.59
5.55
8.71
11.61
12.62
10.87
6.84
1.81
-2.68
-5.40
-5.96
-4.55
-1.63
2.13
5.99
9.07
10.78
10.74
8.89
5.84
2.50
-0.18
-1.41
-1.00
0.48
1.79
1.50
-1.36
-6.73
-13.35
-19.40
-23.20
-24.12
-22.32
-18.50
-13.58
-7.94
-1.85
4.42
10.07
14.20
16.07
15.56
13.38
10.61
8.42
7.64
8.30
9.82
11.28
11.83
11.11
9.20
6.32
2.79
-1.25
-5.35
-8.75
-10.51
-9.89
-6.89
-2.31
2.55
6.53
8.84
9.38
8.52
6.61
3.92
0.41
-3.91
-8.82
-13.79
-17.94
-20.16
-19.44
-15.47
-9.00
-1.85
3.91
7.05
7.53
6.70
6.11
6.46
7.15
7.09
5.51
2.73
0.13
-1.02
-0.35
1.25
2.38
1.98
0.32
-1.25
-1.35
0.75
4.59
8.91
12.29
14.00
14.27
13.72
12.94
11.92
10.11
7.11
3.19
-1.02
-4.57
-6.86
-8.41
-10.13
-12.90
-16.81
-21.00
-24.02
-24.60
-22.45
-18.32
-13.48
-9.18
-6.10
-4.16
-3.10
-2.58
-2.37
-2.29
-2.12
-1.51
-0.12
2.15
5.16
8.28
10.79
12.02
11.71
9.85
6.75
3.07
-0.62
-3.56
-5.01
-4.59
-2.24
1.50
5.50
8.49
9.43
8.13
5.43
2.63
1.18
1.75
3.98
6.73
8.68
9.13
8.23
6.98
6.35
6.92
8.39
9.81
10.09
8.53
5.45
1.64
-1.72
-3.91
-5.04
-5.84
-7.23
-9.49
-11.99
-13.53
-13.12
-10.64
-7.01
-3.79
-2.21
-2.50
-3.63
-4.32
-3.56
-1.36
1.24
3.07
3.52
2.89
1.99
1.92
3.07
5.11
7.42
9.22
10.30
10.61
10.43
9.88
9.01
7.70
6.04
4.34
2.93
1.97
1.28
0.54
-0.55
-2.00
-3.56
-4.76
-5.21
-4.77
-3.59
-2.07
-0.53
0.68
1.47
1.99
2.20
2.16
1.56
0.26
-1.83
-4.39
-6.82
-8.71
-9.69
-9.89
-9.70
-9.54
-9.54
-9.84
-10.55
-11.82
-13.65
-15.51
-16.66
-15.99
-13.19
-8.32
-2.31
3.79
9.09
12.94
14.92
15.02
13.50
10.92
7.95
5.34
3.24
1.46
-0.48
-2.56
-4.39
-5.08
-4.06
-1.64
0.88
2.26
1.84
0.06
-1.97
-3.25
-3.47
-2.94
-2.09
-1.22
-0.37
0.56
1.62
2.75
3.85
4.85
5.67
6.24
6.24
5.51
4.08
2.48
1.40
1.55
3.08
5.53
7.88
9.30
9.34
8.09
5.97
3.51
1.08
-1.01
-2.67
-3.81
-4.42
-4.43
-3.83
-2.83
-1.75
-1.11
-1.32
-2.53
-4.29
-6.11
-7.46
-8.27
-8.84
-9.76
-11.44
-13.75
-15.78
-16.28
-14.30
-9.94
-4.45
0.44
2.92
2.55
0.10
-2.94
-5.28
-6.55
-7.09
-7.45
-7.77
-7.36
-5.26
-1.41
2.94
5.45
4.02
-1.66
-9.99
-17.83
-22.21
-21.91
-17.98
-13.04
-9.60
-8.67
-9.39
-9.95
-8.48
-4.77
0.37
5.24
8.65
10.47
11.26
12.02
13.33
15.45
17.80
19.69
20.50
20.28
19.48
18.77
18.89
20.03
21.82
23.35
23.44
21.30
16.54
9.67
1.89
-5.42
-10.79
-13.31
-12.95
-10.42
-7.03
-4.17
-2.49
-1.99
-2.03
-2.02
-1.65
-0.96
-0.03
1.27
3.01
5.35
7.74
9.41
9.61
8.24
5.97
3.62
1.83
0.55
-0.68
-2.26
-3.88
-4.88
-4.81
-4.16
-4.04
-5.48
-8.56
-11.89
-13.45
-11.60
-6.13
1.38
8.38
12.78
13.82
12.32
9.89
7.81
6.53
5.34
3.25
0.02
-3.72
-6.62
-7.53
-6.34
-3.91
-1.76
-1.16
-2.30
-4.08
-5.10
-4.33
-1.91
1.04
2.89
2.68
0.92
-0.84
-0.91
1.36
5.08
8.14
8.53
5.62
0.72
-3.54
-4.68
-1.97
3.01
7.48
9.04
7.35
4.00
1.35
1.02
2.77
4.85
5.39
3.68
0.55
-2.52
-4.22
-4.41
-3.96
-4.15
-5.24
-6.58
-6.96
-5.54
-2.57
0.66
2.66
2.68
1.10
-1.00
-2.13
-1.58
0.51
3.18
5.28
5.92
4.75
1.92
-1.64
-4.93
-7.08
-7.26
-5.17
-0.85
4.78
10.44
14.87
16.73
15.23
10.64
4.28
-2.11
-6.72
-8.84
-9.02
-8.99
-10.38
-13.67
-17.83
-20.91
-21.07
-17.88
-12.35
-6.43
-1.66
1.20
2.33
2.55
2.51
2.39
2.56
3.08
4.00
5.03
5.57
5.12
3.38
0.68
-2.12
-4.03
-4.62
-4.01
-3.00
-2.57
-3.16
-4.74
-6.45
-7.05
-5.30
-0.72
6.03
13.15
18.41
20.43
19.30
16.57
14.40
13.89
14.42
14.33
12.12
7.51
2.32
-1.17
-1.28
1.64
5.21
6.50
3.80
-2.18
-8.88
-13.15
-13.27
-9.76
-5.03
-2.01
-2.16
-4.83
-7.62
-8.13
-5.16
0.28
5.85
9.25
9.30
6.46
2.52
-0.82
-2.58
-2.80
-2.27
-1.93
-2.27
-3.42
-5.11
-7.05
-8.85
-10.21
-10.84
-10.60
-9.55
-7.94
-5.88
-3.26
0.07
3.88
7.58
10.26
11.27
10.42
8.18
5.28
2.35
-0.51
-3.18
-5.52
-7.09
-7.63
-6.97
-5.49
-3.95
-3.06
-2.81
-2.93
-2.77
-1.89
-0.36
1.41
3.11
4.37
5.20
5.45
5.10
4.09
2.80
1.96
2.37
4.42
7.72
11.06
12.99
12.52
9.56
5.10
0.50
-3.19
-5.47
-6.67
-7.39
-8.18
-9.24
-10.49
-11.52
-12.14
-12.12
-11.54
-10.53
-9.45
-8.67
-8.41
-8.68
-9.37
-10.05
-10.66
-11.24
-12.04
-13.20
-14.35
-14.57
-12.95
-9.07
-3.18
3.63
10.03
14.82
17.50
18.30
17.82
16.54
14.86
13.17
12.02
12.12
13.95
17.20
20.48
21.91
19.77
14.05
6.59
0.46
-1.46
1.87
8.93
16.38
20.65
19.68
13.92
5.59
-2.56
-8.39
-11.38
-12.28
-12.17
-11.85
-11.39
-10.46
-8.87
-6.59
-3.93
-1.53
0.04
0.46
-0.38
-2.34
-4.78
-6.99
-8.35
-8.35
-7.25
-5.68
-4.24
-3.15
-2.10
-0.49
2.04
5.33
8.57
10.49
10.09
7.08
2.08
-3.60
-8.57
-11.68
-12.49
-11.12
-7.81
-3.00
2.67
8.18
12.03
12.69
8.95
0.69
-10.33
-21.04
-28.01
-29.04
-24.29
-16.32
-8.74
-4.41
-4.01
-5.84
-6.79
-4.28
2.10
10.53
17.86
21.15
19.15
12.65
4.01
-3.85
-8.70
-9.49
-6.45
-0.92
5.35
10.51
13.62
14.77
14.73
14.94
16.40
18.78
20.61
19.86
15.00
5.92
-5.49
-16.14
-22.82
-23.63
-18.70
-10.16
-1.18
5.61
8.92
8.92
6.62
2.84
-1.98
-7.71
-13.86
-18.91
-20.83
-18.20
-11.33
-2.52
5.10
8.84
8.04
4.37
0.42
-1.79
-1.83
-0.91
-0.73
-1.97
-3.91
-4.96
-3.63
0.46
6.32
12.27
16.53
18.17
17.33
15.02
12.68
11.47
11.80
12.91
13.75
13.29
10.96
7.25
3.03
-0.74
-3.63
-5.79
-7.45
-8.49
-8.64
-7.43
-4.93
-2.07
0.01
0.34
-1.24
-3.97
-6.71
-8.36
-8.30
-6.61
-4.32
-2.46
-1.90
-2.82
-4.47
-5.71
-5.61
-4.22
-2.35
-1.49
-2.64
-5.84
-10.06
-13.55
-14.78
-13.21
-9.70
-5.93
-3.74
-3.94
-6.05
-8.31
-8.72
-6.25
-1.31
4.05
7.68
8.36
6.26
2.52
-1.34
-4.40
-6.43
-7.42
-6.89
-4.02
1.32
8.28
14.74
18.19
17.24
12.40
5.96
0.62
-1.77
-1.24
0.63
1.99
1.53
-0.48
-2.78
-3.81
-2.74
0.39
4.60
8.74
12.09
14.06
14.59
13.66
11.43
8.25
4.83
2.04
0.62
0.91
2.48
4.37
5.29
4.51
2.08
-0.98
-3.24
-3.76
-2.58
-0.87
-0.14
-1.21
-3.92
-6.96
-9.13
-9.96
-9.97
-10.12
-10.79
-11.28
-10.36
-7.29
-2.77
1.29
3.13
2.24
-0.25
-2.33
-2.34
-0.10
2.91
5.12
5.64
4.78
3.53
2.78
2.63
2.42
1.64
0.08
-1.48
-2.11
-1.16
1.48
5.00
8.43
10.68
11.20
9.76
6.54
2.03
-3.00
-7.55
-10.33
-10.35
-7.33
-2.04
3.92
8.61
10.33
8.59
4.25
-0.93
-5.11
-7.12
-6.95
-5.47
-3.55
-1.68
0.23
2.63
5.22
7.19
7.18
4.18
-1.46
-8.14
-13.51
-15.76
-14.51
-11.24
-8.42
-8.12
-10.81
-15.24
-18.95
-19.73
-16.61
-10.31
-2.79
3.90
8.60
11.50
13.56
15.52
17.08
17.04
14.07
7.71
-0.57
-8.24
-12.74
-12.89
-9.68
-5.68
-3.75
-5.38
-10.08
-15.89
-20.58
-22.71
-21.90
-18.50
-13.00
-5.83
2.30
10.23
16.72
20.61
21.72
20.65
18.44
15.99
13.59
11.30
9.33
8.03
7.73
8.51
9.94
11.35
12.51
13.66
15.31
17.57
19.78
20.58
18.56
13.37
5.87
-2.03
-8.15
-10.76
-9.15
-3.69
4.25
12.71
19.48
22.53
21.09
15.68
8.23
1.19
-3.46
-4.97
-3.95
-1.81
0.14
1.15
1.10
0.30
-0.98
-2.61
-4.20
-5.17
-4.84
-3.24
-1.22
-0.29
-1.73
-5.62
-10.48
-13.81
-13.87
-10.46
-5.35
-1.19
-0.10
-2.60
-7.26
-12.05
-15.04
-15.62
-14.29
-12.31
-11.01
-11.32
-13.36
-16.56
-19.84
-22.20
-23.11
-22.47
-20.33
-16.64
-11.20
-4.15
3.79
11.17
16.23
17.80
15.67
10.77
4.48
-1.62
-6.52
-9.66
-10.69
-9.46
-6.20
-1.93
1.90
3.50
1.95
-2.37
-7.81
-12.18
-13.63
-11.33
-5.80
1.29
8.03
13.05
16.16
18.23
20.34
23.02
25.77
27.36
26.85
24.11
19.88
15.56
12.12
9.91
8.48
7.37
6.28
5.26
4.49
3.69
2.41
0.15
-2.91
-5.93
-7.74
-7.51
-5.21
-1.73
1.40
2.94
2.35
0.10
-2.82
-5.33
-6.80
-7.25
-7.43
-8.40
-11.04
-15.81
-22.14
-28.92
-34.60
-37.72
-37.13
-32.28
-23.60
-12.34
-0.57
9.45
15.76
17.74
16.29
13.63
12.20
13.52
17.43
21.97
24.70
23.83
19.20
12.13
4.40
-2.57
-8.32
-13.04
-17.05
-19.96
-20.74
-17.99
-10.90
0.07
13.07
25.21
33.90
37.28
35.10
28.48
19.08
8.48
-2.11
-11.67
-19.39
-24.13
-25.13
-22.49
-17.54
-12.58
-9.47
-8.90
-9.65
-9.84
-7.67
-2.90
3.17
8.72
12.36
13.88
13.85
13.05
11.87
10.42
8.64
6.77
5.24
4.24
3.77
3.41
2.73
1.65
0.27
-1.25
-2.85
-4.37
-5.64
-6.03
-5.06
-2.69
0.39
2.81
3.56
2.54
0.96
0.41
1.99
5.20
8.14
8.54
5.14
-1.35
-8.63
-14.17
-16.55
-16.24
-15.01
-14.51
-15.03
-15.40
-13.79
-9.23
-2.47
4.27
8.42
8.68
5.73
1.51
-1.90
-3.34
-3.21
-2.71
-3.15
-5.12
-8.32
-11.70
-14.24
-15.20
-14.35
-11.92
-8.26
-3.68
1.50
6.95
12.03
15.96
17.86
17.04
13.35
7.46
0.78
-4.70
-7.13
-5.54
-0.34
6.95
14.07
19.06
21.14
20.67
19.06
17.76
17.32
17.37
16.63
14.05
9.09
2.67
-3.47
-7.48
-8.24
-6.06
-2.50
0.43
1.30
-0.13
-3.06
-6.12
-8.08
-8.38
-7.21
-4.76
-1.29
2.90
7.07
10.02
10.19
6.51
-1.13
-11.36
-21.94
-30.38
-34.65
-33.76
-28.14
-19.29
-9.60
-1.11
4.63
7.36
7.73
6.95
6.14
5.95
6.49
7.54
8.74
9.70
10.32
10.70
11.24
12.62
14.98
18.09
20.87
21.73
19.62
14.62
8.13
2.21
-1.73
-3.14
-2.98
-2.97
-4.25
-7.05
-10.51
-13.42
-15.16
-15.78
-16.16
-17.23
-19.34
-21.88
-23.64
-23.29
-20.31
-15.26
-9.68
-5.61
-4.58
-6.90
-11.25
-15.24
-16.70
-14.22
-8.20
-0.47
6.81
12.10
15.15
16.75
17.74
18.68
19.30
18.81
16.81
13.52
9.83
6.71
4.43
2.93
1.67
0.28
-1.31
-2.86
-4.19
-5.14
-5.69
-5.70
-4.93
-3.33
-1.18
0.86
2.15
2.39
1.68
0.70
-0.08
-0.51
-0.60
-0.24
1.03
3.98
8.86
14.94
20.38
23.03
21.33
15.24
6.64
-1.50
-6.56
-7.11
-3.55
2.29
8.01
11.64
12.36
10.57
7.33
3.96
1.29
-0.51
-1.83
-3.19
-4.97
-7.35
-10.29
-13.65
-16.99
-19.85
-21.62
-21.91
-20.71
-18.26
-15.12
-11.65
-7.76
-3.00
2.91
9.38
14.99
18.04
17.42
13.35
7.59
2.61
0.13
0.42
2.46
4.69
5.91
6.00
5.57
5.29
5.22
4.77
3.06
-0.50
-5.54
-10.99
-15.30
-17.10
-15.87
-12.41
-8.39
-5.55
-4.95
-6.42
-8.62
-9.96
-9.39
-7.05
-3.96
-1.14
1.03
2.66
3.88
4.52
4.19
2.77
0.81
-0.54
-0.53
0.77
2.32
2.88
2.21
1.31
1.84
4.65
9.07
12.93
13.80
10.61
4.29
-2.67
-7.41
-8.08
-4.39
2.34
9.79
15.31
16.92
14.03
7.60
0.05
-6.12
-9.07
-8.73
-6.63
-4.75
-4.32
-5.58
-7.67
-9.82
-11.57
-13.04
-14.39
-15.47
-15.54
-13.91
-10.43
-5.62
-0.56
3.65
6.62
8.49
9.77
10.94
12.05
12.77
12.48
10.77
7.60
3.48
-0.41
-3.00
-3.34
-1.65
0.96
2.89
2.62
-0.23
-4.81
-9.47
-12.48
-12.90
-10.90
-7.67
-4.49
-2.46
-1.65
-1.62
-1.46
-0.32
2.30
6.04
9.90
12.42
12.50
9.90
5.89
2.65
2.28
5.57
11.57
17.89
22.05
22.54
19.74
15.56
12.29
11.39
12.47
13.89
13.68
10.65
5.35
-0.34
-4.32
-5.58
-4.69
-3.52
-3.66
-5.78
-8.77
-10.75
-10.33
-7.75
-4.71
-3.33
-4.69
-8.36
-12.28
-14.19
-12.69
-8.08
-2.16
2.84
5.17
4.51
1.75
-1.62
-4.15
-4.82
-3.60
-0.88
2.59
5.97
8.64
10.12
10.29
9.32
7.72
6.11
5.37
5.81
7.27
8.77
9.04
7.05
2.59
-3.20
-8.58
-11.71
-12.18
-10.94
-9.81
-10.28
-12.56
-15.48
-17.35
-17.17
-15.18
-12.99
-12.57
-15.08
-20.11
-25.76
-29.73
-30.32
-27.26
-21.79
-15.84
-11.06
-8.01
-6.06
-3.85
-0.45
4.29
9.36
13.61
16.34
17.64
18.29
18.93
19.80
20.35
19.75
17.18
12.35
5.55
-2.14
-9.02
-13.52
-14.38
-11.45
-5.71
0.96
6.78
10.72
12.69
13.69
14.85
16.88
19.82
23.12
25.80
27.16
26.85
24.99
22.24
19.28
16.70
14.39
11.78
7.93
2.50
-3.86
-9.56
-12.73
-12.41
-9.01
-4.28
-0.11
2.32
3.07
3.10
3.40
4.25
5.11
5.10
3.65
0.57
-3.67
-8.59
-13.65
-18.32
-21.90
-23.41
-22.24
-18.45
-13.00
-7.71
-4.49
-4.71
-8.63
-15.23
-22.61
-28.62
-31.50
-30.60
-26.40
-20.58
-15.29
-12.23
-11.81
-13.10
-14.19
-13.15
-8.91
-1.69
7.30
16.29
23.82
28.58
30.18
28.84
25.69
22.33
20.24
20.09
21.33
22.59
22.23
19.53
15.11
10.40
6.59
3.86
1.26
-2.49
-7.76
-13.55
-17.75
-18.44
-14.99
-8.47
-1.00
5.48
9.63
11.35
11.21
9.90
7.74
4.77
1.31
-2.25
-5.12
-6.80
-7.20
-6.72
-5.79
-4.67
-3.34
-1.63
0.26
1.77
2.08
0.58
-2.88
-7.53
-12.03
-15.07
-15.61
-13.66
-10.15
-6.64
-4.54
-4.52
-6.08
-7.63
-7.40
-4.44
0.88
6.94
11.87
14.40
14.56
13.36
12.19
11.86
12.39
13.15
13.33
12.61
11.23
9.56
8.12
6.81
5.01
1.81
-3.45
-10.50
-17.87
-23.64
-25.95
-24.21
-19.37
-13.55
-9.03
-7.17
-7.92
-10.13
-12.15
-12.74
-11.48
-8.78
-5.55
-3.01
-2.12
-3.49
-6.94
-11.20
-14.45
-14.86
-11.73
-5.89
0.48
4.59
4.68
0.88
-4.73
-8.89
-8.82
-3.44
6.27
17.65
27.73
34.22
36.27
34.23
29.32
23.01
16.73
11.64
8.25
6.36
4.83
2.27
-2.06
-7.83
-13.44
-16.80
-16.80
-13.46
-7.89
-1.40
5.40
12.46
19.87
27.14
32.64
34.74
32.49
26.66
19.26
12.73
8.57
6.76
6.26
5.62
4.16
2.04
-0.19
-2.21
-4.25
-6.59
-9.63
-13.05
-16.14
-18.06
-18.53
-17.74
-16.44
-15.24
-14.55
-14.54
-15.02
-15.84
-16.49
-16.27
-14.42
-10.56
-5.11
0.76
5.44
7.80
7.41
4.87
1.15
-2.81
-6.33
-9.11
-11.13
-12.47
-13.07
-12.88
-11.76
-9.31
-5.21
0.55
7.41
14.34
19.80
22.50
21.50
16.82
9.42
1.00
-6.28
-10.73
-11.56
-9.15
-4.48
1.11
6.68
11.59
15.33
17.30
16.72
13.01
6.25
-2.53
-11.68
-19.22
-23.71
-24.58
-22.12
-17.17
-10.81
-4.13
2.05
7.11
10.63
12.39
12.36
10.93
8.94
7.76
8.47
11.11
14.63
17.00
16.50
12.47
5.98
-0.85
-6.03
-8.69
-9.48
-9.96
-11.40
-13.93
-16.40
-17.14
-15.16
-10.83
-5.70
-1.55
0.60
0.89
0.16
-0.79
-1.99
-3.79
-6.49
-9.41
-10.94
-9.27
-3.62
5.16
14.71
21.66
23.46
19.11
9.56
-2.70
-14.51
-22.94
-26.08
-23.59
-16.56
-7.14
2.18
9.38
13.31
13.76
11.50
7.99
4.87
3.62
4.94
8.25
11.74
13.13
10.51
3.87
-4.97
-12.78
-16.31
-14.01
-6.57
3.46
13.01
19.55
21.87
20.17
15.22
8.01
-0.48
-9.01
-15.79
-18.80
-16.73
-9.65
0.64
11.35
19.82
24.48
25.24
22.81
18.24
12.41
6.03
0.05
-4.44
-6.30
-5.19
-1.61
2.78
6.27
7.83
7.27
5.02
1.37
-3.53
-9.75
-16.93
-23.74
-28.40
-29.21
-25.66
-18.47
-9.52
-0.71
6.39
11.14
13.67
14.13
12.75
9.69
5.56
1.08
-2.72
-5.00
-5.33
-3.64
-0.15
4.74
10.09
14.80
17.31
16.50
11.92
4.33
-4.53
-12.56
-17.81
-19.25
-16.80
-11.24
-3.86
3.90
10.48
14.45
14.59
10.42
2.30
-8.25
-18.74
-26.37
-28.99
-25.96
-18.16
-7.86
2.51
11.16
17.20
20.40
20.79
18.38
13.28
5.99
-2.47
-10.45
-16.34
-19.07
-18.60
-15.91
-12.83
-11.08
-11.54
-14.03
-17.50
-20.40
-21.41
-19.81
-15.64
-9.47
-2.36
4.45
9.58
12.12
11.78
9.04
5.07
1.13
-1.89
-3.63
-4.30
-4.22
-3.54
-2.21
0.10
3.81
9.07
15.56
22.37
27.76
29.76
27.13
20.24
11.47
4.19
1.41
3.68
9.19
14.66
17.11
15.24
9.82
2.75
-3.91
-8.96
-11.82
-12.52
-11.32
-8.98
-6.80
-6.20
-8.19
-12.40
-16.87
-19.01
-16.84
-10.12
-0.39
9.86
18.35
23.86
26.51
27.28
27.13
26.61
25.81
24.38
22.35
20.04
17.86
15.96
13.73
10.00
3.87
-4.63
-13.78
-21.04
-24.17
-22.68
-18.18
-13.69
-11.87
-13.57
-17.82
-22.57
-26.05
-27.93
-28.92
-29.76
-30.31
-29.27
-25.02
-16.90
-5.87
5.54
14.58
19.62
20.92
20.15
19.43
20.03
21.99
24.31
25.81
25.65
23.57
19.76
14.81
9.52
4.65
0.92
-1.48
-3.04
-4.85
-8.04
-12.81
-18.31
-22.50
-23.41
-20.40
-14.39
-7.59
-2.27
0.20
-0.14
-2.17
-4.63
-6.70
-8.21
-9.34
-10.18
-10.28
-9.06
-6.33
-2.86
0.42
2.58
3.50
3.67
3.65
3.79
4.05
4.44
5.23
6.80
9.05
10.96
11.15
8.22
2.09
-5.74
-12.93
-17.13
-17.23
-13.49
-7.09
0.67
8.74
16.34
22.63
26.58
27.41
24.93
19.79
13.39
7.54
3.52
1.82
1.80
2.08
1.21
-1.50
-5.82
-10.78
-15.43
-19.20
-22.09
-23.97
-24.23
-21.85
-16.42
-9.02
-2.09
1.47
0.36
-4.44
-9.97
-13.14
-12.32
-8.00
-2.11
3.51
8.02
11.47
13.98
15.10
13.94
10.19
4.68
-0.80
-4.48
-5.73
-5.42
-5.01
-5.65
-7.41
-9.47
-10.77
-10.78
-9.65
-7.77
-5.48
-2.85
-0.01
2.67
4.61
5.50
5.61
5.66
6.29
7.56
9.19
10.68
11.87
13.32
15.62
19.14
23.20
26.26
26.45
22.34
14.08
3.17
-7.97
-17.10
-22.96
-25.44
-25.11
-22.63
-18.40
-12.43
-5.17
2.27
7.93
9.99
7.63
1.90
-4.53
-8.93
-9.48
-6.42
-1.49
3.10
6.09
7.29
7.12
6.13
4.08
0.43
-5.24
-12.19
-18.32
-21.13
-18.83
-11.74
-2.31
5.82
9.72
8.63
4.36
0.40
-0.05
4.34
12.45
21.35
27.67
29.49
26.93
22.05
17.66
15.72
16.71
19.28
21.12
20.25
16.08
9.63
2.94
-1.95
-4.12
-3.92
-2.65
-1.79
-2.17
-3.90
-6.65
-10.06
-13.81
-17.55
-20.77
-23.02
-24.32
-25.18
-26.51
-29.00
-32.29
-34.81
-34.83
-31.26
-24.72
-17.41
-11.92
-9.86
-11.02
-13.53
-15.20
-14.57
-11.38
-6.22
0.12
7.27
15.11
23.18
30.39
35.11
36.09
33.02
26.92
19.74
13.33
8.96
6.88
6.78
8.20
10.68
13.67
16.44
17.90
17.29
14.45
10.06
5.54
2.27
0.86
1.05
1.77
2.19
1.90
1.21
0.49
-0.01
-0.78
-2.69
-6.47
-11.84
-17.67
-22.20
-23.78
-21.62
-16.35
-9.63
-3.76
-0.14
0.89
0.29
-0.15
1.19
4.92
10.42
16.27
20.84
23.09
22.66
19.98
15.71
10.55
5.30
0.44
-3.45
-6.25
-8.12
-9.68
-11.49
-14.03
-17.35
-21.16
-24.52
-26.26
-25.31
-21.04
-13.83
-5.17
2.62
7.31
7.65
4.13
-1.18
-5.43
-6.61
-4.42
-0.51
2.57
2.80
-0.15
-4.81
-8.69
-9.82
-7.70
-3.44
1.13
4.64
6.72
7.70
7.88
7.25
5.40
2.24
-1.36
-3.93
-3.97
-0.95
4.53
10.81
16.14
19.11
19.32
17.18
13.63
9.78
6.59
4.46
3.18
1.95
-0.04
-3.14
-6.64
-9.27
-9.67
-7.53
-3.78
-0.31
1.25
0.24
-2.62
-5.77
-7.75
-7.68
-5.84
-3.45
-1.57
-0.76
-0.73
-0.88
-0.60
-0.06
0.10
-1.07
-3.94
-7.95
-11.61
-13.09
-11.22
-6.26
-0.02
4.77
5.99
3.28
-1.54
-5.43
-5.52
-0.92
6.51
12.90
14.53
10.06
1.18
-8.26
-14.40
-15.32
-11.80
-6.65
-2.73
-1.55
-2.39
-3.44
-2.70
0.50
5.27
9.56
11.64
10.86
8.22
5.74
5.18
7.37
11.59
16.17
19.34
20.39
19.65
18.07
16.30
14.60
12.72
10.33
7.64
5.51
5.00
6.86
11.12
16.72
21.71
24.00
22.28
16.87
9.63
2.87
-1.76
-4.19
-5.87
-8.82
-13.97
-20.60
-26.70
-30.18
-30.20
-27.48
-23.55
-19.96
-17.62
-16.35
-15.46
-14.03
-11.53
-7.75
-3.01
1.86
5.76
7.90
7.99
6.43
4.06
1.67
-0.04
-0.84
-1.02
-0.97
-1.34
-2.63
-5.35
-9.60
-14.92
-20.53
-25.60
-29.49
-31.93
-33.09
-33.20
-32.57
-31.09
-28.56
-25.01
-20.50
-15.46
-10.23
-5.07
0.03
5.19
10.36
15.19
18.97
21.17
21.84
21.81
22.26
24.27
27.87
31.88
34.52
34.23
30.82
25.25
19.25
14.46
11.83
11.20
11.80
12.81
13.63
13.91
13.36
11.89
9.82
7.75
6.66
7.21
9.24
11.58
12.61
11.13
7.24
2.44
-1.18
-2.30
-0.88
1.83
3.93
4.40
3.34
1.78
0.77
0.46
0.14
-1.22
-4.19
-8.42
-12.73
-15.77
-16.99
-16.44
-14.69
-12.40
-9.97
-7.67
-6.02
-5.72
-7.22
-10.28
-13.55
-15.26
-14.12
-10.34
-5.71
-2.73
-3.09
-6.89
-12.62
-18.21
-22.37
-24.58
-25.07
-23.77
-20.21
-13.93
-5.32
4.15
12.28
17.65
20.03
20.61
21.07
22.56
25.31
28.45
30.63
30.75
27.89
22.01
13.84
4.89
-3.23
-9.19
-12.66
-14.04
-14.11
-13.36
-11.59
-8.53
-4.33
-0.08
2.65
2.74
0.25
-3.69
-7.78
-11.16
-13.97
-16.74
-19.76
-22.05
-22.19
-19.03
-12.71
-5.03
1.39
4.43
3.77
1.08
-1.20
-1.26
0.97
4.21
6.72
7.66
7.53
7.99
10.12
13.78
17.53
19.41
18.33
14.58
9.80
5.87
3.77
3.23
3.01
2.13
0.54
-0.72
-0.35
2.55
7.24
11.75
13.65
11.31
4.86
-3.91
-12.10
-17.05
-17.63
-14.68
-10.44
-7.34
-6.48
-7.33
-8.18
-7.23
-4.05
0.18
3.33
3.66
1.03
-3.39
-7.92
-11.37
-13.49
-14.47
-14.52
-13.34
-10.74
-7.24
-4.20
-2.97
-3.86
-5.71
-6.45
-4.52
0.37
6.73
12.54
16.48
18.43
19.14
19.57
19.91
19.73
18.31
15.34
11.28
6.87
2.75
-0.97
-4.62
-8.51
-12.43
-15.56
-16.98
-16.34
-13.85
-10.75
-8.29
-7.20
-7.01
-6.14
-3.09
2.56
9.43
14.84
16.10
12.24
4.44
-4.39
-11.00
-13.29
-11.38
-7.10
-2.78
0.10
1.41
2.04
2.99
4.35
5.35
4.77
2.15
-1.71
-5.02
-5.82
-3.07
2.47
8.78
13.34
14.59
12.53
8.50
4.47
1.96
1.48
2.42
3.67
4.23
4.02
3.77
4.48
6.68
10.20
14.04
16.89
17.90
16.93
14.41
10.98
7.33
3.61
-0.09
-3.66
-6.88
-9.15
-9.87
-8.76
-6.30
-3.46
-1.44
-1.16
-2.64
-5.13
-7.60
-9.31
-10.16
-10.56
-11.03
-11.54
-11.79
-11.12
-8.99
-5.56
-1.66
1.83
4.07
4.58
3.43
1.20
-1.54
-4.30
-6.74
-8.73
-10.09
-10.29
-8.74
-4.91
0.98
7.51
12.48
14.17
12.34
8.32
4.38
2.34
2.51
3.87
4.81
4.50
3.06
1.48
0.48
0.03
-0.67
-2.45
-5.57
-9.19
-11.83
-12.21
-9.98
-5.66
-0.55
3.88
6.40
6.37
3.94
0.40
-2.63
-3.64
-2.08
1.03
3.71
4.00
1.23
-3.81
-9.16
-12.80
-13.81
-12.51
-10.27
-8.50
-7.76
-7.63
-7.00
-4.69
-0.51
4.70
9.49
12.27
12.37
10.27
7.17
4.44
2.87
2.31
1.99
1.04
-0.93
-3.48
-5.79
-7.22
-7.45
-6.68
-5.26
-3.40
-0.89
2.33
6.07
9.92
13.25
15.64
17.05
17.69
17.75
17.14
15.35
12.06
7.53
2.90
-0.14
-0.62
1.02
3.06
3.40
0.71
-4.72
-11.18
-16.67
-19.76
-20.09
-18.17
-14.69
-10.07
-4.67
0.88
5.36
7.55
6.89
4.05
0.70
-1.21
-0.59
2.23
5.69
7.83
7.37
4.34
-0.14
-4.41
-7.14
-7.91
-7.13
-5.54
-3.81
-2.39
-1.14
0.04
1.22
2.24
2.69
2.22
0.96
-0.46
-1.37
-1.29
-0.02
2.10
4.37
6.45
8.11
9.52
10.85
12.30
13.70
14.66
14.85
13.81
11.32
7.41
2.30
-3.59
-9.44
-14.09
-16.44
-15.85
-12.51
-7.69
-3.01
-0.13
-0.10
-2.77
-6.92
-10.96
-13.55
-14.07
-12.94
-11.22
-9.50
-7.89
-5.87
-2.96
0.43
3.12
3.39
0.15
-5.94
-12.79
-17.53
-18.18
-14.77
-9.25
-4.10
-0.76
0.75
1.51
2.73
4.46
6.03
6.69
6.36
5.69
5.59
6.41
7.68
8.40
7.76
5.81
3.36
1.52
1.27
2.56
4.79
6.93
8.15
8.24
7.40
5.88
4.00
1.79
-0.84
-3.63
-5.96
-6.98
-5.84
-2.26
3.02
8.27
11.54
11.58
8.55
3.66
-1.23
-4.85
-6.85
-7.54
-7.56
-7.35
-6.76
-5.17
-2.33
1.34
5.07
7.71
8.61
7.74
5.59
2.85
-0.04
-2.75
-4.82
-5.79
-5.47
-3.83
-1.32
1.16
2.87
3.29
2.44
0.91
-0.64
-1.93
-2.66
-2.84
-2.30
-0.86
1.62
4.91
8.32
10.99
12.12
11.76
10.27
8.49
7.28
6.76
6.68
6.48
5.80
4.91
4.48
4.91
6.06
7.03
6.36
3.12
-2.28
-8.28
-12.57
-13.58
-11.34
-7.33
-3.58
-1.76
-2.27
-4.51
-7.44
-10.54
-13.24
-15.02
-15.41
-13.83
-10.40
-6.04
-2.48
-1.17
-2.40
-4.99
-7.05
-6.83
-3.75
1.08
5.99
9.26
10.11
8.68
5.88
2.77
0.24
-1.47
-2.39
-2.85
-3.46
-4.38
-5.75
-7.19
-7.86
-7.15
-4.50
-0.31
4.33
8.22
10.38
10.58
9.47
8.18
7.43
7.17
6.60
4.88
1.67
-2.24
-5.18
-5.69
-3.13
1.73
7.12
11.33
13.07
12.35
10.22
7.89
6.11
4.94
3.53
1.01
-3.20
-8.58
-13.54
-16.25
-15.34
-10.91
-4.60
1.12
4.12
3.65
0.45
-3.91
-8.01
-11.10
-13.12
-14.22
-14.21
-12.89
-10.04
-5.83
-1.09
2.97
5.41
5.90
4.72
2.88
1.58
1.72
3.54
6.47
9.26
10.44
9.11
5.48
1.07
-1.83
-1.46
2.64
9.20
15.81
20.04
20.47
17.35
12.31
7.35
3.82
1.96
0.93
-0.04
-1.11
-1.81
-1.13
1.29
4.79
8.09
9.82
9.14
6.18
1.67
-3.74
-9.44
-14.97
-19.51
-21.97
-21.38
-17.95
-13.23
-9.24
-7.93
-9.57
-12.85
-15.72
-16.47
-14.68
-11.25
-7.61
-4.60
-2.43
-0.47
1.75
4.30
6.54
7.66
7.15
4.93
1.63
-1.84
-4.48
-5.60
-5.11
-3.37
-0.98
1.69
4.41
7.34
10.13
12.42
13.61
13.23
11.73
9.93
8.76
8.64
9.18
9.42
8.35
5.64
1.73
-2.37
-5.66
-7.47
-7.76
-6.90
-5.59
-4.53
-4.23
-4.75
-5.64
-6.44
-6.67
-6.25
-5.32
-4.27
-3.46
-2.98
-3.07
-3.60
-4.52
-5.31
-5.15
-3.04
1.66
8.63
16.54
23.27
27.01
27.18
24.27
19.58
14.44
9.30
3.95
-1.77
-7.56
-12.34
-14.66
-13.88
-10.53
-6.47
-3.51
-2.74
-3.73
-5.31
-6.17
-5.92
-5.28
-4.88
-5.09
-5.54
-5.67
-5.16
-4.34
-3.64
-3.19
-2.41
-0.42
3.00
7.10
10.45
11.55
9.91
6.33
2.26
-1.27
-3.68
-5.31
-6.54
-7.16
-6.67
-4.65
-1.57
1.34
2.71
1.91
-0.48
-2.80
-3.24
-0.78
4.18
10.08
15.04
17.46
16.92
13.79
9.02
3.67
-1.49
-5.85
-8.98
-10.77
-11.33
-11.06
-10.67
-10.72
-11.35
-12.26
-12.72
-12.11
-10.28
-7.74
-5.08
-3.03
-1.59
-0.80
-0.53
-0.86
-1.69
-2.59
-2.82
-1.51
1.26
4.58
7.05
7.64
6.59
5.07
4.76
6.63
10.56
15.18
18.95
20.70
19.87
16.99
12.94
8.73
5.14
2.61
1.07
0.16
-0.62
-1.52
-2.44
-3.36
-4.21
-5.32
-6.95
-8.96
-10.46
-10.40
-8.17
-4.33
-0.71
0.56
-1.86
-7.50
-13.91
-18.21
-18.21
-13.91
-7.07
-0.27
4.56
6.82
7.01
5.86
3.65
0.46
-3.46
-7.17
-9.19
-8.47
-5.32
-1.37
1.39
1.93
0.99
0.52
2.48
7.31
13.49
18.52
20.43
18.70
14.51
10.09
7.23
6.62
7.73
9.42
10.47
10.28
8.70
5.98
2.38
-2.01
-6.86
-11.63
-15.71
-18.20
-18.34
-15.83
-11.22
-5.99
-1.95
-0.76
-2.94
-7.55
-12.43
-15.39
-15.04
-11.69
-7.12
-3.53
-2.31
-3.62
-6.45
-9.04
-9.86
-8.06
-3.67
2.66
9.69
16.16
20.90
23.16
22.60
19.08
12.85
4.51
-4.88
-13.59
-19.70
-21.69
-19.22
-13.64
-7.33
-2.85
-1.53
-2.90
-4.95
-5.75
-4.29
-1.29
1.60
2.81
2.07
0.28
-0.99
-0.67
1.42
4.46
7.43
9.77
11.49
12.98
14.54
15.95
16.78
16.50
15.20
13.48
12.04
11.46
11.72
12.27
12.32
11.25
8.88
5.43
1.35
-3.00
-7.36
-11.51
-15.07
-17.57
-18.41
-17.43
-14.96
-12.15
-10.22
-10.06
-11.22
-12.40
-11.82
-8.51
-2.85
3.46
8.21
9.81
8.36
5.41
3.13
3.10
5.36
8.59
10.78
10.56
7.99
4.48
1.96
1.68
3.72
6.82
9.08
9.10
6.78
3.28
0.53
-0.00
1.90
5.14
7.88
8.51
6.72
3.25
-0.37
-2.93
-3.89
-3.50
-2.62
-2.11
-2.60
-4.16
-6.11
-7.89
-8.79
-8.72
-8.14
-7.96
-8.89
-11.10
-13.81
-15.77
-15.80
-13.57
-9.84
-6.08
-3.56
-2.67
-2.82
-2.74
-1.42
1.30
4.47
6.79
7.59
7.33
7.60
9.83
14.15
19.05
21.80
20.20
14.05
5.41
-2.21
-6.16
-5.82
-2.90
-0.25
-0.07
-2.64
-6.48
-9.40
-10.14
-8.83
-7.06
-6.48
-7.79
-10.10
-11.53
-10.31
-6.00
0.14
5.97
9.41
9.46
6.55
1.91
-3.03
-7.30
-10.64
-12.70
-13.04
-11.50
-8.35
-4.87
-2.84
-3.49
-6.71
-10.80
-13.26
-12.28
-7.59
-0.58
6.48
11.60
14.14
14.50
13.74
12.85
12.19
11.58
10.82
9.93
9.14
8.74
8.76
8.86
8.59
7.56
5.67
3.17
0.37
-2.29
-4.46
-5.75
-5.57
-3.36
1.06
7.11
13.42
18.19
20.01
18.43
14.25
8.96
3.99
0.13
-2.52
-4.09
-4.60
-3.80
-1.49
1.75
4.75
6.14
5.11
2.13
-1.24
-3.28
-3.27
-1.97
-1.28
-3.10
-7.80
-13.92
-18.93
-20.49
-17.96
-12.55
-6.63
-2.37
-0.84
-1.41
-2.61
-2.92
-1.78
0.20
1.72
1.65
-0.63
-4.50
-8.69
-11.67
-12.09
-9.55
-4.73
0.98
5.71
8.10
7.69
5.14
1.66
-1.53
-3.76
-5.23
-6.39
-7.43
-7.99
-7.29
-4.87
-1.19
2.43
4.41
3.95
1.74
-0.63
-1.32
0.55
4.43
8.68
11.60
12.20
10.94
8.79
6.86
5.64
4.70
3.08
0.31
-3.51
-7.35
-9.91
-10.30
-8.45
-5.55
-3.07
-2.11
-2.76
-3.73
-3.20
-0.03
5.28
10.63
13.49
11.93
5.94
-2.52
-10.64
-16.01
-17.43
-15.37
-10.99
-5.74
-0.69
3.75
7.14
8.99
8.78
6.20
1.39
-4.57
-10.28
-13.92
-14.09
-10.53
-4.02
3.44
9.60
12.67
11.83
7.44
0.63
-6.83
-13.17
-16.96
-17.33
-14.44
-9.14
-2.58
3.93
9.47
13.75
16.65
18.41
19.42
20.25
21.68
24.19
27.59
30.89
32.33
30.27
24.39
15.64
5.99
-2.39
-8.26
-11.72
-13.71
-15.37
-17.46
-19.98
-22.31
-24.03
-24.81
-24.74
-23.84
-21.97
-18.76
-13.85
-6.95
1.55
10.48
18.43
23.90
26.02
24.89
21.08
15.66
9.60
3.70
-1.25
-4.70
-6.42
-6.95
-7.33
-8.87
-12.18
-16.72
-20.87
-22.84
-21.81
-18.46
-14.45
-11.27
-9.37
-8.02
-6.17
-3.20
0.23
3.17
4.80
5.50
6.59
9.34
14.19
20.04
25.00
27.21
25.73
21.20
15.25
9.89
6.42
5.16
5.56
6.49
6.90
6.17
4.23
1.29
-1.88
-4.83
-7.22
-9.28
-11.23
-13.20
-14.80
-15.26
-14.05
-11.15
-7.36
-3.68
-1.08
0.35
1.11
1.98
3.39
5.02
6.17
6.20
4.96
2.65
-0.28
-3.41
-6.50
-9.00
-10.36
-10.08
-8.10
-4.80
-0.93
2.75
5.97
8.66
10.72
11.79
11.52
9.64
6.40
2.58
-0.96
-3.72
-5.56
-6.47
-6.65
-5.78
-3.47
0.39
5.17
9.90
13.16
14.04
12.37
8.69
4.07
-0.65
-4.81
-8.02
-10.30
-11.80
-12.80
-13.52
-14.31
-15.16
-15.74
-15.40
-13.63
-10.34
-5.93
-1.20
3.09
6.62
9.39
11.48
13.01
13.95
14.37
14.77
15.58
17.06
18.61
19.33
18.34
15.37
11.22
7.20
4.54
3.40
3.25
3.08
2.17
0.53
-1.53
-3.40
-5.10
-6.80
-8.76
-10.90
-12.89
-14.27
-14.68
-13.99
-12.15
-9.31
-5.52
-1.30
2.72
5.45
5.81
3.45
-1.25
-6.84
-11.62
-14.08
-13.73
-11.13
-7.49
-4.30
-2.58
-2.95
-4.93
-7.62
-9.84
-10.63
-9.61
-7.00
-3.47
0.07
2.86
4.42
4.70
3.90
2.29
0.12
-2.01
-3.55
-3.54
-1.67
1.76
5.30
7.21
6.24
2.71
-1.71
-4.72
-4.51
-1.03
4.11
8.51
10.25
8.81
5.19
1.10
-1.93
-3.22
-3.19
-2.41
-1.57
-0.54
0.98
3.36
6.32
9.16
10.88
10.67
8.52
5.18
1.85
-0.34
-0.87
0.15
2.17
4.80
7.53
10.01
11.63
11.87
10.45
7.90
5.02
2.66
1.30
0.75
0.57
0.18
-0.67
-1.99
-3.43
-4.49
-4.88
-4.57
-4.10
-4.29
-6.22
-10.18
-15.42
-20.24
-22.56
-21.25
-16.82
-11.31
-7.02
-5.53
-6.51
-8.44
-9.37
-8.27
-5.47
-2.18
0.36
1.71
2.30
3.18
5.07
7.96
10.93
12.79
12.83
11.29
9.35
8.19
8.64
10.31
12.06
12.64
11.27
8.13
4.19
0.66
-1.66
-2.79
-3.44
-4.37
-5.73
-7.10
-7.48
-6.18
-3.16
0.77
4.37
6.33
6.26
4.60
2.51
1.22
1.29
2.39
3.38
2.96
0.20
-4.63
-10.21
-14.86
-16.87
-15.95
-13.11
-10.33
-9.16
-10.03
-11.82
-12.51
-10.71
-6.45
-1.27
2.65
4.05
3.33
2.07
2.23
4.74
9.04
13.64
16.86
18.10
17.70
16.87
16.46
16.83
17.39
17.16
15.48
12.22
8.10
4.25
1.42
-0.15
-0.88
-1.54
-2.73
-4.45
-6.30
-7.71
-8.44
-8.78
-9.21
-9.99
-10.99
-11.61
-11.18
-9.40
-6.43
-2.91
0.23
2.29
2.51
0.91
-2.11
-5.41
-8.01
-9.08
-8.48
-6.73
-4.53
-2.64
-1.35
-0.83
-0.98
-1.83
-3.14
-4.49
-5.13
-4.27
-1.71
2.25
6.51
9.98
11.98
12.52
12.09
11.33
10.28
8.61
6.07
2.63
-0.98
-3.60
-4.55
-3.60
-1.74
-0.16
0.07
-1.11
-2.89
-3.86
-3.03
-0.35
3.20
5.78
6.08
3.79
0.24
-2.45
-2.27
1.35
7.17
12.90
16.25
16.08
12.80
7.97
3.01
-1.13
-4.40
-7.15
-9.53
-11.64
-13.46
-15.12
-16.94
-18.76
-20.08
-19.91
-17.69
-13.55
-8.49
-3.77
-0.48
1.10
1.29
0.70
-0.15
-1.11
-1.79
-1.96
-1.20
0.58
3.10
5.76
8.12
9.67
10.23
9.85
8.68
6.98
4.94
2.80
0.65
-1.34
-2.91
-3.48
-2.47
0.31
4.37
8.41
10.93
10.98
8.79
5.66
3.15
2.19
2.70
4.09
5.93
7.87
9.85
11.41
11.50
9.28
4.66
-1.47
-7.10
-10.66
-11.64
-10.61
-8.78
-7.12
-6.04
-5.46
-5.38
-5.71
-6.48
-7.06
-6.70
-4.77
-1.51
1.70
3.16
1.84
-1.86
-6.33
-9.59
-10.41
-8.53
-4.60
0.62
6.44
12.13
16.65
18.87
18.10
14.81
10.58
7.64
7.42
9.62
12.37
13.47
11.57
6.89
0.80
-5.17
-10.23
-14.25
-17.36
-19.61
-20.81
-20.84
-19.92
-18.48
-16.97
-15.47
-13.64
-11.06
-7.66
-3.83
-0.41
1.98
3.20
3.89
4.64
6.15
8.39
10.99
13.44
15.28
16.39
16.59
15.54
12.81
8.24
2.03
-4.91
-11.18
-15.54
-16.92
-15.17
-10.85
-5.10
0.64
4.81
6.45
5.46
2.84
0.44
-0.22
1.50
4.92
8.36
10.19
9.45
6.40
1.56
-3.89
-9.03
-12.71
-13.74
-11.31
-5.72
1.21
6.84
8.65
5.77
-0.75
-8.18
-13.71
-15.72
-13.94
-9.11
-2.26
5.71
13.68
20.13
23.37
22.25
17.08
9.93
3.46
-0.25
-0.49
2.02
5.80
9.36
11.70
12.02
9.84
5.17
-0.99
-6.82
-10.12
-9.79
-6.67
-3.31
-2.65
-6.24
-13.04
-20.10
-24.21
-23.95
-20.27
-15.85
-13.12
-12.90
-14.13
-14.66
-12.84
-8.42
-2.52
3.54
8.86
13.18
16.49
18.60
19.08
17.64
14.71
11.57
9.60
9.69
11.72
14.76
17.67
19.42
19.10
16.23
10.59
2.52
-7.02
-16.54
-24.35
-29.01
-29.48
-25.55
-17.91
-8.27
0.64
5.94
6.09
1.71
-4.34
-8.29
-7.38
-1.60
6.42
13.03
15.75
14.48
11.54
9.76
10.74
14.05
17.74
19.50
18.28
14.35
8.86
2.99
-2.64
-7.53
-11.24
-12.97
-12.04
-8.53
-3.50
1.21
3.85
3.84
2.05
0.22
-0.10
1.28
3.30
4.26
3.24
0.25
-3.81
-7.93
-11.50
-14.59
-17.07
-18.32
-17.50
-13.85
-7.62
-0.23
6.48
10.83
12.31
11.34
8.74
5.28
1.51
-1.94
-4.07
-4.15
-1.98
1.19
3.41
3.14
0.21
-3.79
-6.50
-6.46
-3.96
-0.82
0.98
0.47
-1.77
-4.32
-5.97
-6.51
-6.53
-6.58
-6.79
-6.47
-5.04
-2.62
-0.12
1.05
0.08
-2.77
-6.35
-8.86
-8.87
-6.02
-1.23
3.30
5.50
4.08
-0.41
-5.87
-9.75
-10.31
-7.55
-2.98
1.39
4.19
5.50
6.25
7.25
8.57
9.30
8.62
6.53
4.08
2.94
4.10
7.19
10.55
12.29
11.55
9.13
7.15
7.53
10.77
15.07
17.42
15.49
9.17
1.01
-5.34
-7.21
-4.39
0.79
4.92
5.61
2.70
-1.97
-6.06
-8.14
-8.10
-7.17
-6.71
-7.52
-9.52
-11.89
-13.97
-15.11
-15.00
-13.55
-11.02
-7.87
-4.69
-1.87
0.40
2.13
3.57
4.71
5.27
4.60
1.95
-2.80
-8.73
-13.96
-16.37
-14.67
-9.14
-1.64
5.47
10.59
13.49
15.03
16.54
18.54
20.37
20.63
17.94
12.02
3.69
-5.24
-12.66
-16.63
-16.13
-11.34
-4.00
3.34
8.30
9.79
8.23
5.05
1.62
-1.30
-3.84
-6.08
-7.71
-7.80
-5.70
-1.77
2.78
6.33
7.99
8.23
8.27
8.93
10.09
10.56
9.38
6.69
3.72
2.15
2.31
3.02
2.17
-1.54
-7.60
-13.77
-17.66
-18.30
-16.62
-14.71
-14.22
-15.26
-16.51
-16.33
-13.98
-10.14
-6.38
-3.87
-2.52
-1.14
1.73
6.57
12.23
16.76
18.35
16.28
11.50
5.82
1.17
-1.38
-2.02
-1.50
-0.81
-0.34
0.02
0.53
1.13
1.43
0.94
-0.29
-1.73
-2.51
-2.07
-0.55
1.60
3.67
5.33
6.47
7.16
7.34
6.94
5.83
4.15
2.68
2.28
3.68
6.72
10.23
12.64
12.57
9.71
4.84
-0.53
-5.07
-8.11
-9.72
-10.21
-9.71
-8.12
-5.42
-2.38
-0.21
-0.09
-2.17
-5.36
-8.08
-9.21
-8.95
-8.26
-7.83
-7.38
-5.66
-1.50
5.16
12.50
17.82
18.76
15.01
8.39
1.97
-1.65
-1.91
-0.16
1.29
1.10
-0.48
-1.90
-1.59
1.10
5.26
8.90
10.36
8.98
5.38
0.70
-4.09
-8.54
-12.46
-15.51
-17.10
-16.68
-14.36
-11.04
-7.87
-5.65
-4.38
-3.58
-2.63
-1.30
0.68
3.40
6.88
10.98
14.89
17.42
17.17
13.64
7.57
0.76
-4.94
-8.08
-8.54
-7.39
-6.06
-5.83
-7.01
-9.21
-11.48
-12.70
-11.89
-8.63
-3.51
2.03
6.20
7.65
6.29
3.31
0.51
-0.71
-0.23
0.85
1.45
1.09
0.39
0.61
2.57
6.03
9.66
11.89
12.00
10.37
8.13
6.26
4.97
3.57
1.13
-2.85
-7.73
-12.25
-15.00
-15.28
-13.36
-10.30
-7.28
-5.05
-3.67
-2.80
-2.12
-1.52
-1.42
-2.21
-3.96
-6.35
-8.49
-9.59
-9.03
-6.78
-3.31
0.63
4.33
7.21
9.24
10.67
12.28
14.48
17.01
18.85
18.56
15.19
9.51
3.58
-0.02
0.39
4.32
9.37
12.39
11.34
6.40
-0.40
-6.55
-10.34
-11.80
-11.95
-12.05
-12.64
-13.24
-13.18
-12.12
-10.64
-9.83
-10.50
-12.38
-14.10
-13.83
-10.56
-4.60
2.29
7.67
9.95
8.93
5.96
3.22
2.33
3.60
6.17
8.60
9.75
9.30
7.67
5.62
3.77
2.57
2.26
2.84
4.18
5.89
7.46
8.51
8.92
8.75
8.06
6.56
3.75
-0.54
-5.67
-10.12
-12.28
-11.16
-7.16
-2.24
1.39
2.26
0.73
-1.37
-1.78
0.65
5.10
9.27
10.57
7.62
1.04
-6.67
-12.69
-15.02
-13.52
-9.69
-5.78
-3.32
-2.37
-1.84
-0.25
2.98
7.08
10.11
10.19
6.59
0.23
-6.36
-10.49
-10.36
-5.99
0.68
6.78
9.83
9.04
5.24
0.47
-3.36
-5.52
-6.49
-7.21
-8.39
-9.86
-10.45
-9.08
-5.28
0.29
6.31
11.19
13.99
14.57
13.26
10.72
7.64
4.56
1.77
-0.39
-1.57
-1.41
0.58
4.53
9.80
15.21
19.18
20.17
17.42
11.18
2.59
-6.47
-13.86
-17.65
-16.88
-11.89
-4.55
2.18
5.76
5.02
0.78
-4.74
-9.47
-12.36
-13.61
-13.83
-13.17
-11.17
-7.47
-2.67
1.42
2.71
0.13
-5.34
-11.22
-14.62
-14.23
-10.82
-6.44
-3.29
-2.49
-3.92
-6.50
-9.09
-10.77
-11.10
-10.04
-7.83
-5.00
-2.20
0.23
2.34
4.38
6.68
8.93
10.25
9.63
6.54
1.80
-2.63
-4.43
-2.31
3.04
9.24
13.29
13.15
8.86
2.33
-3.55
-6.42
-5.48
-1.46
3.87
8.83
12.24
13.53
12.63
9.73
5.27
0.23
-3.99
-6.08
-5.33
-1.86
3.35
8.73
12.62
13.68
11.49
6.55
0.13
-6.12
-10.73
-12.98
-12.97
-11.36
-8.93
-6.28
-3.56
-0.73
2.16
5.10
7.99
10.70
13.11
14.94
15.66
14.85
12.56
9.35
6.25
4.13
3.52
4.37
6.38
9.06
12.06
14.68
15.91
14.66
10.41
3.91
-2.83
-7.45
-8.51
-6.63
-4.23
-4.11
-7.77
-14.21
-20.53
-23.23
-20.30
-12.27
-1.80
7.32
12.06
11.30
5.92
-1.73
-8.67
-12.62
-12.41
-8.39
-2.05
4.55
10.01
13.72
16.05
17.59
18.50
18.31
16.33
12.37
6.99
1.55
-2.35
-3.66
-2.41
0.50
3.64
5.67
5.83
3.95
0.49
-3.84
-8.15
-11.63
-13.77
-14.34
-13.37
-11.32
-8.94
-7.26
-7.30
-9.66
-14.32
-20.60
-26.99
-31.91
-34.08
-32.73
-27.93
-20.45
-11.43
-2.24
5.74
11.25
13.34
11.79
7.35
1.80
-2.62
-4.07
-1.88
3.12
9.03
13.96
16.89
18.20
19.20
21.07
24.23
27.98
30.88
31.39
28.66
22.76
14.59
5.38
-3.20
-9.77
-13.58
-14.65
-14.08
-13.54
-14.55
-17.73
-22.33
-26.63
-28.70
-27.29
-22.57
-16.10
-10.05
-6.15
-5.02
-5.95
-7.40
-8.00
-7.32
-6.12
-5.74
-7.16
-10.38
-14.09
-16.43
-16.06
-12.70
-7.15
-0.66
5.75
11.76
17.65
23.59
29.18
33.32
34.77
33.01
28.59
23.22
18.61
15.50
13.26
10.36
5.56
-0.95
-7.41
-11.38
-11.17
-6.99
-0.99
4.04
6.25
5.79
4.58
4.72
7.24
11.36
14.82
15.23
11.40
4.05
-4.44
-10.92
-12.98
-10.07
-3.59
3.53
8.23
8.97
6.14
1.81
-1.82
-3.66
-4.50
-5.91
-9.26
-14.26
-19.01
-21.09
-19.16
-13.81
-7.31
-2.45
-0.90
-2.28
-4.52
-5.01
-2.27
3.03
8.37
10.76
8.30
1.54
-6.93
-13.34
-14.79
-10.40
-1.58
8.70
17.15
21.55
21.33
17.84
13.27
9.71
8.07
7.89
7.70
5.91
1.65
-4.66
-11.66
-17.91
-22.60
-25.88
-28.21
-29.57
-29.14
-25.72
-18.76
-9.30
0.02
6.36
7.78
4.31
-2.20
-8.94
-13.56
-14.85
-13.08
-9.24
-4.63
-0.49
2.10
2.53
0.94
-1.45
-2.69
-1.17
3.63
10.73
18.18
24.24
27.93
29.15
28.26
25.46
20.95
15.42
10.30
7.19
7.03
9.10
11.15
10.77
6.91
0.61
-5.49
-8.84
-8.50
-5.34
-1.38
1.55
2.89
2.99
2.76
2.79
3.20
3.95
5.12
6.82
8.95
10.83
11.35
9.74
6.10
1.47
-2.38
-4.14
-3.59
-1.87
-0.84
-2.12
-5.86
-10.97
-15.35
-17.10
-15.53
-11.44
-6.79
-3.58
-2.81
-4.02
-5.59
-5.86
-4.01
-0.68
2.52
3.97
2.88
-0.09
-3.20
-4.89
-4.36
-2.21
0.03
0.88
0.09
-1.31
-1.34
1.38
6.76
13.20
18.28
19.97
17.74
12.61
6.64
1.92
-0.37
-0.11
1.87
4.31
6.05
6.40
5.36
3.39
0.95
-1.90
-5.54
-10.49
-16.97
-24.21
-30.56
-34.23
-34.21
-30.93
-26.07
-21.66
-19.08
-18.49
-18.77
-18.42
-16.42
-12.80
-8.56
-5.15
-3.65
-4.15
-5.80
-7.12
-7.15
-5.94
-4.58
-4.41
-6.26
-9.74
-13.48
-15.73
-15.10
-11.40
-5.36
1.80
8.79
14.68
18.85
21.02
21.50
21.07
20.88
21.76
23.44
24.42
22.83
17.49
9.05
0.08
-6.20
-7.65
-4.07
2.86
10.29
15.80
18.17
17.65
15.21
11.88
8.48
5.56
3.66
3.15
4.26
6.61
9.22
10.77
10.08
6.59
0.70
-6.33
-12.54
-15.87
-14.96
-9.56
-0.82
9.14
18.18
24.66
27.89
28.03
25.88
22.01
16.62
9.84
2.10
-5.38
-10.94
-12.98
-10.97
-5.96
-0.32
3.29
3.24
-0.37
-5.92
-11.11
-14.05
-14.47
-13.32
-12.37
-12.97
-15.39
-18.81
-21.65
-22.52
-20.63
-16.07
-9.49
-1.88
5.61
11.66
14.72
13.86
9.04
1.65
-5.61
-9.79
-8.99
-3.45
4.48
11.45
15.02
14.41
11.00
7.05
4.74
5.08
7.60
11.18
14.41
16.28
16.31
14.50
11.21
7.00
2.57
-1.19
-3.63
-4.63
-4.64
-4.60
-5.54
-7.97
-11.99
-16.73
-21.14
-24.10
-24.89
-23.43
-20.11
-15.95
-12.18
-9.71
-8.71
-8.63
-8.34
-6.94
-4.42
-1.71
-0.24
-0.64
-2.24
-3.02
-0.72
5.40
13.75
20.66
22.25
16.77
5.75
-6.85
-16.62
-21.33
-21.60
-20.07
-19.37
-20.00
-20.20
-17.34
-10.30
-0.43
9.05
15.09
16.68
15.37
13.93
14.40
17.06
20.31
22.06
20.85
16.40
9.48
1.28
-7.20
-15.21
-22.09
-26.97
-28.86
-27.02
-21.37
-12.75
-2.76
6.70
13.85
17.66
18.01
15.68
11.69
7.20
3.15
0.18
-1.25
-0.84
1.40
5.01
9.42
13.84
17.73
20.74
22.42
22.36
20.18
16.17
11.15
6.72
4.29
4.46
6.81
10.02
12.76
14.28
14.88
15.35
16.71
19.29
22.54
25.12
25.56
23.12
18.10
11.66
5.24
-0.16
-4.45
-7.92
-11.03
-13.79
-15.84
-17.06
-17.94
-19.68
-23.09
-27.97
-32.64
-34.69
-32.64
-26.76
-19.29
-13.20
-10.54
-11.50
-14.82
-18.70
-21.69
-23.16
-22.77
-20.22
-15.29
-8.45
-1.08
4.55
6.84
5.50
1.96
-1.54
-3.35
-3.21
-2.18
-1.59
-1.97
-2.79
-3.04
-2.33
-1.05
-0.01
0.36
0.66
2.21
6.00
11.88
18.17
22.62
23.72
21.94
19.39
18.72
21.25
25.85
29.59
29.23
23.34
12.94
0.90
-9.52
-16.15
-18.35
-16.71
-12.38
-6.86
-1.66
1.56
1.53
-2.06
-8.08
-14.51
-19.35
-21.28
-20.35
-17.28
-12.69
-6.76
0.61
8.85
16.63
22.23
24.49
23.46
20.24
16.07
11.47
5.95
-1.27
-9.99
-18.61
-24.52
-25.52
-21.08
-12.72
-3.34
4.13
8.04
8.38
6.34
3.35
0.36
-2.11
-3.91
-5.05
-5.47
-5.19
-4.33
-2.96
-1.04
1.51
4.40
6.62
7.28
5.75
2.42
-1.50
-4.36
-4.80
-2.48
2.07
7.66
13.12
17.59
20.63
21.94
21.64
20.13
18.02
16.19
15.04
14.49
13.99
12.88
11.13
9.15
7.34
5.40
2.57
-1.95
-7.89
-13.94
-18.03
-18.87
-17.15
-15.09
-15.29
-18.59
-23.93
-28.72
-30.81
-29.87
-27.54
-26.14
-27.00
-29.28
-30.60
-28.43
-21.48
-10.82
0.61
9.26
12.40
9.52
2.65
-4.71
-8.89
-7.88
-1.97
6.64
15.13
21.31
24.53
25.37
24.96
24.05
22.70
20.41
16.67
11.63
5.98
0.54
-4.08
-7.63
-9.86
-10.29
-8.35
-3.59
3.54
11.63
18.61
22.40
21.93
17.90
12.30
7.72
5.59
5.77
6.60
6.38
4.30
1.05
-1.76
-2.69
-1.66
0.01
0.38
-2.01
-6.97
-13.04
-18.24
-21.03
-21.10
-19.21
-16.38
-13.46
-10.73
-8.15
-5.86
-4.07
-2.98
-2.68
-2.91
-3.02
-2.46
-0.72
2.25
6.37
11.00
15.40
18.66
20.05
19.38
16.88
13.10
9.05
5.61
3.39
2.62
2.68
2.58
1.05
-3.05
-9.51
-17.02
-23.15
-25.45
-22.83
-16.45
-9.09
-4.30
-4.26
-8.77
-15.64
-21.85
-24.81
-23.60
-18.66
-11.19
-2.63
5.60
12.04
15.42
14.90
11.07
5.78
1.46
0.39
3.34
9.65
17.67
25.40
31.28
34.23
33.41
28.56
19.91
8.65
-3.14
-12.83
-18.43
-19.06
-15.58
-10.13
-5.27
-3.15
-4.74
-9.16
-14.15
-16.74
-14.58
-7.26
3.38
13.88
20.97
22.60
19.23
12.98
6.26
0.95
-2.43
-4.09
-4.40
-3.41
-1.43
0.62
1.18
-1.27
-7.13
-15.15
-22.63
-26.85
-26.19
-20.86
-12.48
-3.15
5.63
13.20
19.35
23.81
25.90
24.96
20.97
14.96
8.97
5.18
5.16
8.65
13.67
17.36
17.28
12.75
5.33
-1.75
-5.27
-3.56
2.37
9.27
13.33
12.22
6.28
-1.70
-7.89
-9.85
-7.36
-2.39
2.50
5.74
6.95
6.57
5.14
2.47
-1.77
-7.37
-13.26
-17.71
-19.49
-18.71
-16.70
-15.45
-16.34
-19.53
-23.87
-27.60
-29.23
-28.16
-24.68
-19.88
-15.14
-11.74
-10.47
-11.20
-13.16
-15.05
-15.27
-12.63
-6.50
2.62
12.98
22.34
28.40
29.58
25.71
17.64
6.91
-4.50
-14.67
-21.76
-24.34
-21.95
-15.42
-7.07
0.38
4.60
4.93
2.46
-0.68
-2.35
-1.05
3.61
11.34
21.08
31.13
39.51
44.23
44.20
39.97
33.29
26.41
20.91
16.99
13.89
10.75
7.45
4.97
4.45
5.89
7.66
7.15
2.53
-5.82
-15.05
-21.45
-22.92
-20.22
-16.84
-16.37
-20.31
-27.01
-32.81
-34.49
-31.27
-24.99
-18.61
-13.96
-10.86
-7.91
-4.05
0.53
4.66
7.30
8.72
10.24
13.08
17.12
20.52
20.80
16.62
8.87
0.35
-5.66
-7.10
-4.30
0.57
4.78
6.56
6.00
4.42
3.74
5.13
8.05
10.52
10.39
6.60
0.11
-6.68
-11.11
-11.53
-8.12
-2.69
2.39
5.43
5.99
4.76
3.00
1.61
0.95
0.90
1.30
2.10
3.40
4.91
6.02
6.05
4.48
1.36
-2.60
-6.54
-9.71
-11.94
-13.59
-15.15
-16.69
-17.69
-17.13
-14.30
-9.31
-3.15
2.69
6.94
9.11
9.50
8.93
8.05
6.99
5.70
4.22
2.88
2.08
1.98
2.17
1.70
-0.41
-4.42
-9.67
-14.57
-17.50
-17.61
-14.93
-10.66
-6.20
-2.36
0.68
3.33
5.82
7.89
8.97
8.55
6.85
4.90
4.11
5.59
9.37
14.26
18.34
19.91
18.30
14.22
9.26
5.17
2.84
2.13
2.03
1.39
-0.52
-3.42
-6.51
-8.69
-9.39
-8.68
-7.01
-5.19
-3.94
-3.82
-4.94
-7.02
-9.36
-11.07
-11.34
-9.76
-6.64
-2.79
1.04
4.39
7.10
9.17
10.61
11.22
10.82
9.52
7.85
6.48
5.88
6.11
6.70
7.07
6.47
4.67
1.60
-2.23
-6.17
-9.33
-11.20
-11.59
-10.58
-8.90
-7.09
-5.58
-4.39
-3.38
-2.69
-2.43
-2.71
-3.53
-4.23
-3.92
-2.16
0.37
2.04
0.99
-3.53
-10.77
-18.13
-22.56
-21.90
-15.93
-6.41
4.00
12.51
17.51
18.85
17.49
14.75
11.83
9.54
8.16
7.54
7.06
6.15
4.42
2.12
0.20
-0.32
1.56
5.93
11.76
17.35
20.91
21.26
18.29
12.93
6.79
1.41
-2.48
-4.80
-5.96
-6.21
-5.65
-4.27
-2.08
0.40
2.06
2.14
0.39
-2.46
-5.28
-6.92
-6.98
-5.98
-5.16
-5.52
-7.35
-10.13
-12.76
-14.26
-14.10
-12.50
-10.17
-7.89
-6.05
-4.69
-3.50
-2.23
-0.77
0.74
1.81
2.07
1.45
0.21
-1.24
-2.41
-2.79
-2.08
-0.68
0.92
1.96
1.99
1.24
0.54
0.91
2.81
5.70
8.37
9.66
9.39
8.43
8.37
10.42
14.58
19.25
22.09
21.25
16.39
9.00
1.69
-2.89
-3.41
-0.59
3.31
5.48
4.03
-1.18
-8.61
-15.88
-21.06
-23.35
-22.89
-20.40
-16.41
-11.13
-4.89
1.78
7.58
11.07
11.35
8.52
4.01
0.10
-1.34
0.43
4.48
8.55
10.16
8.01
2.67
-3.80
-9.23
-12.46
-13.98
-15.32
-17.72
-20.81
-22.91
-22.18
-18.09
-11.62
-4.97
0.17
3.78
6.78
10.38
14.76
18.56
20.13
18.48
14.02
8.48
3.79
1.07
0.44
1.20
2.71
4.62
6.83
9.13
10.87
11.11
9.13
4.93
-0.71
-6.48
-10.97
-13.40
-13.62
-12.02
-9.28
-6.13
-3.06
-0.65
0.58
0.49
-0.77
-2.66
-4.10
-4.12
-2.16
1.47
5.64
8.75
9.77
8.51
5.69
2.15
-1.58
-5.32
-8.92
-11.73
-12.51
-10.01
-4.10
3.90
11.55
16.26
16.68
13.44
8.80
5.43
5.03
7.46
11.10
13.87
14.15
11.52
6.59
0.58
-5.22
-10.05
-13.79
-16.68
-18.90
-20.45
-21.13
-21.02
-20.60
-20.67
-21.64
-23.04
-23.54
-21.52
-16.09
-7.71
1.69
9.63
14.27
15.29
13.78
11.65
10.31
10.11
10.62
11.00
10.84
10.34
9.77
9.39
9.03
8.22
6.68
4.54
2.51
1.40
1.93
4.02
6.86
9.11
9.58
7.76
4.19
0.29
-2.32
-2.82
-1.51
0.17
0.61
-0.89
-3.68
-5.91
-6.07
-3.82
-0.60
1.42
0.84
-2.17
-5.77
-7.61
-6.47
-2.99
0.88
3.04
2.60
0.35
-1.91
-2.74
-1.71
0.07
1.06
0.13
-2.67
-6.22
-8.87
-9.46
-7.69
-4.33
-0.88
1.07
0.80
-1.37
-4.41
-6.74
-7.18
-5.49
-2.24
1.45
4.46
6.08
6.43
6.13
6.02
6.68
8.06
9.47
10.27
9.95
8.44
6.11
3.45
0.43
-3.09
-7.21
-11.86
-16.44
-20.09
-22.05
-21.86
-19.27
-14.53
-8.43
-1.76
4.35
8.86
11.05
10.89
8.82
5.68
2.49
-0.13
-2.00
-3.17
-3.79
-3.83
-2.86
-0.53
3.12
7.51
11.27
13.04
12.06
8.93
5.15
2.54
2.13
3.54
5.40
6.17
5.06
2.18
-1.55
-5.27
-8.48
-10.88
-12.47
-13.18
-12.66
-10.37
-6.00
0.16
7.14
13.35
17.15
17.55
14.71
10.14
5.94
3.73
3.90
5.64
7.40
8.20
7.78
6.69
5.33
3.62
0.94
-3.03
-7.91
-12.40
-15.11
-15.22
-12.88
-9.32
-6.00
-3.74
-2.35
-1.35
-0.44
0.08
-0.70
-3.40
-7.58
-12.03
-15.08
-15.54
-13.51
-9.95
-5.99
-2.53
0.25
2.59
4.59
6.30
7.73
9.24
11.33
14.17
17.25
19.47
19.55
17.06
12.78
8.36
5.24
3.90
3.62
2.97
0.72
-3.35
-8.38
-12.66
-14.67
-13.81
-10.53
-6.11
-1.86
1.53
3.93
5.54
6.55
6.77
6.15
4.95
3.78
3.45
4.22
5.59
6.68
6.52
4.66
1.80
-0.92
-2.68
-3.22
-3.13
-3.20
-4.03
-5.56
-7.31
-8.98
-10.24
-11.19
-11.78
-11.92
-11.30
-9.74
-7.46
-5.14
-3.42
-2.77
-2.87
-2.82
-1.67
1.13
5.11
9.43
13.03
15.07
15.13
13.19
9.54
4.68
-0.53
-5.31
-9.07
-11.60
-12.75
-12.30
-10.11
-6.22
-1.28
3.20
5.64
5.01
1.85
-2.04
-4.35
-3.58
0.47
6.47
12.69
17.46
19.93
19.86
17.53
13.69
8.95
4.38
0.56
-2.23
-4.30
-6.02
-7.68
-8.93
-9.21
-8.37
-6.74
-5.21
-4.20
-3.65
-2.87
-1.28
0.98
3.13
4.43
4.31
2.96
1.00
-0.98
-2.60
-3.75
-4.39
-4.48
-3.88
-2.65
-1.08
0.60
2.22
3.86
5.34
6.18
5.44
2.45
-2.57
-8.18
-12.30
-13.24
-10.65
-5.64
-0.60
2.25
1.67
-1.86
-6.25
-9.04
-8.56
-5.02
-0.19
3.87
6.06
6.54
6.54
6.81
7.33
6.95
5.01
1.97
-0.47
-0.58
2.09
6.24
9.32
9.56
6.97
3.44
1.29
1.76
4.20
6.45
6.29
2.97
-2.61
-8.08
-10.98
-10.24
-6.68
-2.73
-0.89
-2.73
-7.80
-14.07
-18.75
-19.94
-17.27
-11.84
-5.19
1.08
6.23
10.13
12.90
14.44
14.60
13.15
10.29
6.51
2.59
-0.85
-3.27
-4.61
-4.80
-4.12
-3.00
-1.93
-1.18
-0.43
0.81
3.01
5.94
8.57
9.62
8.14
4.38
-0.36
-4.28
-6.28
-6.46
-6.02
-6.18
-7.36
-9.01
-9.94
-9.30
-7.28
-4.90
-3.44
-3.66
-5.55
-8.15
-9.98
-9.55
-6.19
-0.34
6.27
11.35
13.27
11.44
7.11
2.50
-0.36
-0.34
2.13
5.89
9.25
11.37
12.29
12.73
13.32
14.22
14.87
14.39
12.18
8.26
3.32
-1.66
-5.88
-9.22
-12.15
-15.11
-18.16
-20.59
-21.30
-19.68
-15.91
-11.06
-6.45
-3.12
-0.90
0.62
2.16
4.08
6.12
7.72
8.38
8.06
6.86
5.13
3.11
0.82
-1.57
-3.76
-5.32
-5.49
-3.94
-0.91
2.85
6.12
7.93
8.17
7.53
7.33
8.63
11.60
15.42
18.54
19.48
17.75
13.96
9.43
5.70
3.61
3.06
3.25
3.23
2.38
0.59
-1.72
-3.93
-5.73
-6.85
-7.45
-7.87
-8.13
-8.23
-8.06
-7.60
-7.15
-6.99
-7.05
-7.14
-6.88
-6.41
-6.22
-7.10
-9.36
-12.50
-15.31
-16.36
-14.88
-11.17
-6.55
-2.73
-1.04
-1.68
-3.93
-6.59
-8.23
-7.93
-5.62
-2.00
1.74
4.67
6.40
7.09
7.29
7.32
7.04
6.28
4.93
3.24
1.73
0.89
0.99
1.80
3.04
4.22
5.10
5.63
5.72
5.37
4.58
3.57
2.59
1.77
0.94
0.11
-0.31
0.26
2.09
4.92
7.74
9.09
8.15
5.30
1.76
-1.12
-2.50
-2.70
-2.60
-3.04
-4.14
-5.32
-5.75
-5.15
-3.78
-2.44
-1.58
-1.26
-1.14
-0.75
0.06
0.99
1.65
1.80
1.69
1.71
2.23
3.33
4.81
6.07
6.28
4.73
1.40
-2.94
-6.68
-7.91
-5.49
0.06
6.63
11.12
11.30
6.97
0.01
-6.27
-9.18
-7.87
-3.70
0.87
3.78
4.20
2.73
0.72
-0.82
-1.40
-1.01
0.27
2.71
6.55
11.27
15.62
17.80
16.56
12.06
5.76
-0.00
-3.40
-3.83
-1.80
1.37
4.42
6.37
6.50
4.39
-0.12
-6.58
-13.58
-19.21
-21.80
-20.85
-17.46
-13.64
-11.50
-11.97
-14.31
-16.98
-18.39
-17.86
-15.97
-13.87
-12.75
-12.98
-13.94
-14.51
-13.63
-10.91
-6.96
-2.95
0.11
1.75
2.32
2.60
3.40
5.22
8.07
11.84
16.11
20.34
23.87
26.05
26.26
24.47
21.10
17.14
13.52
10.75
9.02
8.27
8.11
7.90
6.66
3.73
-1.06
-6.80
-11.48
-12.99
-10.46
-4.66
2.03
6.75
7.84
5.60
1.97
-0.63
-0.81
0.88
2.61
2.55
-0.04
-4.41
-8.92
-12.19
-13.76
-14.09
-14.01
-13.87
-13.30
-11.77
-9.09
-5.91
-3.22
-1.53
-0.50
1.09
4.19
8.73
13.42
16.44
16.68
14.47
11.38
9.06
8.36
8.79
8.80
6.76
2.29
-3.71
-9.07
-11.44
-9.72
-4.48
2.07
6.97
7.97
4.60
-1.64
-8.13
-12.35
-13.18
-11.15
-8.02
-5.56
-4.57
-4.64
-4.70
-4.04
-2.64
-1.23
-0.97
-2.40
-5.31
-8.58
-10.81
-10.89
-8.57
-4.64
-0.69
1.79
2.00
0.40
-1.50
-2.13
-0.57
2.81
6.45
8.68
8.95
8.28
8.67
11.62
16.90
22.33
24.81
22.39
15.81
8.24
3.55
3.98
8.76
14.75
17.96
16.20
10.07
2.47
-3.40
-5.90
-5.74
-4.83
-4.97
-6.69
-9.26
-11.59
-13.23
-14.48
-16.03
-18.17
-20.53
-22.01
-21.42
-17.97
-11.59
-3.21
5.47
12.67
16.74
16.88
13.46
7.86
2.03
-2.28
-4.52
-4.88
-4.33
-3.79
-3.70
-4.08
-4.75
-5.49
-6.30
-6.96
-7.29
-6.85
-5.05
-1.33
4.20
10.70
16.60
20.01
19.60
15.27
8.15
0.09
-7.06
-12.22
-15.26
-16.47
-16.31
-15.14
-13.34
-11.57
-10.63
-10.81
-11.78
-12.34
-11.17
-7.82
-2.76
2.70
7.26
10.33
12.17
13.70
15.35
17.22
18.74
19.54
19.69
19.75
20.44
22.05
24.09
25.37
24.43
20.21
12.74
3.33
-5.84
-12.76
-16.28
-16.88
-15.84
-14.52
-13.58
-12.98
-12.40
-11.88
-11.84
-12.97
-15.24
-17.54
-18.21
-16.12
-11.56
-6.15
-2.35
-1.66
-4.14
-8.46
-12.87
-16.04
-17.50
-17.38
-15.97
-13.39
-9.58
-4.73
0.77
6.07
10.43
13.24
14.28
13.51
11.41
8.96
7.46
8.04
10.65
13.87
15.59
13.91
8.41
0.48
-7.43
-13.03
-15.21
-13.94
-10.15
-4.86
1.07
6.87
11.55
14.06
13.96
11.91
9.37
7.96
8.62
11.04
14.05
16.33
17.09
16.72
16.18
16.25
17.07
17.95
17.52
14.62
8.84
0.83
-7.86
-15.32
-19.80
-20.31
-16.98
-11.10
-4.69
0.36
2.90
2.82
1.15
-0.45
-0.79
0.34
1.87
2.25
0.16
-4.37
-9.83
-14.07
-15.28
-12.87
-8.04
-2.92
0.66
1.80
0.72
-1.73
-4.75
-7.93
-10.90
-12.75
-12.54
-9.22
-2.92
4.98
12.31
16.99
18.14
16.51
13.82
11.73
10.81
10.57
9.95
8.16
5.25
2.18
0.05
-0.74
-0.43
0.11
-0.22
-1.69
-4.13
-7.01
-9.77
-12.34
-14.61
-16.44
-17.37
-17.10
-15.39
-12.36
-8.68
-5.02
-1.93
0.33
1.84
2.77
3.33
3.70
4.00
4.29
4.44
4.19
3.17
1.32
-1.30
-4.18
-6.61
-7.91
-7.39
-4.70
-0.30
5.03
9.86
12.80
13.10
10.60
6.03
0.47
-4.95
-9.39
-12.30
-13.28
-12.37
-9.93
-6.94
-4.63
-4.22
-6.23
-10.09
-14.37
-17.17
-17.36
-14.62
-9.56
-3.33
3.05
8.75
13.36
16.60
18.44
19.12
19.12
18.75
18.39
18.09
17.90
17.71
17.27
16.39
14.77
12.25
8.79
4.68
0.42
-3.45
-6.62
-9.17
-11.22
-13.04
-14.44
-15.21
-15.10
-13.90
-11.74
-8.78
-5.34
-2.03
0.58
2.08
2.56
2.53
2.57
3.09
3.76
4.00
3.36
2.08
0.88
0.51
1.02
1.56
0.85
-1.69
-5.71
-9.92
-12.92
-14.15
-14.01
-13.49
-13.27
-13.18
-12.16
-8.84
-2.50
6.44
16.25
24.58
29.14
28.70
23.60
15.52
7.15
0.88
-2.13
-2.23
-1.14
-0.65
-2.00
-4.95
-8.35
-10.69
-11.20
-10.13
-8.53
-7.47
-7.17
-6.78
-4.93
-1.00
4.39
9.13
10.83
8.40
2.72
-3.35
-6.73
-5.70
-0.96
4.90
8.87
9.20
6.25
1.73
-2.31
-4.63
-5.04
-4.36
-3.31
-2.46
-1.82
-1.29
-1.00
-1.12
-1.81
-2.91
-3.96
-4.24
-3.23
-0.78
2.64
6.02
8.37
8.85
7.28
4.03
0.06
-3.62
-6.32
-7.63
-7.39
-5.83
-3.36
-0.60
1.71
3.21
3.46
2.69
1.43
0.15
-0.57
-0.60
0.11
1.58
3.71
6.15
8.38
9.72
9.68
8.24
6.01
3.98
2.93
3.06
4.01
4.95
5.49
5.20
3.88
1.39
-2.58
-7.61
-12.47
-15.42
-15.06
-11.17
-5.19
0.74
4.44
5.26
3.96
2.24
1.54
2.45
4.33
6.07
6.74
6.09
4.35
2.29
0.74
0.36
1.46
3.69
6.19
7.74
7.62
5.59
2.54
-0.45
-2.33
-2.58
-1.58
-0.21
0.52
-0.00
-1.67
-3.92
-6.03
-7.60
-8.74
-9.52
-10.07
-10.40
-10.28
-9.42
-7.72
-5.29
-2.69
-0.34
1.17
1.72
1.50
1.23
1.58
2.91
4.95
6.68
7.00
5.15
1.59
-2.64
-6.20
-8.29
-8.93
-8.32
-6.75
-3.96
0.38
6.04
11.98
16.60
18.07
15.72
10.37
3.89
-1.60
-4.71
-5.15
-3.49
-0.87
1.55
2.88
2.94
2.03
0.78
-0.22
-0.77
-1.20
-1.88
-2.87
-3.90
-4.07
-2.72
0.07
3.46
5.80
5.85
3.03
-1.70
-6.57
-9.64
-9.93
-7.64
-4.21
-1.47
-0.69
-2.16
-4.96
-7.52
-8.38
-7.00
-3.93
-0.46
2.02
2.81
2.21
0.94
-0.44
-1.80
-3.67
-6.29
-9.31
-11.46
-11.17
-7.47
-0.87
6.59
12.26
14.33
12.31
7.64
2.36
-1.53
-2.94
-1.78
1.44
5.73
9.99
13.10
14.26
12.88
9.01
3.25
-3.38
-9.57
-13.90
-15.62
-14.61
-11.47
-7.59
-4.40
-3.01
-3.36
-4.49
-4.85
-3.49
-0.59
2.69
4.56
3.97
1.18
-2.79
-6.32
-8.28
-8.36
-6.89
-4.51
-1.86
0.52
2.22
2.63
1.57
-0.69
-3.01
-3.90
-2.43
1.23
5.89
10.07
12.67
13.56
13.13
11.81
9.65
6.82
3.81
1.71
1.53
3.63
7.37
11.20
13.26
12.69
9.55
4.85
-0.22
-4.83
-8.52
-10.79
-11.13
-9.33
-5.65
-1.48
1.70
2.97
2.50
1.33
0.41
0.05
-0.46
-1.96
-4.71
-7.58
-8.66
-6.37
-1.01
5.31
9.58
9.53
5.04
-2.02
-8.80
-12.93
-13.80
-12.17
-9.50
-6.96
-4.78
-2.47
0.45
3.84
6.76
7.99
7.12
4.61
1.88
0.70
2.10
5.71
9.70
11.81
10.18
4.73
-2.71
-9.10
-11.44
-8.34
-0.96
7.92
15.06
18.18
17.03
12.94
7.73
2.85
-1.31
-5.17
-9.12
-12.94
-15.87
-16.80
-15.30
-11.97
-8.31
-5.77
-4.90
-5.10
-5.22
-4.14
-1.82
0.95
3.10
4.13
4.45
4.94
6.16
7.58
7.99
6.65
3.89
1.36
1.03
3.53
7.96
12.29
14.55
14.26
12.17
9.73
7.89
6.57
5.03
2.53
-0.88
-4.43
-7.13
-8.40
-8.61
-8.75
-9.67
-11.55
-13.96
-16.26
-17.99
-19.41
-20.71
-21.99
-22.82
-22.19
-19.43
-14.22
-7.28
-0.18
5.55
8.79
9.47
8.49
7.20
6.83
7.89
10.03
12.47
14.16
14.49
13.50
12.03
11.20
11.69
13.47
15.82
17.83
18.82
18.64
17.51
15.44
12.36
8.08
3.15
-1.49
-4.50
-5.09
-3.80
-2.10
-1.84
-4.06
-8.47
-13.58
-17.64
-19.68
-19.85
-19.20
-18.57
-18.40
-18.22
-17.28
-15.00
-11.50
-7.25
-2.77
1.44
5.23
8.28
10.41
11.15
10.52
8.88
7.00
5.65
5.16
5.66
6.62
7.78
8.81
9.57
9.78
8.99
6.96
3.77
0.04
-3.22
-5.00
-4.80
-2.52
1.53
6.69
12.16
16.71
18.91
17.62
12.73
5.59
-1.74
-7.08
-9.55
-9.62
-8.94
-8.82
-9.80
-11.41
-12.81
-13.66
-14.14
-14.96
-16.15
-17.12
-16.60
-13.71
-8.70
-3.08
1.12
2.50
0.87
-2.78
-7.08
-10.70
-13.00
-13.79
-13.07
-10.95
-7.66
-3.86
-0.55
1.68
2.71
3.25
4.26
6.37
9.10
11.20
11.49
9.71
6.71
3.95
2.66
2.96
4.21
5.34
5.87
5.84
5.74
5.62
4.94
3.13
0.09
-3.35
-5.66
-5.16
-1.30
4.91
11.57
16.55
18.79
18.29
15.68
11.74
6.81
1.28
-4.24
-8.80
-11.52
-12.00
-10.72
-8.64
-6.43
-4.21
-1.76
0.89
3.12
3.75
2.27
-0.59
-2.90
-2.72
0.63
5.93
10.71
12.64
10.84
6.21
0.57
-4.65
-9.06
-13.27
-17.69
-22.03
-24.90
-24.55
-20.13
-12.28
-2.87
5.76
11.89
15.06
16.08
16.18
16.06
15.65
14.45
12.08
8.96
6.16
4.80
5.18
6.49
6.96
5.06
0.44
-5.80
-11.54
-14.65
-14.24
-11.15
-7.45
-5.35
-5.89
-8.15
-10.21
-10.13
-7.26
-2.64
1.77
4.35
4.96
4.96
5.99
8.87
13.01
16.76
18.33
17.21
14.22
11.00
8.78
7.66
6.79
5.37
3.37
1.65
1.40
3.11
5.84
7.70
7.05
3.52
-1.50
-5.59
-6.75
-4.53
-0.42
3.18
4.31
2.48
-1.36
-5.65
-9.19
-11.38
-12.12
-11.49
-9.67
-6.92
-3.82
-0.98
0.95
1.73
1.51
0.84
-0.13
-1.43
-3.35
-6.01
-9.16
-12.24
-14.44
-15.38
-15.04
-13.91
-12.68
-11.69
-11.14
-10.90
-10.72
-10.32
-9.70
-9.04
-8.62
-8.47
-8.51
-8.59
-8.39
-7.70
-6.34
-4.24
-1.47
1.57
4.25
5.87
5.96
5.05
4.17
4.96
8.48
14.79
22.49
29.15
32.64
31.86
27.75
22.48
18.40
16.76
16.81
16.46
13.89
8.93
3.01
-1.47
-3.02
-1.94
-0.16
0.12
-2.26
-6.63
-11.14
-13.96
-14.05
-11.58
-7.26
-1.91
3.69
8.90
12.40
12.96
9.75
3.32
-4.27
-10.46
-13.12
-11.91
-7.88
-3.24
0.04
0.91
-0.47
-3.29
-6.53
-8.91
-9.70
-8.36
-4.96
-0.28
4.25
7.12
7.33
5.10
1.64
-1.66
-3.99
-5.50
-6.65
-7.77
-8.47
-7.68
-4.86
-0.44
3.86
5.80
4.23
-0.38
-5.74
-9.07
-8.44
-4.04
1.93
6.40
7.25
4.19
-1.11
-5.82
-7.69
-6.19
-2.63
0.57
1.51
-0.52
-4.51
-8.24
-9.56
-7.47
-2.66
2.74
6.40
6.86
4.24
0.23
-3.17
-4.79
-4.78
-4.45
-4.85
-6.15
-7.22
-6.76
-4.37
-0.89
1.98
3.00
2.33
1.31
1.45
3.42
6.62
9.73
11.52
11.38
9.58
6.51
2.65
-1.51
-5.44
-8.31
-9.52
-8.72
-6.03
-2.19
1.83
5.28
7.44
7.79
6.20
2.89
-1.19
-5.10
-7.94
-9.26
-9.27
-8.46
-7.09
-5.22
-2.76
0.02
2.44
3.81
3.66
2.41
1.26
1.63
4.45
9.22
14.27
17.38
16.86
12.78
6.86
1.85
0.37
3.20
9.05
15.37
19.46
19.62
15.75
8.97
1.13
-6.20
-12.00
-15.76
-17.43
-17.20
-15.25
-11.87
-7.26
-2.05
2.62
5.38
5.08
1.47
-4.34
-10.20
-13.94
-14.45
-12.14
-8.62
-5.69
-4.38
-4.69
-5.95
-7.46
-8.58
-8.97
-8.27
-6.27
-3.23
0.05
2.37
2.92
1.91
0.72
1.21
4.42
9.70
14.96
17.87
17.15
13.57
9.44
7.12
7.53
9.86
12.21
12.92
11.88
10.45
10.48
12.83
16.50
19.01
17.84
12.06
2.70
-7.78
-16.80
-22.68
-25.21
-25.43
-24.70
-24.07
-23.82
-23.47
-22.19
-19.38
-15.04
-10.02
-5.43
-2.05
-0.11
0.91
2.18
4.57
8.22
12.51
16.48
19.24
20.86
21.94
23.00
24.08
24.48
23.34
20.47
16.43
12.47
9.42
7.32
5.60
3.50
0.65
-2.56
-5.43
-7.38
-8.08
-7.68
-6.46
-4.78
-3.00
-1.40
-0.13
0.81
1.19
0.81
-0.65
-3.40
-7.22
-11.21
-14.30
-15.57
-14.83
-12.86
-10.71
-9.29
-8.81
-9.04
-9.80
-10.91
-12.05
-12.57
-11.37
-7.59
-1.64
5.21
10.91
13.78
13.09
9.25
3.41
-3.08
-8.92
-13.10
-14.75
-13.39
-9.17
-2.98
3.63
8.98
11.89
12.10
9.95
6.23
1.63
-3.35
-8.07
-11.91
-14.37
-15.28
-14.89
-13.86
-12.52
-10.79
-8.25
-4.50
0.05
4.68
8.26
10.38
11.40
12.24
13.96
16.96
20.72
23.93
25.32
23.86
19.28
11.99
3.07
-5.95
-13.43
-17.89
-18.64
-15.76
-10.57
-4.76
0.10
3.39
5.24
6.36
7.27
7.84
7.53
5.67
2.28
-1.84
-5.64
-8.26
-9.53
-9.76
-9.20
-7.91
-5.77
-2.91
0.11
2.67
4.52
6.04
8.04
10.77
13.83
16.21
17.12
16.26
13.93
10.55
6.11
0.48
-6.10
-12.31
-16.17
-16.01
-11.74
-5.30
0.43
3.07
2.12
-1.03
-4.04
-5.15
-3.76
-0.64
2.85
5.57
6.82
6.54
5.22
3.61
2.26
1.22
0.00
-2.08
-5.26
-8.63
-10.54
-9.52
-5.10
1.34
7.17
9.95
8.66
4.20
-1.27
-5.55
-7.50
-7.24
-5.56
-3.26
-0.72
2.08
4.91
7.12
7.75
6.11
1.98
-3.92
-10.31
-15.80
-19.26
-20.36
-19.48
-17.48
-15.23
-13.09
-11.04
-8.44
-4.72
0.22
5.75
10.58
13.44
13.62
11.54
8.44
5.87
4.95
6.05
8.87
12.88
17.32
21.32
24.11
24.87
23.03
18.35
11.17
2.50
-6.24
-13.40
-17.63
-17.99
-14.82
-9.54
-4.59
-2.23
-3.60
-7.74
-12.13
-13.89
-11.38
-5.05
2.67
8.88
11.28
9.21
3.65
-3.30
-9.23
-12.20
-11.47
-7.54
-2.05
2.86
5.25
4.29
0.54
-4.50
-9.21
-12.37
-13.61
-12.97
-10.75
-7.11
-2.50
2.11
5.18
5.26
1.67
-4.82
-12.18
-17.75
-19.38
-16.18
-8.93
0.50
9.74
16.84
20.81
21.59
19.74
16.29
12.24
8.41
5.39
3.24
1.46
-0.59
-3.36
-6.55
-9.15
-9.79
-7.81
-3.66
1.02
4.09
3.98
0.66
-4.28
-8.45
-9.82
-7.63
-2.70
3.36
9.03
13.28
15.79
16.62
15.89
13.62
9.84
5.03
0.03
-3.76
-5.04
-3.28
1.15
7.00
12.73
16.91
18.56
17.35
13.63
8.56
3.63
0.09
-1.72
-2.60
-4.10
-7.33
-12.29
-17.24
-19.86
-18.38
-12.90
-5.40
1.22
4.83
5.18
3.72
2.61
2.80
3.66
3.57
1.01
-3.82
-9.19
-12.63
-12.72
-9.69
-5.24
-1.47
0.11
-0.60
-2.67
-4.68
-5.53
-5.04
-3.66
-2.24
-1.29
-0.92
-0.75
-0.18
1.24
3.52
6.25
8.66
9.70
8.43
4.50
-1.66
-8.45
-13.80
-15.58
-12.76
-6.18
1.60
7.55
9.68
8.15
5.02
3.08
4.13
7.97
13.02
17.21
19.38
19.81
19.54
19.59
19.88
19.33
16.51
10.78
2.97
-4.61
-9.36
-9.66
-6.04
-1.12
1.47
-1.06
-8.82
-19.14
-27.59
-30.14
-25.21
-14.70
-3.05
4.81
5.93
0.67
-7.78
-14.87
-17.14
-13.58
-5.68
3.50
10.88
14.53
14.08
10.46
5.31
0.18
-3.76
-5.93
-6.18
-4.58
-1.57
2.38
6.70
10.64
13.57
