1712257210.00
64.000000
-0.00
-0.00
-0.00
-0.00
-0.00
-0.00
-0.00
-0.00
-0.00
-0.00
0.00
0.01
0.01
-0.00
-0.03
-0.05
-0.05
0.00
0.13
0.36
0.66
1.01
1.37
1.72
2.06
2.40
2.79
3.24
3.80
4.42
5.06
5.66
6.20
6.68
7.15
7.68
8.31
9.14
10.09
11.04
11.88
12.56
13.14
13.76
14.65
15.96
17.91
20.32
22.90
25.38
27.58
29.57
31.68
34.32
37.82
42.54
48.15
54.10
59.83
64.97
69.59
74.17
79.39
85.75
93.77
102.92
112.41
121.37
129.27
136.17
142.68
150.12
157.15
166.00
177.23
190.97
206.03
219.53
227.19
224.34
207.59
175.97
131.81
78.90
21.60
-36.78
-94.57
-151.43
-207.47
-262.48
-315.80
-366.13
-412.62
-454.53
-491.08
-521.12
-543.03
-555.04
-555.55
-543.84
-520.03
-485.54
-442.40
-392.86
-339.03
-282.75
-225.63
-169.23
-115.20
-65.05
-20.13
18.82
51.73
79.10
101.71
120.25
135.09
146.26
153.62
156.95
156.12
151.29
143.20
133.49
124.70
119.78
121.05
129.10
142.32
157.32
170.23
178.18
180.12
176.80
169.84
160.63
149.74
137.07
122.42
106.12
89.20
73.13
59.32
48.74
41.60
37.46
35.26
33.84
32.31
30.26
27.78
25.15
22.60
20.11
17.44
14.36
10.96
7.66
5.02
3.46
2.94
3.00
2.94
2.23
0.79
-0.97
-2.41
-3.01
-2.65
-1.73
-0.86
-0.61
-1.20
-2.43
-3.85
-4.93
-5.25
-4.61
-3.09
-1.00
1.13
2.71
3.30
2.79
1.50
0.05
-0.92
-1.08
-0.52
0.32
0.95
1.09
0.77
0.22
-0.33
-0.80
-1.27
-1.82
-2.45
-3.02
-3.32
-3.19
-2.64
-1.85
-1.06
-0.45
-0.06
0.19
0.38
0.55
0.63
0.53
0.24
-0.12
-0.39
-0.41
-0.15
0.28
0.73
1.11
1.40
1.68
2.07
2.60
3.24
3.93
4.58
5.17
5.68
6.11
6.46
6.68
6.74
6.58
6.19
5.55
4.64
3.53
2.19
0.70
-0.86
-2.38
-3.73
-4.85
-5.77
-6.58
-7.40
-8.33
-9.34
-10.32
-11.06
-11.36
-11.14
-10.43
-9.36
-8.14
-6.97
-5.97
-5.27
-4.93
-4.97
-5.29
-5.72
-6.06
-6.15
-5.97
-5.59
-5.13
-4.69
-4.31
-3.96
-3.64
-3.41
-3.39
-3.62
-4.07
-4.58
-4.98
-5.18
-5.20
-5.18
-5.25
-5.49
-5.88
-6.29
-6.63
-6.85
-6.99
-7.07
-7.11
-7.09
-6.95
-6.64
-6.12
-5.44
-4.70
-4.04
-3.54
-3.15
-2.69
-1.87
-0.66
0.96
2.88
4.90
6.81
8.47
9.85
10.98
11.90
12.65
13.24
13.72
14.08
14.28
14.25
13.87
13.05
11.79
10.17
8.44
6.89
5.74
5.10
4.91
4.89
4.72
4.11
2.96
1.38
-0.34
-1.92
-3.17
-4.02
-4.55
-4.87
-5.11
-5.36
-5.64
-5.93
-6.15
-6.18
-5.92
-5.34
-4.50
-3.53
-2.58
-1.72
-0.93
-0.17
0.58
1.21
1.52
1.33
0.59
-0.55
-1.80
-2.81
-3.33
-3.29
-2.77
-1.97
-1.10
-0.33
0.21
0.41
0.27
-0.17
-0.77
-1.31
-1.63
-1.63
-1.34
-0.87
-0.39
-0.03
0.13
0.08
-0.19
-0.62
-1.14
-1.65
-2.04
-2.25
-2.27
-2.18
-2.10
-2.16
-2.48
-3.09
-3.92
-4.85
-5.66
-6.14
-6.07
-5.37
-4.05
-2.27
-0.29
1.58
3.08
4.08
4.57
4.66
4.54
4.37
4.23
4.13
4.03
3.95
3.95
4.14
4.60
5.32
6.18
6.97
7.50
7.68
7.51
7.10
6.54
5.89
5.20
4.48
3.79
3.20
2.80
2.63
2.65
2.73
2.71
2.43
1.83
0.93
-0.21
-1.53
-2.95
-4.37
-5.67
-6.68
-7.24
-7.33
-7.05
-6.68
-6.54
-6.86
-7.64
-8.69
-9.65
-10.16
-10.00
-9.12
-7.62
-5.72
-3.64
-1.61
0.15
1.47
2.22
2.36
1.99
1.31
0.56
-0.11
-0.64
-1.03
-1.30
-1.39
-1.23
-0.76
-0.04
0.75
1.39
1.74
1.77
1.56
1.22
0.83
0.43
0.03
-0.27
-0.39
-0.24
0.21
0.86
1.55
2.13
2.49
2.62
2.61
2.58
2.67
2.95
3.40
3.86
4.05
3.73
2.83
1.47
-0.02
-1.24
-1.91
-1.95
-1.45
-0.64
0.27
1.14
1.94
2.70
3.42
4.11
4.69
5.05
5.09
4.73
4.01
3.02
1.91
0.88
0.10
-0.28
-0.14
0.52
1.57
2.75
3.72
4.15
3.87
2.93
1.61
0.29
-0.74
-1.37
-1.67
-1.83
-1.99
-2.16
-2.25
-2.14
-1.81
-1.37
-1.06
-1.11
-1.61
-2.45
-3.38
-4.16
-4.69
-5.03
-5.35
-5.80
-6.39
-6.96
-7.30
-7.22
-6.65
-5.68
-4.43
-3.08
-1.75
-0.58
0.34
0.90
1.06
0.87
0.42
-0.14
-0.73
-1.30
-1.88
-2.53
-3.28
-4.13
-5.02
-5.88
-6.61
-7.15
-7.49
-7.69
-7.83
-8.01
-8.30
-8.70
-9.14
-9.56
-9.89
-10.07
-10.07
-9.81
-9.18
-8.06
-6.35
-4.02
-1.20
1.89
4.94
7.66
9.84
11.42
12.45
13.08
13.42
13.52
13.31
12.69
11.62
10.18
8.60
7.18
6.21
5.85
6.09
6.77
7.64
8.43
8.93
9.01
8.68
8.00
7.10
6.11
5.13
4.20
3.33
2.55
1.90
1.50
1.42
1.70
2.25
2.87
3.38
3.69
3.79
3.76
3.66
3.49
3.19
2.71
2.10
1.47
0.99
0.79
0.84
1.08
1.37
1.62
1.80
1.87
1.79
1.50
0.97
0.22
-0.63
-1.39
-1.90
-2.10
-2.02
-1.83
-1.71
-1.81
-2.18
-2.77
-3.46
-4.08
-4.48
-4.54
-4.21
-3.48
-2.42
-1.15
0.16
1.35
2.27
2.86
3.13
3.16
3.06
2.94
2.84
2.76
2.68
2.58
2.46
2.35
2.30
2.37
2.58
2.92
3.32
3.67
3.90
3.94
3.80
3.55
3.26
2.98
2.74
2.51
2.30
2.10
1.97
1.92
1.94
1.92
1.76
1.36
0.72
-0.03
-0.70
-1.10
-1.16
-0.94
-0.65
-0.50
-0.67
-1.20
-2.00
-2.91
-3.71
-4.19
-4.20
-3.67
-2.68
-1.44
-0.25
0.58
0.85
0.52
-0.20
-1.00
-1.55
-1.69
-1.51
-1.32
-1.47
-2.17
-3.36
-4.64
-5.50
-5.51
-4.59
-3.04
-1.51
-0.77
-1.49
-4.18
-8.99
-15.71
-23.66
-31.74
-38.64
-43.18
-44.75
-43.54
-40.44
-36.62
-32.96
-29.58
-25.86
-20.78
-13.58
-4.20
6.54
17.23
26.48
33.42
38.08
41.15
43.50
45.63
47.30
47.60
45.43
39.96
31.09
19.47
6.27
-7.07
-19.09
-28.44
-33.94
-34.78
-30.73
-22.32
-10.85
2.00
14.60
25.77
35.15
43.11
50.53
58.42
67.45
77.53
87.60
95.69
99.34
96.42
85.92
68.54
46.53
23.06
1.24
-16.65
-29.47
-37.19
-40.61
-41.17
-40.65
-40.66
-42.18
-44.98
-47.68
-48.34
-45.52
-39.10
-30.51
-22.06
-15.84
-12.77
-12.40
-13.45
-14.65
-15.37
-15.69
-16.07
-16.88
-18.15
-19.56
-20.70
-21.21
-20.90
-19.72
-17.65
-14.69
-10.89
-6.49
-2.01
1.89
4.54
5.60
5.22
3.91
2.40
1.24
0.67
0.63
0.89
1.30
1.79
2.43
3.23
4.11
4.90
5.36
5.34
4.82
3.92
2.88
1.92
1.24
0.94
0.99
1.36
2.04
3.04
4.39
6.00
7.63
8.88
9.34
8.76
7.19
4.97
2.59
0.50
-1.05
-2.09
-2.82
-3.49
-4.24
-5.15
-6.22
-7.49
-8.99
-10.76
-12.71
-14.60
-16.07
-16.82
-16.67
-15.65
-13.95
-11.85
-9.53
-7.09
-4.51
-1.78
1.02
3.66
5.82
7.19
7.59
7.11
6.01
4.68
3.45
2.49
1.82
1.32
0.87
0.40
-0.08
-0.52
-0.90
-1.32
-2.03
-3.32
-5.43
-8.47
-12.30
-16.63
-21.03
-25.14
-28.63
-31.24
-32.76
-32.98
-31.79
-29.37
-26.25
-23.09
-20.37
-17.97
-15.19
-11.08
-4.97
2.96
11.62
19.41
24.91
27.49
27.59
26.40
25.32
25.43
27.10
29.99
33.28
35.93
37.05
36.15
33.20
28.63
23.10
17.28
11.83
7.46
4.93
4.96
7.94
13.55
20.65
27.54
32.47
34.28
32.73
28.47
22.65
16.42
10.64
5.76
2.00
-0.54
-1.77
-1.75
-0.89
0.08
0.27
-0.89
-3.33
-6.14
-7.88
-7.17
-3.35
3.14
10.93
18.26
23.67
26.46
26.66
24.69
21.04
16.05
10.12
3.88
-1.74
-5.81
-7.70
-7.50
-6.02
-4.45
-3.85
-4.70
-6.82
-9.55
-12.21
-14.38
-15.97
-17.05
-17.69
-17.78
-17.19
-15.89
-14.16
-12.51
-11.55
-11.65
-12.78
-14.55
-16.35
-17.63
-18.11
-17.83
-17.03
-16.01
-14.99
-14.05
-13.22
-12.51
-11.97
-11.69
-11.69
-11.90
-12.16
-12.24
-12.00
-11.40
-10.58
-9.75
-9.12
-8.80
-8.80
-8.99
-9.24
-9.45
-9.55
-9.48
-9.17
-8.55
-7.55
-6.20
-4.61
-2.94
-1.36
-0.01
1.06
1.83
2.31
2.52
2.48
2.20
1.72
1.10
0.47
-0.02
-0.23
-0.09
0.33
0.84
1.13
0.96
0.22
-0.97
-2.34
-3.58
-4.50
-5.10
-5.59
-6.23
-7.22
-8.55
-10.07
-11.55
-12.83
-13.90
-14.81
-15.70
-16.68
-17.87
-19.42
-21.50
-24.18
-27.31
-30.35
-32.48
-32.82
-30.76
-26.20
-19.57
-11.67
-3.31
4.77
12.09
18.27
23.08
26.41
28.36
29.25
29.52
29.53
29.47
29.26
28.71
27.66
26.21
24.60
23.15
22.09
21.46
21.13
20.91
20.67
20.36
20.02
19.70
19.42
19.13
18.79
18.33
17.78
17.21
16.77
16.59
16.75
17.19
17.82
18.54
19.37
20.41
21.77
23.44
25.18
26.61
27.38
27.25
26.18
24.18
21.18
16.94
11.22
3.95
-4.53
-13.48
-21.94
-29.08
-34.38
-37.76
-39.45
-39.80
-39.16
-37.82
-36.03
-34.00
-31.92
-29.88
-27.94
-26.08
-24.29
-22.57
-20.95
-19.44
-18.03
-16.68
-15.34
-14.02
-12.71
-11.40
-10.05
-8.58
-6.96
-5.28
-3.71
-2.46
-1.64
-1.20
-0.95
-0.65
-0.15
0.55
1.30
1.87
2.14
2.09
1.87
1.67
1.64
1.81
2.13
2.45
2.61
2.50
2.08
1.39
0.54
-0.27
-0.81
-0.88
-0.40
0.55
1.75
2.89
3.76
4.28
4.54
4.67
4.72
4.64
4.30
3.62
2.61
1.49
0.55
0.02
0.00
0.43
1.10
1.80
2.37
2.69
2.74
2.51
2.02
1.33
0.55
-0.20
-0.78
-1.13
-1.23
-1.19
-1.13
-1.13
-1.27
-1.52
-1.83
-2.18
-2.52
-2.84
-3.14
-3.39
-3.59
-3.74
-3.84
-3.91
-3.96
-3.98
-3.94
-3.80
-3.53
-3.17
-2.69
-2.10
-1.37
-0.46
0.60
1.75
2.81
3.66
4.15
4.25
4.00
3.47
2.80
2.13
1.59
1.26
1.18
1.34
1.66
2.04
2.37
2.57
2.62
2.53
2.35
2.15
1.96
1.80
1.63
1.41
1.10
0.68
0.17
-0.38
-0.91
-1.40
-1.85
-2.24
-2.55
-2.74
-2.80
-2.79
-2.78
-2.90
-3.17
-3.52
-3.75
-3.63
-2.99
-1.84
-0.34
1.21
2.52
3.41
3.82
3.83
3.57
3.15
2.63
2.04
1.38
0.71
0.13
-0.24
-0.28
0.01
0.55
1.22
1.87
2.40
2.75
2.89
2.79
2.48
2.00
1.42
0.84
0.34
-0.05
-0.36
-0.62
-0.87
-1.09
-1.25
-1.34
-1.38
-1.47
-1.68
-2.05
-2.55
-3.09
-3.59
-4.00
-4.30
-4.47
-4.46
-4.20
-3.60
-2.61
-1.29
0.20
1.65
2.88
3.73
4.15
4.17
3.86
3.32
2.67
2.01
1.41
0.93
0.64
0.63
0.97
1.68
2.61
3.58
4.31
4.61
4.43
3.89
3.16
2.44
1.85
1.43
1.17
1.05
1.03
1.04
1.02
0.89
0.59
0.16
-0.37
-0.92
-1.44
-1.93
-2.41
-2.91
-3.50
-4.17
-4.90
-5.58
-6.03
-6.03
-5.46
-4.32
-2.76
-1.03
0.59
1.90
2.80
3.27
3.37
3.22
2.93
2.58
2.23
1.91
1.61
1.35
1.21
1.29
1.66
2.30
3.05
3.69
4.04
4.05
3.84
3.60
3.46
3.40
3.28
2.96
2.39
1.68
1.00
0.48
0.10
-0.24
-0.67
-1.19
-1.72
-2.09
-2.25
-2.21
-2.14
-2.23
-2.57
-3.18
-4.00
-4.89
-5.75
-6.45
-6.90
-6.99
-6.64
-5.85
-4.71
-3.36
-2.00
-0.79
0.21
0.98
1.57
2.03
2.35
2.52
2.52
2.37
2.18
2.07
2.17
2.51
3.03
3.60
4.07
4.35
4.45
4.44
4.37
4.29
4.16
3.91
3.47
2.87
2.20
1.60
1.20
1.06
1.13
1.31
1.44
1.42
1.19
0.77
0.24
-0.32
-0.81
-1.26
-1.71
-2.23
-2.83
-3.49
-4.13
-4.73
-5.32
-5.95
-6.65
-7.32
-7.76
-7.72
-7.01
-5.65
-3.81
-1.79
0.12
1.72
2.94
3.76
4.24
4.43
4.38
4.16
3.82
3.45
3.12
2.93
2.94
3.19
3.64
4.21
4.77
5.19
5.39
5.38
5.23
5.03
4.84
4.67
4.47
4.17
3.77
3.31
2.83
2.36
1.84
1.21
0.42
-0.50
-1.45
-2.25
-2.81
-3.10
-3.24
-3.40
-3.72
-4.31
-5.18
-6.27
-7.46
-8.60
-9.50
-10.02
-10.04
-9.52
-8.43
-6.81
-4.78
-2.50
-0.25
1.67
3.01
3.70
3.81
3.58
3.24
2.93
2.67
2.40
2.11
1.85
1.81
2.11
2.80
3.76
4.75
5.54
5.96
5.98
5.66
5.13
4.54
4.00
3.62
3.40
3.34
3.34
3.31
3.18
2.92
2.55
2.04
1.42
0.68
-0.12
-0.93
-1.68
-2.33
-2.88
-3.36
-3.82
-4.25
-4.66
-5.06
-5.52
-6.16
-7.05
-8.12
-9.14
-9.80
-9.79
-8.98
-7.45
-5.44
-3.24
-1.09
0.87
2.56
3.95
5.00
5.66
5.90
5.74
5.26
4.60
3.93
3.42
3.23
3.43
4.02
4.87
5.79
6.55
7.00
7.06
6.76
6.20
5.52
4.85
4.26
3.80
3.41
3.05
2.65
2.19
1.73
1.33
1.04
0.85
0.69
0.46
0.11
-0.32
-0.78
-1.21
-1.58
-1.93
-2.29
-2.70
-3.14
-3.61
-4.12
-4.71
-5.44
-6.34
-7.38
-8.43
-9.28
-9.66
-9.32
-8.17
-6.23
-3.76
-1.13
1.29
3.21
4.50
5.21
5.46
5.38
5.08
4.64
4.14
3.66
3.33
3.24
3.46
3.95
4.59
5.20
5.59
5.70
5.57
5.33
5.13
5.02
4.96
4.84
4.56
4.11
3.59
3.07
2.63
2.25
1.88
1.47
1.06
0.71
0.49
0.38
0.32
0.20
-0.05
-0.44
-0.91
-1.41
-1.88
-2.33
-2.81
-3.35
-4.00
-4.77
-5.70
-6.79
-7.99
-9.18
-10.14
-10.63
-10.43
-9.45
-7.76
-5.58
-3.23
-1.00
0.88
2.32
3.29
3.88
4.15
4.20
4.06
3.77
3.39
3.06
2.92
3.13
3.75
4.70
5.80
6.81
7.50
7.75
7.56
7.03
6.32
5.60
5.03
4.65
4.45
4.35
4.27
4.17
4.06
3.98
3.96
3.96
3.88
3.64
3.22
2.72
2.29
2.07
2.08
2.21
2.25
2.02
1.39
0.35
-1.01
-2.49
-3.88
-4.94
-5.43
-5.18
-4.18
-2.55
-0.60
1.30
2.83
3.82
4.26
4.26
3.96
3.48
2.85
2.10
1.26
0.42
-0.31
-0.83
-1.13
-1.28
-1.43
-1.70
-2.15
-2.73
-3.36
-3.93
-4.45
-5.01
-5.75
-6.75
-7.96
-9.15
-9.95
-9.93
-8.78
-6.47
-3.28
0.24
3.43
5.71
6.76
6.62
5.62
4.25
2.97
2.10
1.73
1.74
1.95
2.15
2.29
2.45
2.82
3.58
4.82
6.49
8.43
10.44
12.27
13.64
14.18
13.55
11.46
7.86
2.97
-2.71
-8.51
-13.70
-17.64
-19.77
-19.69
-17.19
-12.36
-5.69
1.92
9.32
15.36
19.25
20.82
20.49
19.16
17.80
17.01
16.77
16.42
14.97
11.56
5.98
-1.17
-8.61
-14.81
-18.52
-19.19
-17.04
-12.87
-7.72
-2.56
1.96
5.60
8.46
10.97
13.63
16.69
19.90
22.34
22.70
19.72
12.88
2.84
-8.58
-18.87
-25.62
-27.36
-24.13
-17.58
-10.68
-6.95
-9.57
-20.35
-38.98
-62.80
-87.29
-107.27
-118.28
-117.97
-106.80
-87.81
-65.67
-45.18
-30.02
-22.03
-21.06
-25.42
-32.81
-41.04
-48.22
-52.57
-51.77
-43.46
-26.24
-0.93
29.02
58.04
80.25
91.79
92.42
85.98
77.99
72.72
71.28
71.70
70.53
64.67
53.02
36.76
19.45
4.91
-4.19
-6.90
-3.51
4.97
17.02
30.91
45.22
60.27
76.81
94.86
112.94
128.38
138.05
138.94
129.04
102.25
58.18
4.09
-47.45
-85.22
-103.70
-103.23
-88.67
-67.89
-49.56
-39.56
-39.78
-47.95
-60.20
-71.94
-79.36
-80.87
-77.35
-70.92
-62.57
-52.41
-40.38
-26.75
-13.15
-1.52
6.45
10.03
9.90
8.52
8.51
11.18
15.90
20.58
22.90
21.28
15.46
6.66
-2.79
-10.64
-15.62
-17.75
-17.91
-17.04
-15.80
-14.39
-12.67
-10.26
-7.00
-3.04
1.13
4.90
7.81
9.62
10.33
10.21
9.74
9.43
9.66
10.46
11.56
12.55
13.02
12.81
12.02
10.94
9.91
9.14
8.63
8.28
7.90
7.38
6.68
5.82
4.92
4.08
3.39
2.89
2.56
2.36
2.23
2.08
1.80
1.31
0.53
-0.52
-1.77
-3.07
-4.26
-5.23
-5.90
-6.24
-6.17
-5.62
-4.56
-3.02
-1.15
0.86
2.84
4.63
6.13
7.22
7.77
7.69
7.01
5.91
4.73
3.79
3.32
3.32
3.65
4.12
4.59
5.00
5.38
5.74
6.03
6.12
5.91
5.34
4.43
3.29
2.07
0.88
-0.24
-1.24
-2.14
-2.94
-3.63
-4.19
-4.60
-4.84
-4.93
-4.92
-4.92
-5.06
-5.44
-6.12
-7.07
-8.25
-9.55
-10.82
-11.82
-12.28
-11.94
-10.62
-8.35
-5.36
-2.10
0.87
3.06
4.22
4.39
3.94
3.35
3.05
3.17
3.53
3.70
3.29
2.15
0.55
-0.98
-1.80
-1.50
-0.01
2.32
4.82
6.68
7.08
5.43
1.49
-4.52
-11.87
-19.42
-25.78
-29.79
-30.96
-29.78
-27.63
-26.28
-27.24
-31.19
-37.71
-45.62
-53.47
-59.97
-64.16
-65.16
-61.97
-53.60
-39.64
-20.56
2.07
25.89
48.26
66.84
79.99
87.10
88.16
83.60
74.45
62.48
49.85
38.62
30.26
25.65
25.53
29.87
37.56
46.59
54.86
60.56
62.65
61.07
56.69
51.56
47.21
43.92
41.24
39.00
37.44
36.91
37.41
38.66
41.40
46.24
53.05
60.95
68.42
72.82
70.82
59.39
31.98
-9.78
-55.59
-93.53
-118.15
-131.01
-136.32
-136.65
-131.71
-119.84
-99.53
-72.67
-44.79
-22.72
-9.24
-4.12
-4.52
-6.63
-7.61
-5.88
-2.07
1.65
3.33
2.70
0.88
-0.47
-0.38
1.23
3.98
6.90
8.91
9.49
9.11
8.59
8.67
9.44
10.23
10.49
9.92
8.56
6.72
4.79
3.01
1.43
-0.12
-2.18
-4.85
-7.92
-10.91
-13.41
-15.30
-16.71
-17.96
-19.60
-22.86
-28.35
-36.00
-45.06
-54.47
-63.44
-71.31
-77.51
-81.77
-85.02
-87.79
-90.47
-93.02
-95.17
-96.61
-96.52
-93.45
-82.25
-61.44
-33.60
-4.26
21.89
44.31
63.61
79.88
93.34
105.00
111.47
112.07
107.42
98.89
87.86
75.17
61.52
47.76
34.75
22.61
12.12
3.97
-1.23
-3.31
-2.87
-0.84
1.91
4.70
6.74
8.20
9.56
11.42
14.22
17.82
21.90
26.08
30.01
33.16
35.42
36.66
36.72
35.37
32.32
27.48
21.15
13.99
6.77
0.42
-4.32
-7.01
-7.56
-6.32
-3.93
-1.30
0.65
1.19
0.11
-2.29
-5.36
-8.36
-10.68
-11.97
-12.08
-10.89
-8.33
-4.53
0.06
4.70
8.66
11.54
13.52
15.06
16.54
17.87
18.59
18.22
16.80
15.08
14.11
14.60
16.37
18.35
19.12
17.74
14.27
9.63
4.99
1.12
-1.84
-4.24
-6.41
-8.45
-10.15
-11.32
-12.06
-12.83
-14.15
-16.41
-19.54
-23.06
-26.36
-28.85
-30.21
-30.36
-29.44
-27.67
-25.27
-22.45
-19.41
-16.26
-13.09
-9.93
-6.84
-3.88
-1.23
0.92
2.40
3.17
3.36
3.25
3.13
3.21
3.52
3.88
4.05
3.86
3.29
2.51
1.74
1.15
0.78
0.51
0.17
-0.32
-1.02
-1.88
-2.89
-4.03
-5.28
-6.56
-7.66
-8.32
-8.33
-7.64
-6.41
-4.91
-3.44
-2.19
-1.24
-0.57
-0.13
0.10
0.12
-0.02
-0.26
-0.53
-0.79
-0.99
-1.13
-1.17
-1.04
-0.64
0.06
0.98
1.94
2.73
3.20
3.30
3.10
2.72
2.24
1.75
1.25
0.80
0.44
0.25
0.22
0.31
0.38
0.30
0.05
-0.30
-0.62
-0.83
-0.94
-1.10
-1.44
-2.06
-2.91
-3.87
-4.79
-5.63
-6.37
-7.05
-7.61
-7.92
-7.78
-7.07
-5.75
-3.94
-1.82
0.40
2.54
4.44
5.95
6.93
7.25
6.81
5.67
3.97
1.93
-0.18
-2.18
-3.89
-5.23
-6.13
-6.49
-6.18
-5.07
-3.06
-0.27
2.98
6.17
8.70
10.14
10.34
9.54
8.23
6.97
6.16
5.97
6.34
7.06
7.94
8.76
9.41
9.78
9.85
9.61
9.11
8.42
7.53
6.40
4.98
3.28
1.37
-0.63
-2.55
-4.25
-5.63
-6.61
-7.16
-7.32
-7.20
-7.01
-6.93
-7.07
-7.41
-7.78
-8.01
-8.04
-7.95
-7.93
-8.17
-8.78
-9.70
-10.78
-11.80
-12.62
-13.13
-13.35
-13.32
-13.13
-12.85
-12.61
-12.49
-12.48
-12.53
-12.50
-12.24
-11.59
-10.43
-8.61
-6.06
-2.75
1.16
5.32
9.21
12.31
14.28
15.06
14.87
14.04
12.82
11.31
9.49
7.38
5.14
3.12
1.65
0.98
1.16
2.03
3.36
4.91
6.46
7.79
8.76
9.24
9.26
8.91
8.35
7.72
7.01
6.16
5.06
3.71
2.24
0.91
-0.06
-0.52
-0.51
-0.22
0.14
0.41
0.54
0.56
0.55
0.54
0.48
0.26
-0.22
-0.95
-1.85
-2.75
-3.46
-3.88
-4.02
-4.00
-3.95
-3.97
-4.08
-4.27
-4.50
-4.80
-5.19
-5.77
-6.57
-7.60
-8.75
-9.87
-10.76
-11.24
-11.19
-10.58
-9.49
-8.09
-6.60
-5.21
-4.05
-3.18
-2.60
-2.29
-2.24
-2.48
-3.03
-3.85
-4.82
-5.76
-6.50
-6.90
-7.01
-6.96
-6.93
-7.08
-7.40
-7.75
-7.86
-7.45
-6.27
-4.17
-1.11
2.86
7.56
12.65
17.62
21.86
24.79
26.02
25.46
23.33
20.04
16.04
11.71
7.28
2.93
-1.19
-4.88
-7.97
-10.31
-11.90
-12.78
-13.05
-12.77
-11.98
-10.70
-8.99
-7.03
-5.05
-3.29
-1.97
-1.19
-0.98
-1.35
-2.24
-3.47
-4.73
-5.61
-5.69
-4.72
-2.74
-0.04
2.92
5.66
7.84
9.31
10.06
10.20
9.85
9.18
8.36
7.60
7.08
6.90
7.06
7.43
7.81
7.95
7.73
7.10
6.17
5.08
3.97
2.89
1.80
0.64
-0.56
-1.68
-2.55
-3.11
-3.42
-3.66
-3.99
-4.46
-4.86
-4.94
-4.45
-3.32
-1.68
0.20
2.00
3.51
4.62
5.33
5.70
5.79
5.70
5.46
5.12
4.69
4.17
3.63
3.14
2.80
2.64
2.64
2.74
2.86
2.91
2.90
2.80
2.58
2.19
1.61
0.85
0.02
-0.78
-1.43
-1.93
-2.34
-2.75
-3.23
-3.77
-4.33
-4.83
-5.22
-5.49
-5.65
-5.75
-5.88
-6.16
-6.68
-7.48
-8.48
-9.44
-10.03
-9.98
-9.13
-7.57
-5.55
-3.41
-1.45
0.16
1.34
2.11
2.49
2.53
2.29
1.89
1.47
1.13
0.97
0.98
1.10
1.26
1.41
1.52
1.56
1.51
1.28
0.82
0.05
-1.03
-2.34
-3.70
-4.84
-5.48
-5.42
-4.59
-3.11
-1.17
0.97
3.12
5.15
6.94
8.38
9.33
9.68
9.40
8.57
7.34
5.92
4.50
3.20
2.12
1.29
0.73
0.41
0.27
0.26
0.30
0.37
0.43
0.42
0.31
0.04
-0.38
-0.86
-1.32
-1.63
-1.75
-1.68
-1.48
-1.22
-0.96
-0.71
-0.49
-0.34
-0.30
-0.42
-0.69
-1.10
-1.61
-2.20
-2.85
-3.53
-4.15
-4.58
-4.68
-4.36
-3.62
-2.57
-1.39
-0.27
0.65
1.31
1.67
1.73
1.45
0.83
-0.18
-1.56
-3.27
-5.22
-7.24
-9.12
-10.62
-11.49
-11.49
-10.48
-8.46
-5.57
-2.10
1.54
4.91
7.64
9.47
10.40
10.57
10.26
9.75
9.25
8.90
8.71
8.66
8.69
8.72
8.63
8.31
7.67
6.67
5.34
3.84
2.32
0.98
-0.05
-0.72
-1.09
-1.29
-1.48
-1.79
-2.25
-2.80
-3.34
-3.81
-4.22
-4.65
-5.22
-5.94
-6.66
-7.14
-7.07
-6.30
-4.85
-3.02
-1.21
0.15
0.82
0.78
0.21
-0.57
-1.21
-1.43
-1.08
-0.12
1.33
3.08
4.82
6.30
7.32
7.78
7.75
7.32
6.58
5.59
4.36
2.92
1.36
-0.11
-1.26
-1.91
-2.00
-1.61
-0.96
-0.27
0.33
0.79
1.16
1.53
1.99
2.56
3.20
3.84
4.35
4.60
4.48
3.99
3.25
2.50
2.01
2.00
2.54
3.51
4.65
5.66
6.31
6.49
6.21
5.54
4.54
3.24
1.65
-0.22
-2.26
-4.28
-6.05
-7.36
-8.06
-8.17
-7.74
-6.88
-5.66
-4.14
-2.39
-0.53
1.24
2.68
3.62
3.94
3.68
2.96
2.00
1.03
0.32
0.07
0.39
1.23
2.38
3.48
4.24
4.52
4.42
4.24
4.32
4.84
5.78
6.92
7.99
8.77
9.20
9.32
9.25
9.09
8.87
8.50
7.87
6.81
5.21
3.08
0.60
-1.90
-4.08
-5.66
-6.56
-6.92
-7.01
-7.11
-7.37
-7.76
-8.06
-8.00
-7.32
-5.95
-4.00
-1.80
0.23
1.69
2.36
2.23
1.48
0.39
-0.83
-2.05
-3.19
-4.16
-4.79
-4.90
-4.39
-3.34
-2.02
-0.78
0.10
0.51
0.55
0.40
0.25
0.20
0.23
0.24
0.13
-0.14
-0.55
-1.01
-1.39
-1.61
-1.65
-1.58
-1.50
-1.48
-1.46
-1.36
-1.13
-0.78
-0.47
-0.40
-0.72
-1.50
-2.66
-4.03
-5.43
-6.66
-7.50
-7.73
-7.18
-5.79
-3.67
-1.11
1.53
3.90
5.77
7.02
7.67
7.74
7.32
6.46
5.27
3.91
2.60
1.64
1.23
1.43
2.13
3.07
3.98
4.67
5.11
5.38
5.58
5.74
5.79
5.61
5.08
4.15
2.81
1.07
-0.90
-2.75
-3.93
-3.82
-2.04
1.42
6.01
10.78
14.61
16.70
16.82
15.29
12.89
10.28
8.06
6.56
5.72
5.28
4.92
4.32
3.13
1.04
-2.56
-7.91
-14.84
-22.91
-31.43
-39.65
-46.78
-52.13
-55.07
-55.44
-52.90
-47.27
-38.86
-28.68
-18.29
-9.63
-4.85
-3.36
-5.66
-11.25
-18.33
-24.85
-30.01
-34.51
-39.42
-44.53
-47.27
-43.98
-31.45
-9.48
18.19
45.20
65.34
75.05
74.20
66.08
53.90
40.88
29.80
22.56
20.13
22.43
28.28
35.81
43.00
48.07
50.32
49.68
45.85
38.16
25.63
7.29
-17.63
-48.23
-82.49
-116.48
-144.54
-160.57
-160.02
-141.87
-109.49
-69.47
-28.86
7.21
37.04
61.44
81.50
96.90
105.69
105.83
97.41
83.75
70.50
63.39
65.56
76.12
90.73
103.88
111.58
112.99
110.34
107.35
107.30
111.58
119.25
127.54
132.86
132.02
123.36
107.48
87.19
66.72
50.10
39.54
34.51
32.15
28.75
21.57
9.75
-5.91
-24.09
-44.01
-65.64
-89.00
-113.13
-135.65
-153.34
-163.52
-165.37
-160.30
-151.38
-141.91
-134.18
-128.81
-124.99
-121.35
-116.75
-110.82
-103.89
-96.68
-89.90
-83.97
-78.94
-74.64
-70.87
-67.52
-64.62
-62.23
-60.26
-58.35
-55.89
-52.23
-46.92
-39.89
-31.50
-22.44
-13.46
-5.22
1.87
7.61
11.98
15.03
16.93
17.89
18.22
18.28
18.38
18.75
19.49
20.58
21.93
23.42
24.94
26.38
27.63
28.63
29.36
29.85
30.05
29.74
28.39
25.31
19.91
12.06
2.33
-8.15
-18.03
-26.17
-31.91
-35.07
-35.73
-34.04
-30.17
-24.48
-17.63
-10.64
-4.51
0.20
3.63
6.57
10.00
14.50
19.94
25.53
30.30
33.62
35.47
36.37
36.96
37.65
38.37
38.74
38.28
36.71
34.05
30.52
26.48
22.29
18.36
15.22
13.38
13.25
14.90
18.08
22.24
26.75
31.10
34.90
37.89
39.83
40.49
39.73
37.69
34.76
31.57
28.63
26.16
23.95
21.45
18.08
13.54
7.94
1.77
-4.18
-9.07
-12.11
-12.71
-10.59
-5.93
0.62
8.01
14.92
20.07
22.47
21.59
17.43
10.48
1.63
-8.00
-17.19
-24.82
-30.14
-32.85
-33.27
-32.19
-30.62
-29.50
-29.36
-30.17
-31.40
-32.20
-31.76
-29.59
-25.68
-20.48
-14.66
-8.92
-3.70
0.79
4.53
7.60
9.96
11.53
12.17
11.78
10.46
8.43
6.01
3.44
0.90
-1.44
-3.35
-4.49
-4.50
-3.13
-0.43
3.24
7.37
11.47
15.18
18.31
20.68
22.10
22.33
21.22
18.92
15.91
12.83
10.30
8.71
8.08
8.24
8.89
9.75
10.58
11.12
11.10
10.31
8.75
6.65
4.39
2.33
0.66
-0.72
-2.02
-3.45
-5.00
-6.49
-7.66
-8.41
-8.84
-9.24
-9.94
-11.17
-13.03
-15.39
-18.02
-20.59
-22.67
-23.86
-23.78
-22.20
-19.06
-14.58
-9.21
-3.59
1.64
5.93
8.97
10.73
11.38
11.21
10.51
9.52
8.46
7.49
6.75
6.37
6.38
6.73
7.32
8.01
8.69
9.28
9.70
9.89
9.79
9.37
8.69
7.80
6.81
5.80
4.85
3.98
3.14
2.24
1.13
-0.28
-2.04
-4.02
-6.03
-7.80
-9.12
-9.99
-10.57
-11.20
-12.20
-13.74
-15.76
-17.88
-19.53
-20.12
-19.24
-16.77
-12.93
-8.21
-3.21
1.50
5.49
8.53
10.51
11.47
11.52
10.89
9.85
8.75
7.90
7.53
7.68
8.22
8.92
9.60
10.14
10.56
10.94
11.32
11.64
11.79
11.61
11.05
10.12
8.96
7.73
6.58
5.61
4.87
4.34
3.95
3.52
2.89
1.90
0.55
-1.00
-2.51
-3.75
-4.63
-5.32
-6.14
-7.47
-9.58
-12.50
-15.97
-19.57
-22.71
-24.82
-25.41
-24.20
-21.24
-16.90
-11.83
-6.79
-2.44
0.82
2.95
4.14
4.67
4.79
4.61
4.17
3.54
2.87
2.37
2.22
2.48
3.09
3.89
4.77
5.63
6.47
7.25
7.87
8.19
8.09
7.54
6.62
5.51
4.41
3.45
2.69
2.08
1.54
0.96
0.28
-0.53
-1.44
-2.34
-3.12
-3.74
-4.28
-4.94
-5.93
-7.37
-9.25
-11.36
-13.38
-14.98
-15.81
-15.63
-14.28
-11.77
-8.33
-4.35
-0.33
3.28
6.19
8.28
9.53
10.02
9.78
8.92
7.62
6.17
4.94
4.20
4.08
4.48
5.19
5.96
6.63
7.15
7.51
7.72
7.72
7.45
6.90
6.11
5.17
4.14
3.03
1.84
0.61
-0.59
-1.64
-2.44
-3.03
-3.51
-4.04
-4.74
-5.61
-6.58
-7.52
-8.35
-9.08
-9.76
-10.49
-11.43
-12.72
-14.46
-16.58
-18.73
-20.36
-20.80
-19.56
-16.49
-11.88
-6.37
-0.73
4.32
8.34
11.17
12.75
13.25
13.00
12.39
11.50
10.38
9.15
8.08
7.54
7.71
8.73
10.57
12.98
15.39
17.22
18.23
18.55
18.66
18.71
19.04
19.97
21.63
23.39
24.56
24.85
24.54
24.33
24.06
24.17
25.54
28.88
33.00
36.49
38.54
39.44
40.30
40.46
40.50
41.99
46.28
50.96
53.02
50.66
43.76
33.51
18.35
-0.60
-19.52
-33.99
-45.36
-57.03
-73.01
-97.20
-132.66
-184.24
-249.44
-317.44
-372.93
-407.28
-416.62
-401.66
-366.92
-291.97
-183.09
-67.96
19.51
87.01
142.94
189.73
225.11
247.21
256.54
252.12
238.14
222.56
212.87
207.16
199.57
184.02
156.79
117.48
66.55
10.09
-42.13
-81.10
-106.06
-120.19
-127.18
-128.90
-125.07
-115.00
-95.83
-64.67
-21.62
26.41
70.00
100.82
114.02
108.56
87.12
56.11
23.34
-4.84
-26.12
-40.31
-47.44
-44.49
-30.42
-7.67
19.24
45.84
67.99
81.65
84.44
76.67
63.72
48.05
32.49
19.38
9.65
2.60
-3.27
-9.21
-15.59
-21.69
-26.93
-30.29
-31.01
-28.98
-24.96
-20.33
-16.69
-15.39
-17.13
-22.10
-28.94
-35.31
-38.84
-38.21
-33.81
-27.53
-21.97
-19.26
-20.36
-24.07
-27.50
-27.20
-20.55
-6.94
11.58
30.57
44.44
48.22
39.72
20.37
-5.19
-30.78
-50.81
-61.96
-63.77
-58.04
-47.71
-35.64
-24.09
-14.75
-8.77
-6.80
-8.66
-13.25
-18.79
-23.41
-25.85
-25.86
-24.09
-21.60
-19.27
-17.35
-15.45
-12.91
-9.23
-4.39
1.22
6.92
12.02
15.95
18.34
19.07
18.32
16.72
15.21
14.72
15.83
18.49
21.96
25.16
27.07
27.14
25.39
22.42
19.11
16.31
14.57
14.02
14.38
15.22
16.13
16.97
17.77
18.57
19.28
19.56
18.97
17.19
14.20
10.35
6.26
2.71
0.45
0.11
1.95
5.69
10.43
14.82
17.58
18.04
16.51
14.24
12.96
14.09
18.20
24.72
32.23
38.91
43.26
44.39
42.13
36.90
29.60
21.46
13.93
8.47
6.19
7.41
11.54
17.13
22.41
25.93
27.00
25.74
22.81
18.98
14.79
10.58
6.52
2.79
-0.35
-2.60
-3.75
-3.74
-2.72
-1.21
0.01
-0.18
-2.92
-9.08
-18.82
-31.29
-44.60
-56.08
-62.79
-62.06
-52.10
-32.47
-4.54
28.33
61.02
87.42
101.82
100.54
83.13
52.71
15.25
-22.21
-53.51
-74.80
-85.06
-85.55
-78.71
-67.12
-52.92
-37.71
-22.98
-10.17
-0.60
4.91
6.32
4.40
0.46
-4.17
-8.48
-11.94
-14.45
-16.10
-17.06
-17.36
-16.92
-15.50
-12.83
-8.78
-3.56
2.20
7.56
11.52
13.45
13.35
11.96
10.61
10.78
13.64
19.64
28.30
38.29
47.69
54.46
56.73
53.15
43.13
27.07
6.62
-15.36
-35.21
-49.35
-55.36
-52.80
-43.25
-29.60
-14.92
-1.43
10.02
19.81
29.14
39.48
52.10
67.80
86.39
106.43
125.00
138.28
142.62
135.87
118.38
92.97
63.87
35.21
9.71
-11.75
-29.65
-44.84
-57.79
-68.16
-74.96
-76.94
-73.15
-63.49
-49.17
-32.84
-18.16
-8.85
-7.56
-15.00
-29.85
-49.43
-70.74
-91.25
-109.11
-122.75
-130.61
-131.27
-124.11
-109.99
-91.40
-71.78
-54.24
-40.42
-29.96
-21.01
-11.24
0.94
15.70
31.85
47.35
60.08
68.44
71.59
69.50
62.87
52.92
41.12
28.91
17.38
7.20
-1.37
-8.22
-13.17
-15.94
-16.32
-14.42
-10.87
-6.71
-3.03
-0.55
0.66
1.10
1.54
2.57
4.31
6.34
7.97
8.63
8.11
6.65
4.80
3.21
2.44
2.88
4.56
7.06
9.46
10.49
8.91
3.98
-4.15
-14.42
-25.11
-34.29
-40.27
-41.90
-38.68
-30.82
-19.25
-5.55
8.25
20.05
28.19
31.80
30.98
26.62
20.07
12.76
5.93
0.49
-3.10
-4.80
-4.88
-3.87
-2.29
-0.49
1.37
3.43
5.88
8.86
12.35
16.10
19.77
23.10
25.95
28.39
30.52
32.38
33.82
34.56
34.35
33.13
31.13
28.72
26.26
23.89
21.50
18.82
15.70
12.29
8.97
6.33
4.81
4.59
5.42
6.62
7.30
6.57
3.85
-0.94
-7.41
-14.84
-22.45
-29.59
-35.78
-40.74
-44.18
-45.87
-45.62
-43.51
-39.90
-35.39
-30.64
-26.18
-22.33
-19.21
-16.85
-15.27
-14.37
-13.93
-13.59
-12.94
-11.69
-9.81
-7.46
-4.91
-2.32
0.33
3.13
6.13
9.16
11.90
14.08
15.54
16.39
16.81
16.99
16.97
16.69
16.13
15.41
14.71
14.22
13.96
13.78
13.41
12.65
11.42
9.82
7.96
5.97
3.89
1.76
-0.34
-2.31
-4.07
-5.61
-6.99
-8.21
-9.19
-9.74
-9.65
-8.77
-7.14
-4.95
-2.51
-0.11
2.03
3.73
4.88
5.39
5.24
4.53
3.55
2.64
2.12
2.14
2.63
3.33
3.92
4.20
4.16
3.99
3.97
4.25
4.79
5.31
5.44
4.88
3.53
1.51
-0.95
-3.56
-6.07
-8.29
-10.02
-11.05
-11.22
-10.51
-9.09
-7.27
-5.37
-3.70
-2.45
-1.75
-1.74
-2.57
-4.32
-6.88
-9.91
-12.88
-15.22
-16.48
-16.47
-15.27
-13.14
-10.45
-7.57
-4.78
-2.32
-0.35
1.05
1.82
1.95
1.52
0.66
-0.42
-1.44
-2.12
-2.33
-2.16
-1.89
-1.87
-2.32
-3.17
-4.05
-4.43
-3.97
-2.66
-0.93
0.52
1.04
0.27
-1.75
-4.69
-8.13
-11.80
-15.56
-19.35
-22.98
-26.07
-28.04
-28.31
-26.50
-22.56
-16.80
-9.86
-2.62
3.93
8.87
11.54
11.82
10.30
8.22
7.20
8.75
13.77
22.27
33.44
45.95
58.32
69.29
77.97
83.92
87.11
87.85
86.53
83.40
78.24
70.27
58.50
42.18
21.59
-1.71
-24.90
-44.73
-58.40
-64.50
-63.40
-56.94
-47.65
-37.80
-28.67
-20.42
-12.51
-4.37
4.02
11.97
18.38
22.31
23.47
22.27
19.61
16.38
13.19
10.41
8.33
7.26
7.34
8.25
8.85
7.50
2.59
-6.67
-19.71
-34.80
-49.56
-61.87
-70.35
-74.59
-74.90
-72.01
-66.90
-60.66
-54.40
-49.00
-44.68
-40.92
-36.60
-30.51
-22.02
-11.42
0.19
11.32
20.76
27.87
32.70
35.67
37.39
38.37
39.05
39.81
40.90
42.30
43.69
44.46
43.99
41.93
38.44
34.08
29.64
25.80
23.01
21.47
21.16
21.88
23.26
24.72
25.50
24.86
22.38
18.16
12.76
6.94
1.24
-4.27
-9.96
-16.20
-22.94
-29.41
-34.16
-35.51
-32.08
-23.21
-9.17
8.80
28.44
46.62
59.67
64.08
57.65
40.38
14.81
-14.55
-42.51
-64.69
-78.51
-83.43
-80.49
-71.60
-58.85
-44.32
-29.85
-17.01
-6.92
-0.05
3.75
5.14
5.00
4.18
3.26
2.55
2.09
1.82
1.75
2.10
3.27
5.65
9.38
14.19
19.37
24.07
27.54
29.37
29.55
28.33
26.06
23.10
19.84
16.67
13.90
11.66
9.72
7.60
4.77
1.01
-3.42
-7.80
-11.24
-13.07
-13.10
-11.74
-9.78
-8.11
-7.48
-8.25
-10.34
-13.23
-16.05
-17.80
-17.67
-15.38
-11.32
-6.56
-2.50
-0.39
-0.93
-4.01
-8.79
-13.99
-18.46
-21.52
-23.20
-24.04
-24.78
-26.04
-28.07
-30.73
-33.65
-36.37
-38.48
-39.67
-39.67
-38.27
-35.40
-31.23
-26.25
-21.26
-17.10
-14.34
-13.02
-12.57
-12.00
-10.29
-6.83
-1.64
4.60
10.90
16.38
20.62
23.84
26.79
30.43
35.57
42.56
51.19
60.70
70.06
78.26
84.51
88.43
89.96
89.24
86.38
81.33
73.89
63.86
51.25
36.46
20.33
4.01
-11.33
-24.71
-35.48
-43.33
-48.27
-50.55
-50.65
-49.15
-46.66
-43.71
-40.61
-37.43
-34.10
-30.39
-26.03
-20.80
-14.68
-7.99
-1.45
3.98
7.36
8.18
6.61
3.45
-0.24
-3.56
-6.11
-8.03
-9.76
-11.77
-14.23
-17.06
-20.01
-22.81
-25.24
-27.11
-28.18
-28.17
-26.84
-24.08
-20.05
-15.14
-9.87
-4.68
0.15
4.56
8.59
12.34
15.82
19.00
21.84
24.51
27.42
31.21
36.50
43.49
51.68
59.70
65.61
67.50
64.20
55.70
43.28
29.01
15.12
3.36
-5.44
-11.26
-14.67
-16.36
-16.93
-16.73
-15.88
-14.48
-12.70
-10.77
-8.95
-7.40
-6.16
-5.09
-4.01
-2.83
-1.65
-0.83
-0.83
-2.00
-4.34
-7.35
-10.11
-11.56
-10.82
-7.42
-1.38
6.86
16.53
26.47
35.20
41.00
42.38
38.55
29.94
18.14
5.42
-6.11
-15.23
-21.83
-26.58
-30.16
-32.77
-33.96
-33.04
-29.67
-24.28
-18.06
-12.47
-8.67
-7.11
-7.51
-9.12
-11.27
-13.62
-16.25
-19.42
-23.18
-27.11
-30.40
-32.11
-31.64
-29.05
-25.07
-20.85
-17.49
-15.71
-15.60
-16.66
-17.84
-17.81
-15.23
-9.25
-0.01
11.15
21.84
29.42
31.95
29.00
21.74
12.38
3.10
-4.86
-11.46
-17.37
-23.27
-29.16
-34.41
-38.17
-39.99
-40.12
-39.31
-38.23
-37.00
-35.13
-31.86
-26.78
-20.14
-12.77
-5.71
0.29
4.99
8.56
11.37
13.73
15.77
17.46
18.64
19.10
18.61
17.11
14.80
12.23
10.17
9.36
10.13
12.21
14.82
16.96
17.90
17.40
15.83
13.98
12.72
12.71
14.22
17.04
20.43
23.19
23.75
20.52
12.46
-0.30
-16.02
-31.56
-43.27
-48.34
-46.00
-37.84
-27.11
-17.25
-10.49
-7.26
-6.50
-6.81
-7.40
-8.42
-10.44
-13.59
-16.98
-18.84
-17.32
-11.50
-1.95
9.43
20.23
28.55
33.65
36.07
37.04
37.72
38.61
39.44
39.56
38.54
36.59
34.56
33.51
34.08
36.01
38.13
38.75
36.45
30.58
21.52
10.44
-1.18
-12.01
-21.21
-28.49
-33.94
-37.87
-40.57
-42.15
-42.56
-41.74
-39.84
-37.34
-35.00
-33.42
-32.72
-32.38
-31.43
-29.01
-24.79
-19.08
-12.57
-5.92
0.58
6.97
13.37
19.72
25.66
30.76
34.71
37.46
39.20
40.12
40.33
39.86
38.73
37.18
35.56
34.34
33.86
34.30
35.57
37.34
39.16
40.43
40.52
38.81
34.80
28.24
19.33
8.81
-2.07
-11.77
-18.71
-21.68
-20.14
-14.37
-5.46
5.01
15.48
24.85
32.76
39.56
45.93
52.46
59.32
66.13
71.92
75.07
73.52
65.11
48.38
23.39
-7.74
-41.14
-72.19
-97.01
-113.69
-122.50
-125.29
-124.36
-121.41
-117.23
-111.82
-104.88
-96.18
-85.76
-74.01
-61.74
-50.10
-40.43
-33.88
-30.96
-31.31
-33.90
-37.32
-40.24
-41.68
-40.89
-37.32
-30.69
-21.17
-9.66
2.26
12.77
20.41
24.57
25.64
24.66
22.87
21.23
20.22
19.85
19.89
19.95
19.71
19.01
17.90
16.65
15.58
14.94
14.74
14.69
14.44
13.67
12.33
10.64
8.89
7.31
6.00
4.82
3.58
2.07
0.16
-2.12
-4.63
-7.03
-8.90
-9.80
-9.41
-7.64
-4.73
-1.12
2.64
6.04
8.74
10.56
11.46
11.49
10.76
9.49
7.93
6.42
5.31
4.83
5.09
6.06
7.54
9.29
11.07
12.65
13.92
14.79
15.26
15.37
15.17
14.73
14.09
13.30
12.38
11.34
10.16
8.80
7.19
5.35
3.34
1.29
-0.65
-2.40
-3.99
-5.50
-7.03
-8.64
-10.26
-11.84
-13.30
-14.65
-16.02
-17.50
-19.12
-20.73
-22.06
-22.74
-22.43
-20.94
-18.27
-14.59
-10.26
-5.68
-1.28
2.57
5.65
7.88
9.30
10.03
10.21
9.96
9.42
8.76
8.23
8.07
8.43
9.29
10.46
11.64
12.56
13.07
13.17
13.00
12.72
12.43
12.17
11.87
11.48
10.94
10.26
9.46
8.60
7.74
6.95
6.29
5.78
5.43
5.16
4.87
4.44
3.80
2.94
1.93
0.86
-0.20
-1.21
-2.20
-3.19
-4.16
-5.11
-6.07
-7.14
-8.45
-10.05
-11.83
-13.45
-14.37
-14.05
-12.16
-8.71
-4.17
0.77
5.35
9.00
11.45
12.75
13.13
12.86
12.18
11.25
10.16
9.06
8.16
7.69
7.84
8.62
9.90
11.34
12.58
13.34
13.52
13.21
12.59
11.85
11.12
10.41
9.70
8.98
8.27
7.59
6.98
6.42
5.84
5.18
4.40
3.52
2.61
1.76
1.05
0.49
0.05
-0.42
-1.04
-1.92
-3.09
-4.47
-5.94
-7.35
-8.63
-9.83
-11.06
-12.48
-14.11
-15.80
-17.23
-17.97
-17.63
-16.02
-13.19
-9.45
-5.23
-1.01
2.80
5.92
8.20
9.58
10.04
9.69
8.70
7.35
6.01
4.99
4.54
4.73
5.45
6.48
7.58
8.55
9.26
9.69
9.81
9.61
9.08
8.26
7.26
6.23
5.34
4.69
4.29
4.00
3.68
3.17
2.45
1.57
0.67
-0.14
-0.85
-1.52
-2.25
-3.09
-3.97
-4.76
-5.35
-5.74
-6.08
-6.60
-7.51
-8.85
-10.48
-12.19
-13.79
-15.15
-16.20
-16.82
-16.78
-15.84
-13.78
-10.63
-6.64
-2.30
1.85
5.36
7.94
9.48
10.00
9.64
8.57
7.04
5.35
3.80
2.70
2.27
2.57
3.51
4.82
6.22
7.43
8.29
8.74
8.83
8.60
8.13
7.47
6.70
5.84
4.90
3.83
2.65
1.43
0.31
-0.54
-1.07
-1.34
-1.56
-1.95
-2.62
-3.50
-4.46
-5.36
-6.20
-7.08
-8.12
-9.42
-10.96
-12.64
-14.35
-15.95
-17.28
-18.10
-18.14
-17.13
-14.91
-11.57
-7.46
-3.17
0.71
3.73
5.70
6.69
6.92
6.61
5.87
4.75
3.31
1.76
0.46
-0.22
-0.04
1.00
2.58
4.30
5.77
6.83
7.50
7.91
8.19
8.35
8.29
7.93
7.20
6.18
5.00
3.86
2.85
2.04
1.37
0.80
0.28
-0.17
-0.56
-0.92
-1.35
-1.92
-2.71
-3.68
-4.69
-5.61
-6.34
-6.95
-7.64
-8.66
-10.18
-12.11
-14.07
-15.53
-15.93
-14.93
-12.49
-8.88
-4.62
-0.25
3.68
6.78
8.85
9.88
10.00
9.48
8.58
7.52
6.42
5.38
4.51
3.95
3.86
4.32
5.26
6.45
7.59
8.44
8.85
8.83
8.51
8.01
7.44
6.82
6.15
5.38
4.50
3.55
2.53
1.50
0.51
-0.41
-1.20
-1.82
-2.28
-2.63
-2.95
-3.37
-3.92
-4.62
-5.41
-6.24
-7.07
-7.92
-8.83
-9.83
-10.93
-12.15
-13.47
-14.83
-16.07
-16.94
-17.08
-16.18
-14.05
-10.76
-6.64
-2.18
2.09
5.73
8.52
10.39
11.41
11.67
11.30
10.47
9.36
8.22
7.31
6.87
7.02
7.74
8.85
10.06
11.08
11.71
11.87
11.62
11.07
10.31
9.41
8.41
7.35
6.29
5.31
4.44
3.69
3.01
2.36
1.71
1.10
0.57
0.11
-0.30
-0.71
-1.16
-1.66
-2.17
-2.65
-3.13
-3.67
-4.34
-5.20
-6.24
-7.41
-8.67
-10.02
-11.47
-12.97
-14.32
-15.17
-15.11
-13.80
-11.22
-7.65
-3.70
-0.03
2.85
4.73
5.72
6.06
5.97
5.54
4.79
3.77
2.68
1.88
1.67
2.21
3.35
4.72
5.92
6.69
7.03
7.11
7.13
7.19
7.21
7.01
6.46
5.48
4.14
2.60
1.06
-0.31
-1.36
-2.04
-2.37
-2.47
-2.48
-2.60
-2.96
-3.63
-4.58
-5.72
-6.90
-7.98
-8.89
-9.64
-10.41
-11.38
-12.73
-14.45
-16.33
-17.99
-18.94
-18.78
-17.29
-14.50
-10.66
-6.23
-1.73
2.27
5.37
7.30
8.05
7.79
6.86
5.61
4.34
3.27
2.54
2.25
2.48
3.25
4.50
6.05
7.67
9.10
10.13
10.69
10.82
10.65
10.30
9.85
9.26
8.49
7.47
6.26
4.95
3.70
2.60
1.67
0.80
-0.12
-1.16
-2.35
-3.61
-4.87
-6.05
-7.11
-8.05
-8.88
-9.66
-10.44
-11.39
-12.68
-14.53
-16.99
-19.88
-22.69
-24.77
-25.49
-24.52
-21.98
-18.40
-14.45
-10.75
-7.62
-5.14
-3.21
-1.78
-0.89
-0.70
-1.32
-2.79
-4.84
-6.93
-8.24
-7.85
-4.93
1.03
10.04
21.47
34.04
45.93
55.22
60.30
60.32
55.38
46.51
35.35
23.75
13.23
4.86
-0.71
-3.23
-2.73
0.47
5.75
12.35
19.45
26.14
31.63
35.36
37.06
36.68
34.43
30.86
26.88
23.70
21.94
21.85
23.38
26.21
29.94
34.19
38.87
44.24
50.97
58.68
66.44
72.89
76.51
75.80
69.73
58.15
41.93
23.11
2.76
-18.17
-38.70
-57.82
-74.74
-89.28
-102.05
-114.43
-122.92
-125.37
-121.32
-112.17
-99.68
-85.08
-69.34
-53.38
-40.11
-27.41
-14.07
0.45
15.87
31.10
44.24
53.08
55.95
51.71
41.33
26.42
10.09
-3.65
-11.32
-11.48
-5.57
2.57
8.40
9.04
3.48
-6.57
-17.68
-26.58
-31.73
-33.73
-34.41
-35.37
-36.74
-37.85
-37.82
-36.56
-35.29
-35.89
-39.67
-46.20
-53.33
-58.15
-58.93
-55.93
-50.95
-46.19
-42.92
-41.04
-39.73
-38.32
-36.82
-35.68
-34.88
-33.42
-29.49
-21.52
-9.23
6.07
22.05
36.56
48.54
58.14
66.13
73.00
78.47
81.60
81.36
77.38
70.35
61.94
54.31
49.29
47.79
49.60
53.65
58.56
63.17
66.50
67.61
65.47
59.43
49.97
39.26
30.83
28.09
32.52
42.51
53.75
61.09
60.90
52.51
38.01
20.64
2.87
-14.59
-32.38
-51.25
-70.78
-89.20
-104.09
-113.76
-118.23
-119.23
-119.21
-120.10
-122.31
-124.69
-125.43
-123.14
-117.67
-110.19
-102.51
-96.21
-91.93
-89.23
-86.98
-84.10
-80.23
-76.08
-73.12
-72.88
-76.14
-82.32
-89.62
-95.57
-98.02
-95.84
-89.03
-78.42
-65.07
-49.86
-33.39
-16.05
1.85
20.08
38.40
56.52
73.93
89.89
103.53
114.18
121.60
126.01
127.97
128.09
126.96
125.13
123.21
121.74
121.02
120.84
120.45
118.85
115.25
109.43
101.72
92.80
83.29
73.52
63.58
53.49
43.43
33.77
25.04
17.69
12.00
7.96
5.35
3.82
2.98
2.47
1.94
1.08
-0.38
-2.55
-5.26
-8.06
-10.23
-11.05
-10.08
-7.36
-3.42
0.94
4.97
8.31
11.00
13.35
15.62
17.76
19.34
19.76
18.56
15.69
11.61
7.06
2.74
-1.00
-4.27
-7.39
-10.53
-13.57
-16.03
-17.35
-17.25
-15.85
-13.63
-11.18
-8.93
-7.08
-5.64
-4.66
-4.29
-4.80
-6.37
-8.91
-11.92
-14.56
-15.90
-15.21
-12.30
-7.58
-1.94
3.56
8.02
11.01
12.56
13.07
12.98
12.52
11.66
10.11
7.58
4.05
-0.20
-4.59
-8.47
-11.28
-12.77
-12.98
-12.20
-10.83
-9.23
-7.70
-6.40
-5.40
-4.70
-4.28
-4.10
-4.11
-4.21
-4.28
-4.17
-3.82
-3.28
-2.74
-2.41
-2.46
-2.89
-3.53
-4.18
-4.69
-5.03
-5.27
-5.56
-5.99
-6.62
-7.43
-8.35
-9.29
-10.20
-11.07
-11.93
-12.84
-13.82
-14.83
-15.70
-16.23
-16.15
-15.29
-13.60
-11.12
-8.03
-4.59
-1.13
2.01
4.54
6.24
7.05
7.07
6.54
5.74
4.97
4.39
4.09
4.04
4.19
4.44
4.71
4.97
5.16
5.27
5.28
5.19
4.97
4.60
4.02
3.22
2.19
0.97
-0.35
-1.67
-2.91
-4.00
-4.91
-5.64
-6.25
-6.85
-7.61
-8.69
-10.19
-12.04
-14.04
-15.94
-17.43
-18.30
-18.40
-17.63
-15.99
-13.49
-10.32
-6.74
-3.11
0.23
3.01
5.08
6.41
7.05
7.12
6.84
6.47
6.33
6.68
7.64
9.18
11.13
13.27
15.39
17.24
18.63
19.35
19.25
18.33
16.71
14.63
12.35
10.08
7.84
5.60
3.30
0.96
-1.38
-3.58
-5.59
-7.38
-8.96
-10.33
-11.46
-12.33
-13.02
-13.70
-14.62
-16.00
-17.84
-19.90
-21.75
-22.85
-22.77
-21.27
-18.38
-14.32
-9.48
-4.35
0.58
4.91
8.33
10.75
12.24
13.01
13.36
13.56
13.79
14.21
14.91
15.94
17.28
18.80
20.24
21.28
21.64
21.19
19.97
18.20
16.05
13.61
10.83
7.69
4.26
0.82
-2.22
-4.57
-6.13
-7.07
-7.69
-8.28
-8.96
-9.74
-10.53
-11.30
-12.08
-12.93
-13.92
-15.10
-16.49
-18.09
-19.87
-21.69
-23.23
-24.07
-23.76
-22.06
-19.04
-15.07
-10.70
-6.48
-2.76
0.26
2.54
4.06
4.76
4.64
3.86
2.82
2.02
1.96
2.97
5.07
8.11
11.81
15.88
20.01
23.88
27.17
29.61
31.08
31.73
31.81
31.59
31.09
30.03
27.99
24.74
20.48
15.88
11.77
8.73
6.79
5.45
3.98
1.93
-0.69
-3.50
-6.09
-8.33
-10.38
-12.40
-14.29
-15.54
-15.45
-13.57
-10.02
-5.48
-0.95
2.66
4.82
5.44
4.74
3.01
0.50
-2.63
-6.21
-9.97
-13.48
-16.17
-17.49
-17.08
-14.94
-11.54
-7.61
-3.92
-1.03
0.96
2.27
3.32
4.41
5.56
6.56
7.07
6.86
5.93
4.54
3.05
1.78
0.82
0.05
-0.81
-2.04
-3.71
-5.69
-7.73
-9.57
-11.07
-12.20
-12.91
-13.03
-12.27
-10.33
-7.11
-2.91
1.58
5.46
7.91
8.45
7.09
4.30
0.80
-2.61
-5.34
-7.08
-7.84
-7.88
-7.59
-7.24
-7.02
-6.91
-6.80
-6.56
-6.11
-5.45
-4.67
-3.87
-3.21
-2.78
-2.66
-2.83
-3.25
-3.81
-4.43
-5.03
-5.58
-6.06
-6.45
-6.79
-7.14
-7.63
-8.43
-9.64
-11.15
-12.66
-13.72
-13.89
-12.91
-10.84
-7.96
-4.73
-1.58
1.15
3.28
4.75
5.55
5.71
5.30
4.43
3.26
1.99
0.82
-0.13
-0.79
-1.20
-1.46
-1.67
-1.92
-2.23
-2.55
-2.82
-3.02
-3.24
-3.61
-4.34
-5.52
-7.07
-8.72
-10.11
-10.89
-10.96
-10.47
-9.82
-9.45
-9.70
-10.67
-12.22
-14.07
-15.89
-17.44
-18.59
-19.31
-19.64
-19.61
-19.31
-18.78
-18.06
-17.08
-15.60
-13.26
-9.69
-4.75
1.25
7.54
13.03
16.78
18.36
18.02
16.51
14.72
13.27
12.47
12.36
12.96
14.36
16.61
19.56
22.69
25.29
26.64
26.38
24.62
21.83
18.69
15.77
13.53
12.17
11.74
12.11
13.05
14.30
15.60
16.81
17.80
18.49
18.71
18.24
16.91
14.73
11.90
8.77
5.73
3.10
1.06
-0.34
-1.04
-0.92
0.17
2.25
5.08
8.10
10.63
12.12
12.32
11.48
10.21
9.22
9.03
9.71
10.91
12.13
12.93
13.00
12.30
11.13
9.90
8.94
8.31
7.51
6.10
3.70
-0.09
-5.08
-10.29
-14.23
-15.25
-12.14
-5.06
5.00
15.54
22.14
20.60
8.79
-11.86
-36.13
-56.48
-66.39
-61.67
-42.92
-16.51
9.05
25.74
27.92
13.14
-17.74
-61.26
-109.41
-151.69
-178.93
-184.15
-164.78
-123.80
-68.72
-4.87
53.08
92.66
115.66
124.45
122.11
112.40
99.29
86.47
76.71
70.72
69.19
71.88
76.06
78.89
78.18
72.82
63.03
50.29
36.33
24.02
15.72
11.25
9.37
8.40
6.85
3.84
-0.73
-6.72
-13.02
-18.45
-22.89
-26.44
-29.21
-31.29
-32.69
-33.34
-33.35
-32.48
-30.48
-27.56
-23.93
-19.89
-15.81
-12.12
-9.24
-7.43
-6.55
-6.18
-5.87
-5.31
-4.50
-3.89
-4.22
-6.24
-10.39
-16.51
-23.83
-31.16
-37.25
-41.20
-42.77
-42.40
-41.14
-40.23
-40.59
-42.44
-45.10
-47.23
-47.43
-44.93
-40.00
-33.84
-27.86
-22.85
-18.42
-13.27
-5.94
4.14
16.17
28.18
37.92
43.83
45.75
44.77
42.64
41.00
40.75
41.93
43.91
45.76
46.53
45.59
42.87
39.06
35.70
34.80
38.16
46.44
58.31
70.16
76.73
72.47
53.45
19.04
-27.38
-78.98
-127.30
-164.59
-185.82
-189.46
-177.23
-152.99
-121.63
-88.22
-57.24
-31.99
-13.89
-2.18
5.59
12.48
20.67
30.71
41.46
50.94
57.39
59.81
58.04
52.42
43.55
32.37
20.40
9.55
1.63
-2.37
-2.63
-0.37
2.82
5.59
7.27
7.89
7.94
8.02
8.59
9.82
11.52
13.26
14.57
15.07
14.64
13.38
11.55
9.48
7.50
5.86
4.73
4.11
3.80
3.48
2.79
1.51
-0.25
-2.15
-3.76
-4.84
-5.50
-6.10
-6.99
-8.23
-9.54
-10.46
-10.67
-10.29
-9.79
-9.78
-10.58
-11.94
-13.14
-13.26
-11.67
-8.34
-3.78
1.13
5.57
9.06
11.50
13.06
13.93
14.22
13.90
12.98
11.49
9.68
7.82
6.18
4.90
3.98
3.35
2.92
2.66
2.59
2.79
3.29
4.12
5.20
6.34
7.32
7.90
7.96
7.52
6.77
5.93
5.16
4.51
3.89
3.13
2.11
0.72
-1.01
-2.99
-5.02
-6.82
-8.08
-8.54
-8.08
-6.76
-4.79
-2.51
-0.23
1.78
3.38
4.56
5.41
6.02
6.41
6.52
6.21
5.45
4.38
3.30
2.58
2.48
3.00
3.97
5.11
6.24
7.23
7.97
8.30
7.98
6.89
5.12
3.04
1.13
-0.23
-0.90
-1.04
-0.94
-0.88
-0.99
-1.28
-1.72
-2.29
-3.01
-3.92
-4.99
-6.07
-6.93
-7.30
-6.98
-5.98
-4.49
-2.83
-1.27
0.09
1.35
2.68
4.21
5.85
7.32
8.24
8.36
7.68
6.48
5.18
4.18
3.68
3.62
3.80
4.01
4.12
4.18
4.25
4.42
4.63
4.75
4.67
4.34
3.85
3.31
2.81
2.27
1.57
0.59
-0.69
-2.12
-3.45
-4.45
-5.04
-5.27
-5.32
-5.33
-5.38
-5.43
-5.30
-4.80
-3.78
-2.17
-0.02
2.51
5.23
7.90
10.33
12.38
13.99
15.14
15.86
16.21
16.29
16.25
16.35
16.89
18.16
20.34
23.43
27.23
31.41
35.64
39.66
43.31
46.57
49.45
51.97
54.19
56.30
58.59
61.40
64.90
68.89
72.77
75.67
76.80
75.82
72.90
68.50
62.87
55.75
46.23
33.15
15.50
-7.32
-35.26
-67.49
-102.18
-136.27
-165.67
-186.15
-194.69
-190.63
-176.16
-155.62
-134.18
-116.44
-105.72
-103.75
-110.74
-125.26
-144.08
-162.43
-174.95
-177.00
-165.89
-141.40
-105.40
-61.20
-12.72
35.81
80.30
117.22
144.39
161.48
169.96
172.30
170.90
167.26
161.70
153.80
142.94
128.77
111.24
90.50
66.86
40.83
13.47
-13.29
-36.81
-54.08
-62.69
-61.96
-53.45
-40.66
-27.78
-17.99
-12.46
-10.26
-9.49
-8.69
-7.65
-7.16
-8.04
-10.18
-12.39
-13.08
-11.31
-7.52
-3.32
-0.71
-1.05
-4.37
-9.42
-14.28
-17.17
-17.16
-14.40
-10.03
-5.60
-2.44
-1.22
-1.80
-3.49
-5.43
-7.09
-8.37
-9.55
-10.98
-12.79
-14.82
-16.69
-17.94
-18.25
-17.50
-15.80
-13.40
-10.65
-7.87
-5.28
-3.02
-1.12
0.45
1.68
2.53
2.95
2.91
2.53
2.00
1.59
1.51
1.81
2.32
2.78
2.92
2.61
1.90
0.99
0.17
-0.38
-0.59
-0.55
-0.41
-0.39
-0.63
-1.21
-2.13
-3.35
-4.85
-6.64
-8.68
-10.91
-13.08
-14.85
-15.82
-15.72
-14.50
-12.36
-9.63
-6.68
-3.79
-1.07
1.38
3.49
5.17
6.33
6.94
7.04
6.75
6.20
5.50
4.74
3.96
3.19
2.45
1.75
1.12
0.63
0.39
0.47
0.92
1.62
2.37
2.94
3.11
2.84
2.19
1.33
0.43
-0.40
-1.16
-1.96
-3.01
-4.52
-6.61
-9.27
-12.25
-15.08
-17.16
-17.94
-17.12
-14.78
-11.34
-7.41
-3.58
-0.23
2.49
4.60
6.13
7.06
7.33
6.95
6.08
5.03
4.23
4.01
4.53
5.67
7.16
8.68
9.98
10.99
11.75
12.31
12.68
12.78
12.52
11.90
11.02
10.07
9.25
8.65
8.22
7.80
7.22
6.41
5.40
4.34
3.40
2.71
2.32
2.17
2.13
2.00
1.53
0.54
-1.11
-3.33
-5.87
-8.28
-10.05
-10.80
-10.33
-8.73
-6.32
-3.48
-0.62
2.00
4.20
5.94
7.23
8.10
8.59
8.72
8.56
8.20
7.82
7.62
7.76
8.29
9.12
9.98
10.61
10.77
10.41
9.60
8.53
7.38
6.29
5.33
4.51
3.82
3.29
2.97
2.94
3.23
3.80
4.49
5.11
5.49
5.54
5.28
4.76
4.03
3.10
1.95
0.62
-0.78
-2.10
-3.14
-3.75
-3.92
-3.78
-3.63
-3.85
-4.85
-6.91
-10.04
-13.88
-17.71
-20.64
-21.86
-20.95
-18.02
-13.65
-8.69
-3.92
0.11
3.24
5.54
7.17
8.22
8.69
8.55
7.90
6.97
6.12
5.66
5.77
6.39
7.32
8.32
9.23
10.04
10.76
11.41
11.88
12.02
11.66
10.77
9.43
7.83
6.22
4.81
3.78
3.24
3.22
3.64
4.31
4.98
5.41
5.51
5.31
4.98
4.66
4.39
4.05
3.42
2.35
0.81
-0.98
-2.72
-4.10
-4.92
-5.16
-5.02
-4.79
-4.85
-5.53
-6.97
-9.05
-11.34
-13.17
-13.89
-13.11
-10.92
-7.88
-4.79
-2.37
-0.94
-0.39
-0.27
-0.10
0.37
1.13
1.97
2.66
3.09
3.35
3.57
3.84
4.18
4.53
4.84
5.15
5.54
6.11
6.89
7.78
8.58
9.07
9.06
8.47
7.37
5.94
4.43
3.12
2.26
2.03
2.48
3.50
4.78
5.87
6.29
5.69
4.03
1.59
-1.10
-3.41
-4.84
-5.16
-4.45
-3.12
-1.69
-0.76
-0.75
-1.87
-3.97
-6.68
-9.43
-11.77
-13.46
-14.52
-15.18
-15.72
-16.35
-17.12
-17.95
-18.65
-19.00
-18.75
-17.63
-15.50
-12.38
-8.60
-4.78
-1.70
-0.04
-0.10
-1.70
-4.17
-6.62
-8.33
-8.99
-8.78
-8.32
-8.34
-9.41
-11.72
-15.10
-19.17
-23.67
-28.69
-34.62
-42.00
-51.23
-62.35
-75.14
-89.06
-103.24
-116.34
-126.48
-131.40
-129.28
-119.55
-103.45
-83.66
-63.09
-43.45
-24.58
-4.92
17.00
41.04
64.97
85.23
98.57
103.66
101.48
94.70
86.41
79.09
74.28
72.85
75.31
81.79
91.53
102.66
112.36
117.71
116.70
109.06
96.23
80.79
65.40
52.05
41.61
34.00
28.65
24.89
22.16
20.05
18.17
16.24
14.26
12.66
12.28
13.93
17.82
23.20
28.40
31.54
31.33
27.62
21.20
13.08
3.65
-7.48
-21.06
-37.22
-54.96
-72.29
-87.29
-99.00
-107.82
-114.78
-120.40
-123.66
-122.11
-113.03
-94.99
-68.97
-38.27
-7.31
20.03
41.66
57.53
68.90
77.35
83.86
88.64
91.46
92.13
90.84
88.18
84.87
81.40
77.89
74.10
69.58
63.99
57.34
50.12
43.23
37.78
34.72
34.46
36.76
40.79
45.41
49.59
52.64
54.28
54.50
53.38
50.89
46.95
41.46
34.40
25.89
16.16
5.51
-5.77
-17.41
-29.18
-40.79
-51.75
-61.36
-68.75
-73.12
-74.02
-71.65
-66.80
-60.68
-54.48
-49.05
-44.62
-40.99
-37.73
-34.53
-31.35
-28.39
-25.91
-24.03
-22.61
-21.29
-19.67
-17.55
-15.01
-12.41
-10.15
-8.46
-7.25
-6.15
-4.77
-2.96
-0.86
1.16
2.84
4.29
6.13
9.18
14.03
20.53
27.69
34.03
38.23
39.73
38.85
36.41
33.11
29.09
24.11
17.99
11.25
5.21
1.56
1.43
4.63
9.38
12.87
12.28
5.97
-5.97
-21.73
-38.47
-53.43
-64.74
-71.82
-75.11
-75.47
-73.64
-70.02
-64.86
-58.68
-52.44
-47.29
-44.05
-42.74
-42.47
-41.84
-39.59
-35.12
-28.66
-21.07
-13.32
-6.22
-0.32
4.07
6.79
7.86
7.45
5.91
3.66
1.04
-1.63
-4.03
-5.71
-6.18
-5.16
-2.98
-0.70
0.12
-1.79
-6.65
-13.14
-18.70
-20.60
-17.22
-8.90
2.06
12.44
19.39
21.57
19.40
14.49
8.68
3.20
-1.58
-5.80
-9.61
-12.77
-14.79
-15.33
-14.58
-13.26
-12.28
-12.10
-12.39
-12.13
-10.16
-5.95
0.07
6.58
12.06
15.49
16.81
16.71
16.16
15.83
15.85
16.01
16.14
16.42
17.31
19.28
22.37
26.05
29.46
31.84
32.93
32.93
32.22
31.05
29.42
27.27
24.79
22.59
21.34
21.27
21.79
21.63
19.44
14.61
7.59
-0.35
-7.84
-14.20
-19.71
-25.37
-32.24
-40.81
-50.54
-59.86
-66.58
-68.50
-64.36
-54.38
-40.65
-26.56
-15.73
-10.68
-11.84
-17.53
-24.72
-30.38
-32.52
-30.69
-25.74
-19.03
-11.81
-4.81
1.69
7.63
12.78
16.68
18.81
18.88
17.13
14.27
11.31
9.03
7.72
7.07
6.53
5.73
4.87
4.68
6.00
9.27
14.17
19.65
24.44
27.54
28.60
27.89
26.03
23.65
21.26
19.30
18.22
18.40
20.06
22.98
26.52
29.78
31.89
32.24
30.55
26.85
21.29
14.03
5.12
-5.44
-17.65
-31.21
-45.38
-58.77
-69.60
-76.22
-77.72
-74.38
-67.54
-59.04
-50.53
-42.85
-36.02
-29.60
-23.14
-16.48
-9.75
-3.16
3.21
9.48
15.93
22.82
30.35
38.51
47.07
55.60
63.51
70.24
75.42
78.94
80.98
81.84
81.86
81.30
80.33
79.15
78.00
77.03
75.98
73.86
68.93
59.24
43.49
21.88
-3.56
-29.48
-52.36
-69.77
-80.92
-86.53
-87.99
-86.49
-82.58
-76.33
-67.87
-57.79
-47.21
-37.28
-28.70
-21.29
-14.12
-6.02
3.79
15.24
27.41
38.97
48.84
56.77
63.48
70.25
78.29
88.05
99.01
109.84
118.96
125.03
127.34
125.78
120.62
112.12
100.34
85.18
66.63
45.17
21.84
-1.87
-24.46
-44.82
-62.47
-77.34
-89.48
-98.76
-104.85
-107.45
-106.63
-102.80
-96.58
-88.55
-79.21
-69.35
-60.52
-55.12
-55.88
-64.70
-81.49
-103.76
-127.18
-146.93
-159.17
-161.93
-155.25
-140.68
-120.72
-98.30
-76.38
-57.58
-43.65
-35.03
-30.80
-29.17
-28.32
-27.10
-25.24
-23.00
-20.59
-17.87
-14.33
-9.47
-3.04
4.92
14.28
24.89
36.76
49.79
63.52
76.75
87.46
93.23
92.19
84.12
70.96
56.52
45.03
39.40
39.95
44.41
49.11
50.87
48.28
42.04
34.12
26.49
20.15
15.07
10.66
6.44
2.31
-1.40
-4.36
-6.45
-7.92
-9.32
-11.24
-14.11
-17.87
-21.92
-25.19
-26.45
-24.82
-20.07
-12.76
-3.91
5.38
14.28
22.32
29.21
34.59
37.93
38.62
36.38
31.58
25.38
19.47
15.58
14.92
17.80
23.60
31.01
38.41
44.32
47.80
48.61
47.23
44.66
42.09
40.57
40.65
42.23
44.65
46.87
47.87
47.03
44.19
39.62
33.76
27.18
20.51
14.58
10.39
8.90
10.56
15.02
21.03
26.86
30.83
31.81
29.31
23.33
14.00
1.57
-13.55
-30.46
-47.70
-63.47
-76.09
-84.38
-87.89
-86.81
-81.80
-73.88
-64.27
-54.41
-45.69
-39.24
-35.66
-35.00
-36.88
-40.64
-45.56
-50.76
-55.30
-58.32
-59.24
-58.07
-55.44
-52.35
-49.77
-48.17
-47.41
-46.85
-45.68
-43.16
-38.74
-32.00
-22.70
-10.90
2.92
17.76
32.27
45.06
55.06
61.64
64.56
63.90
59.95
53.16
44.20
33.93
23.33
13.30
4.59
-2.38
-7.44
-10.65
-12.17
-12.25
-11.15
-9.14
-6.45
-3.30
0.11
3.60
7.02
10.28
13.37
16.25
18.79
20.68
21.57
21.21
19.64
17.15
14.24
11.34
8.65
6.19
3.81
1.45
-0.88
-3.04
-4.91
-6.49
-7.90
-9.33
-10.85
-12.41
-13.81
-14.78
-15.12
-14.71
-13.56
-11.81
-9.69
-7.46
-5.39
-3.68
-2.42
-1.61
-1.18
-1.01
-1.04
-1.23
-1.54
-1.86
-2.04
-1.91
-1.37
-0.49
0.55
1.50
2.15
2.40
2.28
1.90
1.36
0.72
0.00
-0.78
-1.56
-2.24
-2.74
-3.03
-3.25
-3.56
-4.18
-5.20
-6.61
-8.24
-9.88
-11.29
-12.22
-12.52
-12.08
-10.87
-8.95
-6.49
-3.70
-0.82
1.93
4.32
6.13
7.18
7.37
6.76
5.55
4.12
2.87
2.06
1.77
1.90
2.27
2.75
3.32
4.03
4.90
5.86
6.72
7.26
7.36
7.04
6.46
5.81
5.20
4.65
4.05
3.35
2.55
1.67
0.76
-0.19
-1.19
-2.18
-2.94
-3.10
-2.22
0.03
3.68
8.46
13.86
19.31
24.39
28.89
32.77
35.93
38.00
38.29
36.00
30.58
22.14
11.63
0.59
-9.26
-16.63
-21.00
-22.63
-22.28
-20.79
-18.76
-16.38
-13.56
-10.07
-5.70
-0.38
5.69
11.96
17.42
20.75
20.71
16.65
8.89
-1.13
-11.31
-19.51
-24.33
-25.47
-23.67
-20.21
-16.28
-12.61
-9.42
-6.76
-4.73
-3.67
-3.89
-5.43
-7.95
-10.92
-14.00
-17.26
-21.14
-25.98
-31.49
-36.58
-39.62
-39.23
-34.92
-27.34
-17.84
-7.77
2.10
11.75
21.44
31.23
40.57
48.39
53.59
55.54
54.39
51.03
46.73
42.59
39.25
36.74
34.68
32.53
29.86
26.48
22.42
17.90
13.34
9.45
7.18
7.46
10.83
17.00
24.67
31.94
36.86
38.21
35.82
30.46
23.31
15.43
7.39
-0.69
-8.86
-17.14
-25.40
-33.37
-40.73
-47.14
-52.20
-55.53
-56.88
-56.23
-53.85
-50.22
-45.88
-41.25
-36.59
-32.04
-27.75
-23.85
-20.46
-17.56
-14.97
-12.44
-9.80
-7.10
-4.56
-2.51
-1.13
-0.38
0.01
0.40
1.12
2.29
3.82
5.43
6.80
7.68
7.99
7.86
7.52
7.20
7.00
6.90
6.71
6.20
5.24
3.78
1.86
-0.43
-2.93
-5.39
-7.47
-8.73
-8.79
-7.47
-4.86
-1.32
2.61
6.41
9.70
12.25
13.96
14.81
14.86
14.23
13.13
11.81
10.53
9.49
8.79
8.44
8.38
8.53
8.79
9.09
9.34
9.50
9.57
9.55
9.47
9.29
8.95
8.33
7.38
6.17
4.88
3.80
3.13
2.91
3.02
3.17
3.06
2.54
1.60
0.39
-0.90
-2.09
-3.09
-3.88
-4.53
-5.14
-5.88
-6.94
-8.46
-10.46
-12.79
-15.05
-16.72
-17.28
-16.34
-13.84
-10.03
-5.46
-0.79
3.36
6.56
8.62
9.56
9.55
8.79
7.50
5.88
4.18
2.67
1.60
1.18
1.49
2.43
3.77
5.22
6.55
7.62
8.41
9.03
9.54
9.98
10.34
10.52
10.47
10.14
9.55
8.74
7.79
6.75
5.63
4.46
3.27
2.09
0.99
-0.01
-0.91
-1.76
-2.58
-3.38
-4.16
-4.88
-5.56
-6.25
-6.99
-7.78
-8.64
-9.56
-10.61
-11.89
-13.48
-15.34
-17.15
-18.43
-18.59
-17.23
-14.29
-10.11
-5.33
-0.66
3.29
6.20
8.00
8.85
8.96
8.53
7.70
6.59
5.35
4.17
3.26
2.78
2.78
3.26
4.15
5.37
6.82
8.37
9.86
11.08
11.82
11.94
11.42
10.42
9.27
8.36
8.08
8.67
10.10
12.10
14.18
15.83
16.68
16.60
15.76
14.51
13.20
12.10
11.24
10.46
9.40
7.65
4.80
0.57
-5.05
-11.79
-19.12
-26.38
-32.92
-38.24
-42.00
-43.94
-43.87
-41.66
-37.36
-31.26
-23.93
-16.14
-8.68
-2.20
2.86
6.33
8.22
8.68
7.97
6.50
4.73
3.13
2.08
1.81
2.37
3.63
5.35
7.24
8.98
10.31
11.09
11.32
11.16
10.82
10.55
10.47
10.57
10.74
10.82
10.71
10.43
10.07
9.70
9.36
8.99
8.53
7.94
7.26
6.58
5.99
5.51
5.16
4.87
4.56
4.11
3.35
2.03
-0.04
-2.97
-6.62
-10.64
-14.43
-17.41
-19.10
-19.33
-18.24
-16.21
-13.73
-11.19
-8.84
-6.75
-4.93
-3.32
-1.94
-0.77
0.26
1.30
2.55
4.12
6.01
8.01
9.82
11.14
11.81
11.84
11.38
10.61
9.71
8.75
7.75
6.71
5.63
4.50
3.29
1.94
0.42
-1.27
-3.05
-4.81
-6.46
-7.96
-9.35
-10.71
-12.11
-13.60
-15.17
-16.81
-18.50
-20.24
-22.05
-23.89
-25.66
-27.20
-28.30
-28.81
-28.61
-27.65
-25.92
-23.49
-20.59
-17.73
-15.68
-15.33
-17.30
-21.63
-27.47
-33.22
-36.92
-37.01
-32.78
-24.64
-13.83
-1.96
9.50
19.44
27.04
31.82
33.61
32.70
29.93
26.43
23.29
21.15
20.08
19.67
19.45
19.20
18.97
18.95
19.16
19.46
19.61
19.56
19.43
19.41
19.54
19.53
18.91
17.26
14.58
11.33
8.31
6.33
5.91
7.10
9.54
12.63
15.75
18.43
20.33
21.29
21.26
20.34
18.79
16.93
15.08
13.48
12.24
11.40
11.04
11.26
12.15
13.65
15.51
17.32
18.68
19.33
19.16
18.24
16.63
14.34
11.34
7.71
3.66
-0.44
-4.18
-7.26
-9.58
-11.30
-12.64
-13.80
-14.84
-15.71
-16.36
-16.82
-17.26
-17.89
-18.90
-20.29
-21.81
-23.01
-23.40
-22.58
-20.43
-17.14
-13.17
-9.10
-5.42
-2.38
0.03
2.02
3.83
5.60
7.24
8.57
9.41
9.73
9.61
9.21
8.68
8.08
7.36
6.48
5.45
4.31
3.20
2.25
1.60
1.33
1.48
1.97
2.59
3.05
3.05
2.42
1.21
-0.38
-2.07
-3.64
-5.03
-6.19
-7.15
-7.89
-8.54
-9.35
-10.74
-13.01
-16.12
-19.54
-22.36
-23.69
-23.05
-20.57
-16.81
-12.48
-8.08
-3.79
0.37
4.34
7.90
10.67
12.32
12.73
12.07
10.69
9.02
7.48
6.31
5.69
5.65
6.16
7.08
8.22
9.33
10.15
10.48
10.25
9.51
8.47
7.36
6.40
5.68
5.13
4.63
4.07
3.34
2.44
1.38
0.15
-1.23
-2.76
-4.39
-6.08
-7.81
-9.61
-11.56
-13.69
-15.89
-17.83
-19.05
-19.08
-17.68
-14.94
-11.32
-7.49
-4.10
-1.61
-0.21
0.20
-0.14
-0.88
-1.69
-2.26
-2.32
-1.72
-0.39
1.56
3.89
6.29
8.42
10.07
11.16
11.75
12.02
12.13
12.19
12.23
12.21
12.05
11.66
11.01
10.10
9.00
7.84
6.77
5.96
5.47
5.27
5.16
4.92
4.39
3.51
2.45
1.39
0.54
-0.11
-0.68
-1.42
-2.47
-3.82
-5.28
-6.61
-7.66
-8.39
-8.84
-8.95
-8.51
-7.15
-4.54
-0.55
4.58
10.32
15.93
20.72
24.23
26.27
26.95
26.61
25.76
25.10
25.48
27.80
32.60
39.50
46.85
51.73
50.87
41.85
24.32
0.27
-26.62
-52.38
-74.16
-90.78
-102.49
-110.17
-114.63
-116.37
-115.81
-113.53
-110.17
-106.07
-100.76
-93.11
-81.75
-65.87
-45.83
-23.14
-0.10
20.97
38.29
51.06
59.36
64.01
66.12
66.78
66.72
66.16
64.84
62.22
57.81
51.45
43.47
34.65
25.93
18.12
11.73
6.89
3.44
1.01
-0.90
-2.88
-5.38
-8.61
-12.29
-15.78
-18.28
-19.29
-18.81
-17.44
-16.00
-15.10
-14.88
-15.02
-14.95
-14.22
-12.61
-10.16
-6.97
-3.12
1.29
6.02
10.66
14.61
17.25
18.17
17.28
14.93
11.77
8.59
6.16
5.01
5.27
6.70
8.79
10.91
12.53
13.33
13.20
12.24
10.66
8.76
6.80
4.94
3.17
1.32
-0.84
-3.41
-6.23
-8.83
-10.60
-11.06
-10.04
-7.79
-4.87
-1.85
0.79
2.82
4.17
4.81
4.70
3.85
2.35
0.44
-1.51
-3.15
-4.23
-4.73
-4.81
-4.79
-4.95
-5.43
-6.13
-6.82
-7.24
-7.28
-7.07
-6.95
-7.30
-8.43
-10.37
-12.83
-15.15
-16.46
-15.91
-13.05
-8.08
-1.89
4.21
8.97
11.68
12.39
11.68
10.28
8.68
7.01
5.16
3.06
0.82
-1.33
-3.25
-5.00
-6.78
-8.74
-10.76
-12.43
-13.18
-12.55
-10.42
-7.03
-2.93
1.26
5.00
7.93
9.86
10.77
10.75
10.00
8.79
7.45
6.29
5.57
5.43
5.87
6.76
7.89
9.00
9.86
10.34
10.40
10.12
9.57
8.83
7.89
6.71
5.29
3.72
2.14
0.72
-0.45
-1.37
-2.09
-2.70
-3.21
-3.63
-3.98
-4.31
-4.78
-5.49
-6.52
-7.78
-9.08
-10.22
-11.01
-11.42
-11.55
-11.58
-11.70
-12.12
-13.00
-14.41
-16.31
-18.47
-20.40
-21.53
-21.27
-19.27
-15.60
-10.74
-5.40
-0.33
3.95
7.20
9.43
10.73
11.20
10.91
9.90
8.34
6.50
4.75
3.47
2.88
3.05
3.86
5.07
6.42
7.72
8.87
9.86
10.71
11.46
12.06
12.48
12.64
12.47
11.91
10.91
9.46
7.62
5.61
3.74
2.36
1.71
1.79
2.35
3.01
3.40
3.32
2.76
1.89
0.88
-0.11
-1.02
-1.80
-2.41
-2.74
-2.69
-2.27
-1.57
-0.75
0.07
0.95
2.17
4.15
7.27
11.66
17.09
23.02
28.83
34.03
38.39
41.94
44.76
46.85
48.11
48.35
47.48
45.51
42.57
38.77
34.07
28.39
21.63
13.93
5.67
-2.56
-10.11
-16.49
-21.47
-25.06
-27.47
-29.02
-30.00
-30.69
-31.30
-31.91
-32.50
-33.02
-33.43
-33.79
-34.19
-34.75
-35.52
-36.43
-37.36
-38.10
-38.49
-38.38
-37.70
-36.45
-34.69
-32.55
-30.23
-27.97
-25.96
-24.33
-23.09
-22.20
-21.59
-21.18
-20.89
-20.65
-20.40
-20.15
-19.98
-20.03
-20.41
-21.05
-21.64
-21.70
-20.71
-18.37
-14.76
-10.33
-5.70
-1.48
2.03
4.76
6.82
8.37
9.43
10.02
10.14
9.93
9.61
9.40
9.42
9.66
9.99
10.30
10.55
10.83
11.27
11.97
12.90
13.93
14.88
15.58
15.94
15.95
15.66
15.18
14.55
13.87
13.17
12.54
12.08
11.86
11.95
12.32
12.87
13.41
13.78
13.90
13.83
13.71
13.70
13.89
14.23
14.61
14.90
15.02
14.96
14.70
14.13
12.99
10.92
7.64
3.07
-2.56
-8.74
-14.90
-20.53
-25.37
-29.32
-32.35
-34.39
-35.32
-35.05
-33.68
-31.55
-29.16
-27.02
-25.37
-24.18
-23.16
-21.94
-20.30
-18.23
-15.90
-13.56
-11.42
-9.50
-7.71
-5.91
-3.97
-1.85
0.36
2.54
4.52
6.19
7.48
8.40
8.94
9.10
8.87
8.28
7.42
6.49
5.69
5.19
5.04
5.13
5.24
5.14
4.66
3.78
2.56
1.15
-0.28
-1.58
-2.63
-3.42
-4.06
-4.74
-5.74
-7.32
-9.56
-12.35
-15.24
-17.64
-18.86
-18.41
-16.12
-12.24
-7.35
-2.17
2.64
6.62
9.57
11.51
12.59
12.95
12.75
12.08
11.08
9.91
8.79
7.99
7.75
8.22
9.40
11.09
12.96
14.66
15.90
16.53
16.57
16.12
15.33
14.36
13.34
12.37
11.56
10.98
10.66
10.55
10.55
10.49
10.25
9.74
8.96
7.98
6.89
5.79
4.71
3.66
2.62
1.52
0.35
-0.86
-2.09
-3.31
-4.53
-5.84
-7.35
-9.17
-11.33
-13.64
-15.76
-17.22
-17.61
-16.71
-14.56
-11.40
-7.57
-3.39
0.91
5.19
9.22
12.68
15.20
16.46
16.38
15.16
13.25
11.22
9.55
8.52
8.23
8.61
9.53
10.86
12.44
14.12
15.67
16.88
17.52
17.50
16.81
15.66
14.36
13.31
12.81
12.95
13.51
14.09
14.24
13.73
12.61
11.19
9.80
8.59
7.51
6.33
4.89
3.20
1.46
-0.06
-1.27
-2.24
-3.26
-4.61
-6.48
-8.84
-11.50
-14.19
-16.58
-18.31
-19.06
-18.55
-16.69
-13.60
-9.67
-5.42
-1.36
2.11
4.78
6.59
7.61
7.94
7.71
7.09
6.32
5.63
5.18
5.09
5.35
5.89
6.62
7.45
8.33
9.19
9.94
10.48
10.75
10.72
10.40
9.85
9.13
8.27
7.33
6.34
5.35
4.40
3.53
2.78
2.15
1.59
1.03
0.39
-0.38
-1.30
-2.32
-3.36
-4.32
-5.10
-5.69
-6.13
-6.54
-7.11
-8.01
-9.36
-11.15
-13.18
-15.06
-16.31
-16.51
-15.42
-13.08
-9.80
-6.05
-2.30
1.09
3.88
6.01
7.47
8.32
8.66
8.60
8.28
7.83
7.35
6.91
6.61
6.51
6.68
7.11
7.68
8.21
8.56
8.65
8.52
8.28
8.05
7.83
7.55
7.07
6.26
5.10
3.69
2.25
1.00
0.08
-0.52
-0.96
-1.48
-2.30
-3.45
-4.82
-6.20
-7.36
-8.23
-8.88
-9.46
-10.16
-11.07
-12.24
-13.66
-15.34
-17.19
-19.05
-20.58
-21.32
-20.86
-18.98
-15.75
-11.57
-6.99
-2.60
1.21
4.26
6.55
8.10
8.94
9.09
8.60
7.67
6.58
5.70
5.31
5.52
6.30
7.43
8.68
9.81
10.69
11.22
11.39
11.24
10.82
10.23
9.56
8.84
8.08
7.26
6.36
5.43
4.53
3.76
3.16
2.70
2.24
1.66
0.86
-0.19
-1.44
-2.75
-4.02
-5.18
-6.21
-7.18
-8.12
-9.06
-9.98
-10.89
-11.84
-12.97
-14.37
-16.04
-17.68
-18.82
-18.88
-17.47
-14.56
-10.53
-5.99
-1.60
2.15
5.06
7.09
8.33
8.87
8.81
8.28
7.45
6.57
5.87
5.55
5.68
6.24
7.10
8.09
9.09
9.98
10.72
11.27
11.56
11.54
11.17
10.49
9.58
8.58
7.58
6.61
5.62
4.56
3.43
2.35
1.47
0.95
0.80
0.88
0.91
0.63
-0.11
-1.25
-2.54
-3.69
-4.48
-4.90
-5.14
-5.53
-6.40
-7.99
-10.36
-13.32
-16.46
-19.18
-20.84
-20.85
-18.92
-15.17
-10.15
-4.71
0.27
4.13
6.56
7.63
7.63
6.91
5.73
4.21
2.40
0.41
-1.57
-3.22
-4.16
-4.09
-2.84
-0.51
2.60
6.05
9.38
12.25
14.47
16.01
16.92
17.27
17.04
16.16
14.59
12.38
9.71
6.93
4.38
2.34
0.89
-0.10
-0.91
-1.84
-3.09
-4.65
-6.36
-7.98
-9.33
-10.43
-11.47
-12.76
-14.59
-17.12
-20.24
-23.59
-26.57
-28.55
-29.03
-27.80
-25.03
-21.19
-16.90
-12.74
-9.12
-6.23
-4.05
-2.46
-1.36
-0.66
-0.42
-0.81
-2.11
-4.64
-8.43
-12.94
-16.86
-18.38
-15.82
-8.46
2.92
16.09
28.21
36.84
40.86
40.60
37.41
32.82
27.94
23.24
18.91
15.11
12.27
10.95
11.50
13.90
17.76
22.68
28.58
35.83
45.03
56.53
69.91
83.79
96.13
104.88
108.69
107.33
101.64
93.17
83.59
74.27
66.12
59.65
55.09
52.49
51.71
52.44
54.10
55.95
57.03
56.30
52.76
45.59
34.34
19.07
0.52
-20.06
-41.06
-60.92
-78.36
-92.61
-103.39
-110.82
-115.24
-117.02
-116.46
-113.78
-109.17
-102.86
-95.21
-86.74
-78.06
-69.80
-62.47
-56.40
-51.71
-48.43
-46.55
-46.06
-46.84
-48.54
-50.46
-51.74
-51.62
-49.72
-46.20
-41.71
-37.06
-33.00
-29.93
-27.88
-26.61
-25.73
-24.87
-23.73
-22.10
-19.94
-17.31
-14.48
-11.75
-9.44
-7.73
-6.60
-5.90
-5.37
-4.80
-4.08
-3.25
-2.40
-1.69
-1.22
-0.97
-0.86
-0.68
-0.28
0.42
1.36
2.40
3.35
4.04
4.36
4.18
3.42
2.01
0.05
-2.21
-4.34
-5.88
-6.47
-6.05
-4.83
-3.26
-1.80
-0.75
-0.16
0.16
0.48
1.06
2.01
3.26
4.60
5.75
6.52
6.85
6.91
7.14
8.06
10.16
13.74
18.83
25.20
32.48
40.19
47.77
54.62
60.15
63.92
65.70
65.55
63.71
60.44
55.88
50.06
42.99
34.80
25.82
16.48
7.21
-1.62
-9.70
-16.74
-22.38
-26.31
-28.37
-28.69
-27.75
-26.27
-25.09
-24.87
-25.94
-28.07
-30.61
-32.64
-33.45
-32.70
-30.57
-27.55
-24.11
-20.53
-16.82
-12.91
-8.80
-4.64
-0.63
3.07
6.40
9.34
11.79
13.59
14.62
14.93
14.85
14.90
15.56
17.10
19.50
22.43
25.41
27.89
29.29
29.06
26.72
21.89
14.36
4.31
-7.61
-20.08
-31.25
-39.10
-41.96
-39.08
-30.79
-18.39
-3.65
11.67
26.21
39.05
49.50
56.91
60.65
60.25
55.82
48.16
38.75
29.36
21.52
16.07
13.00
11.64
11.00
10.22
8.76
6.41
3.11
-1.07
-5.99
-11.26
-16.23
-20.13
-22.35
-22.69
-21.57
-19.89
-18.75
-19.04
-21.07
-24.48
-28.34
-31.51
-33.10
-32.80
-30.96
-28.41
-26.08
-24.57
-23.95
-23.77
-23.35
-22.13
-19.86
-16.51
-12.10
-6.52
0.45
8.98
18.90
29.79
41.04
52.00
61.86
69.34
72.50
69.15
57.85
39.16
16.23
-5.93
-22.28
-29.95
-29.40
-24.04
-18.41
-15.94
-17.57
-21.84
-26.17
-28.41
-27.79
-24.86
-20.71
-16.14
-11.27
-5.77
0.65
7.81
14.91
20.83
24.54
25.66
24.53
22.06
19.25
16.75
14.62
12.41
9.52
5.55
0.58
-4.90
-10.16
-14.51
-17.43
-18.76
-18.76
-18.16
-18.02
-19.36
-22.71
-27.69
-33.02
-36.95
-38.00
-35.65
-30.59
-24.37
-18.77
-15.07
-13.68
-14.20
-15.81
-17.63
-19.04
-19.75
-19.73
-19.12
-18.11
-16.95
-15.92
-15.21
-14.86
-14.68
-14.24
-13.05
-10.77
-7.37
-3.20
1.13
5.00
7.95
9.82
10.67
10.70
10.19
9.60
9.52
10.67
13.54
18.17
23.92
29.64
34.06
36.41
36.68
35.56
34.04
32.80
31.88
30.74
28.66
25.19
20.40
14.85
9.29
4.32
0.19
-3.12
-5.73
-7.75
-9.20
-10.08
-10.55
-10.94
-11.75
-13.43
-16.24
-20.08
-24.47
-28.71
-32.15
-34.39
-35.35
-35.20
-34.09
-31.97
-28.55
-23.51
-16.74
-8.55
0.34
9.00
16.56
22.51
26.74
29.33
30.39
29.77
27.05
21.81
14.03
4.42
-5.64
-14.44
-20.55
-23.40
-23.45
-21.91
-20.11
-19.03
-18.96
-19.64
-20.54
-21.15
-21.09
-20.08
-17.97
-14.66
-10.33
-5.43
-0.66
3.29
5.98
7.43
8.13
8.85
10.34
12.96
16.57
20.51
23.92
26.04
26.58
25.79
24.32
22.95
22.24
22.37
23.17
24.23
25.12
25.59
25.59
25.23
24.72
24.26
23.98
23.97
24.21
24.62
25.08
25.40
25.34
24.55
22.64
19.27
14.33
8.12
1.27
-5.36
-11.03
-15.25
-17.92
-19.20
-19.36
-18.58
-16.99
-14.63
-11.61
-8.05
-4.05
0.35
5.17
10.34
15.57
20.35
24.06
26.21
26.62
25.47
23.24
20.50
17.78
15.51
13.99
13.35
13.46
13.91
13.92
12.60
9.11
3.13
-5.06
-14.55
-24.12
-32.70
-39.58
-44.54
-47.54
-48.53
-47.39
-44.03
-38.64
-31.86
-24.68
-18.17
-13.09
-9.72
-7.92
-7.33
-7.54
-8.23
-9.08
-9.77
-10.02
-9.65
-8.54
-6.66
-3.84
0.13
5.42
11.87
18.92
25.80
31.85
36.84
40.78
43.56
44.64
43.14
38.46
30.95
22.14
14.20
8.86
6.38
5.36
3.53
-0.87
-8.03
-16.43
-23.71
-27.95
-28.62
-26.60
-23.67
-21.57
-21.48
-23.83
-28.46
-34.80
-42.05
-49.11
-54.76
-57.93
-58.01
-55.12
-50.08
-44.15
-38.67
-34.78
-33.24
-34.41
-38.14
-43.79
-50.24
-56.07
-59.97
-61.12
-59.36
-55.13
-49.04
-41.62
-33.03
-23.26
-12.37
-0.62
11.44
23.15
34.02
43.80
52.51
60.32
67.43
73.98
80.03
85.68
91.01
96.05
100.71
104.76
107.88
109.71
109.99
108.65
105.82
101.84
97.23
92.65
88.82
86.37
85.63
86.35
87.51
87.39
83.97
75.62
61.73
43.01
21.30
-1.08
-22.05
-40.27
-55.29
-67.33
-76.90
-84.47
-90.28
-94.45
-97.08
-98.36
-98.63
-98.31
-97.77
-97.18
-96.50
-95.30
-92.83
-88.13
-80.33
-69.07
-54.87
-39.25
-24.47
-12.77
-5.58
-2.86
-3.21
-4.41
-4.39
-1.95
2.83
8.55
12.78
12.65
5.55
-9.91
-33.03
-60.84
-88.55
-110.83
-123.08
-122.43
-108.29
-82.24
-47.77
-9.73
26.42
55.56
74.15
81.07
77.84
67.87
55.14
42.96
33.41
27.33
24.77
25.36
28.39
32.73
36.84
39.12
38.40
34.31
27.40
18.92
10.38
2.99
-2.59
-6.35
-8.80
-10.69
-12.70
-15.23
-18.29
-21.55
-24.60
-27.20
-29.38
-31.49
-34.03
-37.39
-41.74
-46.97
-52.62
-57.94
-61.77
-62.61
-58.88
-49.29
-33.50
-12.50
11.33
34.77
54.58
68.47
75.73
77.24
74.91
70.88
66.85
63.70
61.63
60.47
59.92
59.72
59.39
58.23
55.36
49.90
41.58
30.99
19.54
9.03
0.97
-3.89
-5.69
-4.99
-2.34
2.04
8.19
16.11
25.35
34.90
43.40
49.68
53.27
54.62
54.97
55.75
57.98
61.87
66.78
71.51
74.84
75.88
74.29
70.09
63.45
54.60
43.94
32.31
20.95
11.18
3.86
-1.11
-4.78
-8.63
-13.85
-20.61
-28.01
-34.43
-38.40
-39.34
-37.87
-35.56
-34.15
-34.78
-37.56
-41.63
-45.80
-49.13
-51.43
-53.16
-54.94
-57.02
-59.07
-60.35
-60.14
-58.23
-55.06
-51.52
-48.51
-46.59
-45.80
-45.81
-46.10
-46.33
-46.37
-46.33
-46.36
-46.47
-46.41
-45.78
-44.19
-41.53
-38.09
-34.62
-32.04
-31.06
-31.78
-33.67
-35.75
-37.08
-37.13
-36.03
-34.29
-32.55
-31.21
-30.34
-29.72
-29.16
-28.66
-28.42
-28.71
-29.62
-30.89
-32.00
-32.26
-31.19
-28.58
-24.63
-19.80
-14.67
-9.77
-5.50
-2.08
0.44
2.17
3.38
4.52
6.00
8.09
10.77
13.76
16.74
19.55
22.24
25.07
28.29
31.98
36.00
40.14
44.20
48.04
51.55
54.48
56.40
56.86
55.62
52.84
49.10
45.21
41.86
39.38
37.74
36.65
35.83
35.17
34.73
34.58
34.78
35.26
35.88
36.53
37.13
37.66
38.12
38.52
38.85
39.03
38.93
38.29
36.89
34.62
31.62
28.35
25.44
23.50
22.80
23.25
24.37
25.57
26.36
26.47
25.84
24.47
22.30
19.17
14.88
9.28
2.47
-5.22
-13.20
-20.76
-27.19
-31.96
-34.93
-36.39
-36.99
-37.45
-38.18
-39.08
-39.62
-39.19
-37.53
-35.07
-32.82
-32.03
-33.65
-37.92
-44.26
-51.48
-58.14
-63.04
-65.50
-65.47
-63.50
-60.44
-57.11
-53.98
-51.08
-48.03
-44.35
-39.72
-34.17
-28.18
-22.48
-17.84
-14.83
-13.71
-14.43
-16.66
-19.93
-23.62
-27.06
-29.61
-30.77
-30.28
-28.11
-24.36
-19.13
-12.43
-4.39
4.61
13.65
21.37
26.26
27.38
24.90
20.18
15.27
12.08
11.57
13.63
17.55
22.77
29.43
38.26
49.82
63.76
78.48
91.56
100.51
103.56
100.03
90.36
75.82
58.40
40.51
24.74
13.29
7.41
6.99
10.67
16.28
21.62
25.00
25.52
22.84
16.85
7.41
-5.48
-21.34
-38.66
-54.82
-66.63
-71.52
-68.64
-59.42
-47.00
-34.92
-25.77
-20.51
-18.72
-19.48
-22.14
-26.53
-32.55
-39.64
-46.58
-51.89
-54.40
-53.72
-50.27
-44.99
-38.88
-32.72
-26.89
-21.51
-16.53
-11.92
-7.73
-4.06
-1.04
1.36
3.32
5.21
7.43
10.33
14.17
19.11
25.10
31.91
39.01
45.64
50.85
53.74
53.64
50.33
44.01
35.29
25.00
14.02
3.29
-6.27
-13.66
-17.98
-18.50
-14.91
-7.38
3.48
16.75
31.37
46.16
59.94
71.44
79.41
82.89
81.47
75.48
65.94
54.26
41.90
30.05
19.51
10.72
3.92
-0.85
-3.68
-4.84
-4.76
-4.04
-3.26
-2.90
-3.14
-3.88
-4.82
-5.60
-5.99
-6.00
-5.85
-5.88
-6.44
-7.76
-9.91
-12.75
-15.99
-19.24
-22.07
-24.03
-24.79
-24.15
-22.17
-19.14
-15.50
-11.75
-8.30
-5.40
-3.12
-1.36
0.05
1.37
2.84
4.67
6.99
9.82
12.94
15.92
18.16
19.05
18.30
16.03
12.88
9.78
7.61
6.84
7.44
8.95
10.78
12.42
13.59
14.08
13.70
12.21
9.41
5.45
0.84
-3.57
-6.86
-8.48
-8.37
-7.01
-5.14
-3.42
-2.20
-1.40
-0.71
0.14
1.23
2.31
2.96
2.81
1.77
-0.01
-2.15
-4.23
-5.98
-7.37
-8.55
-9.83
-11.51
-13.81
-16.75
-20.13
-23.55
-26.43
-28.20
-28.49
-27.27
-24.88
-22.00
-19.39
-17.63
-16.95
-17.14
-17.64
-17.80
-17.14
-15.52
-13.27
-10.99
-9.27
-8.33
-7.87
-7.15
-5.33
-1.95
2.81
8.06
12.57
15.32
15.84
14.49
12.22
10.29
9.81
11.56
15.81
22.35
30.59
39.65
48.53
56.36
62.41
66.22
67.55
66.41
62.96
57.64
51.08
44.11
37.56
32.10
28.08
25.40
23.66
22.30
20.80
18.76
15.82
11.54
5.32
-3.35
-14.59
-27.71
-41.11
-52.63
-60.24
-62.75
-60.21
-53.87
-45.75
-38.19
-33.31
-32.41
-35.56
-41.37
-47.20
-50.13
-48.03
-40.59
-29.46
-17.56
-7.82
-1.90
0.27
0.03
-1.02
-1.94
-2.67
-3.66
-5.14
-6.56
-6.91
-5.26
-1.39
3.80
8.77
12.18
13.59
13.36
12.08
9.76
5.77
-0.69
-9.78
-20.64
-31.73
-41.71
-49.96
-56.66
-62.20
-66.49
-68.90
-68.71
-65.86
-61.18
-56.03
-51.48
-47.62
-43.74
-39.02
-33.34
-27.51
-22.69
-19.66
-18.38
-17.77
-16.40
-13.18
-7.66
-0.13
8.71
18.07
27.28
35.74
42.97
48.63
52.61
55.20
56.89
58.11
58.93
58.88
57.17
53.05
46.20
37.01
26.47
15.87
6.36
-1.40
-7.34
-11.84
-15.40
-18.38
-20.85
-22.71
-23.99
-25.13
-27.08
-31.11
-38.28
-48.79
-61.70
-75.08
-86.58
-94.20
-96.82
-94.33
-87.34
-76.80
-63.68
-48.94
-33.58
-18.72
-5.41
5.76
14.93
22.99
31.18
40.45
51.12
62.72
74.37
85.18
94.58
102.33
108.32
112.28
113.84
112.69
108.93
103.13
96.24
89.23
82.84
77.45
73.11
69.69
66.91
64.42
61.76
58.63
55.06
51.51
48.75
47.55
48.24
50.38
52.60
52.94
49.37
40.70
27.22
11.03
-4.56
-16.12
-21.51
-20.68
-15.55
-9.02
-3.76
-1.23
-1.48
-3.48
-5.83
-7.27
-7.17
-5.83
-4.53
-5.26
-10.03
-19.83
-33.94
-49.77
-63.71
-72.40
-73.96
-68.61
-58.41
-46.34
-35.33
-27.43
-23.58
-23.64
-26.61
-30.94
-34.86
-36.58
-34.49
-27.29
-14.35
3.73
24.52
43.53
55.37
55.82
44.26
24.91
5.90
-4.08
0.01
17.01
40.14
60.40
70.90
69.50
58.49
41.99
23.21
3.41
-16.96
-36.51
-52.09
-59.89
-57.71
-46.76
-31.45
-17.42
-8.82
-6.75
-9.45
-13.96
-17.98
-20.68
-22.44
-24.08
-25.95
-27.69
-28.57
-28.13
-26.43
-23.92
-21.16
-18.49
-15.97
-13.60
-11.50
-9.99
-9.46
-10.08
-11.71
-13.90
-16.15
-18.07
-19.43
-20.16
-20.32
-20.10
-19.82
-19.93
-20.81
-22.56
-24.90
-27.15
-28.59
-28.84
-28.08
-27.10
-26.86
-27.97
-30.24
-32.70
-33.92
-32.66
-28.41
-21.57
-13.24
-4.67
3.19
9.92
15.55
20.25
24.00
26.57
27.65
27.17
25.39
22.92
20.45
18.47
17.12
16.16
15.23
14.06
12.61
11.11
9.81
8.86
8.18
7.55
6.80
5.84
4.79
3.78
2.87
2.02
1.14
0.14
-0.95
-2.04
-3.05
-3.98
-4.89
-5.87
-6.95
-8.13
-9.40
-10.77
-12.35
-14.23
-16.38
-18.59
-20.43
-21.41
-21.11
-19.41
-16.50
-12.85
-9.02
-5.40
-2.17
0.82
3.82
7.09
10.72
14.61
18.64
22.70
26.78
30.85
34.84
38.54
41.71
44.13
45.74
46.66
47.13
47.47
48.05
49.21
51.23
54.21
57.92
61.78
65.02
66.94
67.25
66.12
63.99
61.18
57.46
51.98
43.49
30.95
14.01
-6.57
-28.98
-50.71
-69.18
-82.44
-89.57
-90.90
-87.76
-81.98
-75.31
-68.98
-63.54
-58.92
-54.80
-50.83
-46.89
-43.18
-40.06
-37.91
-36.83
-36.53
-36.22
-34.79
-31.13
-24.51
-15.02
-3.77
7.21
15.58
19.50
18.36
13.00
5.35
-2.46
-9.04
-14.16
-18.47
-22.83
-27.53
-31.98
-35.13
-36.12
-34.91
-32.43
-30.22
-29.86
-32.31
-37.55
-44.49
-51.25
-55.75
-56.46
-53.01
-46.39
-38.43
-31.03
-25.27
-21.20
-18.12
-15.47
-13.35
-12.64
-14.33
-18.69
-24.73
-30.49
-33.83
-33.42
-29.24
-22.45
-14.77
-7.65
-1.83
2.75
6.53
10.01
13.44
16.88
20.25
23.41
26.24
28.55
30.08
30.55
29.77
27.80
25.01
22.06
19.78
18.82
19.51
21.63
24.55
27.38
29.29
29.75
28.59
26.01
22.40
18.22
13.94
9.94
6.55
3.97
2.32
1.63
1.95
3.29
5.59
8.58
11.78
14.49
16.00
15.73
13.39
9.01
2.87
-4.40
-11.84
-18.14
-21.88
-21.97
-18.18
-11.45
-3.77
2.44
5.22
3.88
-0.78
-6.81
-11.99
-14.72
-14.56
-12.17
-8.76
-5.44
-2.73
-0.63
1.12
2.67
3.84
4.36
4.11
3.34
2.60
2.41
2.91
3.77
4.26
3.64
1.49
-2.04
-6.23
-10.02
-12.28
-12.18
-9.42
-4.30
2.42
9.77
16.89
23.26
28.71
33.25
36.92
39.66
41.34
41.94
41.58
40.61
39.49
38.61
38.30
38.68
39.74
41.33
43.17
44.85
45.99
46.31
45.78
44.57
42.97
41.16
39.13
36.63
33.39
29.27
24.30
18.73
12.81
6.83
1.10
-3.97
-7.89
-10.35
-11.37
-11.46
-11.41
-11.98
-13.51
-15.77
-18.11
-19.77
-20.22
-19.30
-17.16
-14.17
-10.80
-7.46
-4.51
-2.17
-0.45
0.81
1.85
2.81
3.71
4.47
5.05
5.61
6.44
7.85
9.91
12.37
14.77
16.70
18.03
19.00
20.04
21.34
22.71
23.57
23.32
21.78
19.43
17.13
15.71
15.53
16.40
17.83
19.39
20.90
22.24
23.10
22.79
20.48
15.63
8.31
-0.68
-10.20
-19.10
-26.66
-32.58
-36.93
-39.88
-41.50
-41.57
-39.61
-34.98
-27.27
-16.68
-4.16
8.59
19.62
27.23
30.48
29.37
24.70
17.81
10.17
3.09
-2.62
-6.67
-9.30
-11.14
-12.91
-15.17
-18.15
-21.72
-25.52
-29.11
-32.03
-33.92
-34.66
-34.43
-33.74
-33.35
-33.96
-36.02
-39.48
-43.96
-48.95
-53.99
-58.69
-62.49
-64.51
-63.68
-59.17
-51.05
-40.55
-29.68
-20.31
-13.28
-8.15
-3.56
1.71
8.08
14.92
21.18
26.07
29.51
31.96
33.88
35.27
35.52
33.75
29.28
22.10
12.94
3.08
-6.03
-13.19
-17.79
-19.94
-20.23
-19.37
-17.73
-15.21
-11.29
-5.43
2.58
12.36
23.05
33.58
43.00
50.77
56.75
61.00
63.53
63.99
61.71
56.00
46.65
34.32
20.53
7.26
-3.81
-11.82
-16.84
-19.46
-20.16
-19.05
-15.99
-11.10
-5.13
0.59
4.70
6.47
6.08
4.47
2.73
1.58
1.13
1.04
0.92
0.58
0.06
-0.53
-1.18
-1.98
-2.97
-4.05
-4.84
-4.85
-3.72
-1.39
1.73
4.92
7.38
8.62
8.61
7.82
7.02
6.89
7.83
9.86
12.73
16.02
19.30
22.13
24.09
24.90
24.52
23.23
21.53
19.91
18.57
17.32
15.68
13.12
9.39
4.67
-0.44
-5.20
-8.99
-11.53
-12.88
-13.34
-13.22
-12.67
-11.68
-10.12
-7.96
-5.36
-2.71
-0.44
1.21
2.32
3.30
4.70
7.00
10.44
15.09
20.93
27.94
35.97
44.53
52.50
58.17
59.63
55.41
45.15
29.90
11.84
-6.34
-22.35
-34.85
-43.62
-49.26
-52.70
-54.74
-55.84
-56.15
-55.69
-54.54
-52.88
-50.98
-49.02
-46.95
-44.37
-40.69
-35.37
-28.25
-19.86
-11.42
-4.58
-0.80
-0.88
-4.48
-10.19
-15.90
-19.45
-19.32
-15.05
-7.56
0.82
6.75
6.68
-2.13
-20.46
-46.25
-74.56
-98.60
-111.85
-110.62
-95.70
-72.23
-47.69
-28.80
-19.03
-17.80
-21.81
-27.35
-32.40
-37.05
-42.35
-48.67
-54.65
-57.49
-54.53
-44.90
-30.24
-14.06
-0.15
9.00
13.14
14.18
15.04
18.27
24.88
34.07
43.67
51.31
55.55
56.43
55.31
54.06
54.06
55.59
57.92
59.83
60.43
59.54
57.68
55.66
54.07
52.90
51.68
49.76
46.68
42.42
37.38
32.15
27.25
22.92
19.13
15.64
12.21
8.70
5.10
1.52
-1.91
-5.05
-7.78
-9.90
-11.19
-11.39
-10.31
-7.97
-4.59
-0.59
3.58
7.54
11.03
14.00
16.46
18.52
20.30
21.93
23.53
25.24
27.18
29.35
31.72
34.11
36.29
38.03
39.13
39.44
38.85
37.19
34.31
30.06
24.47
17.74
10.28
2.60
-4.83
-11.67
-17.83
-23.38
-28.47
-33.25
-37.69
-41.56
-44.47
-45.99
-45.89
-44.26
-41.60
-38.57
-35.84
-33.76
-32.33
-31.21
-29.96
-28.25
-25.94
-23.15
-20.16
-17.31
-14.87
-12.95
-11.51
-10.36
-9.21
-7.78
-5.88
-3.47
-0.66
2.35
5.27
7.81
9.67
10.59
10.45
9.29
7.37
5.15
3.12
1.69
1.02
0.99
1.25
1.41
1.22
0.65
-0.17
-1.17
-2.56
-4.92
-9.00
-15.34
-23.86
-33.80
-43.80
-52.48
-58.96
-63.05
-65.24
-66.25
-66.68
-66.79
-66.58
-65.98
-64.89
-63.19
-60.53
-56.36
-50.07
-41.29
-30.19
-17.42
-4.01
9.02
20.80
30.80
38.70
44.33
47.70
49.01
48.71
47.42
45.81
44.45
43.65
43.42
43.57
43.84
44.09
44.42
45.11
46.39
48.19
50.14
51.66
52.40
52.43
52.24
52.46
53.42
54.92
56.36
57.19
57.28
57.06
57.33
58.77
61.59
65.48
69.67
73.37
76.02
77.47
77.91
77.72
77.25
76.56
75.49
73.70
70.88
66.86
61.62
55.22
47.73
39.30
30.23
21.01
12.27
4.49
-2.20
-8.13
-13.89
-20.06
-26.88
-34.17
-41.47
-48.22
-54.05
-58.82
-62.58
-65.44
-67.45
-68.64
-69.02
-68.64
-67.70
-66.46
-65.19
-64.08
-63.14
-62.23
-61.11
-59.57
-57.51
-54.99
-52.19
-49.37
-46.74
-44.39
-42.24
-40.07
-37.61
-34.72
-31.47
-28.16
-25.18
-22.77
-20.98
-19.60
-18.36
-17.09
-15.81
-14.70
-13.85
-13.17
-12.30
-10.82
-8.39
-4.95
-0.80
3.54
7.52
10.68
12.80
13.83
13.88
13.14
11.85
10.24
8.55
7.02
5.89
5.32
5.37
5.95
6.88
7.84
8.59
8.92
8.83
8.41
7.83
7.20
6.56
5.86
5.04
4.14
3.25
2.48
1.89
1.41
0.88
0.16
-0.82
-1.98
-3.16
-4.22
-5.06
-5.75
-6.36
-6.99
-7.72
-8.57
-9.53
-10.60
-11.74
-12.86
-13.80
-14.37
-14.37
-13.72
-12.42
-10.55
-8.21
-5.52
-2.60
0.38
3.15
5.43
6.93
7.50
7.22
6.33
5.21
4.20
3.51
3.19
3.21
3.52
4.07
4.84
5.77
6.73
7.56
8.13
8.40
8.46
8.44
8.39
8.32
8.09
7.56
6.62
5.32
3.82
2.33
1.06
0.16
-0.35
-0.54
-0.50
-0.38
-0.30
-0.37
-0.67
-1.27
-2.16
-3.29
-4.55
-5.83
-7.05
-8.20
-9.28
-10.25
-10.95
-11.11
-10.46
-8.81
-6.20
-2.91
0.62
3.91
6.60
8.53
9.67
10.06
9.80
8.98
7.79
6.52
5.51
5.11
5.48
6.52
7.93
9.26
10.19
10.58
10.55
10.32
10.09
9.92
9.69
9.22
8.37
7.16
5.77
4.42
3.32
2.53
1.97
1.51
0.99
0.33
-0.44
-1.27
-2.17
-3.14
-4.25
-5.49
-6.76
-7.92
-8.82
-9.46
-9.98
-10.62
-11.55
-12.72
-13.83
-14.39
-13.93
-12.27
-9.57
-6.30
-3.06
-0.34
1.63
2.82
3.38
3.45
3.17
2.64
1.99
1.41
1.08
1.12
1.55
2.31
3.27
4.31
5.31
6.17
6.78
7.03
6.85
6.25
5.34
4.28
3.24
2.38
1.76
1.35
1.05
0.74
0.28
-0.38
-1.20
-2.05
-2.80
-3.33
-3.65
-3.81
-3.93
-4.12
-4.46
-4.98
-5.73
-6.73
-8.02
-9.60
-11.42
-13.29
-14.88
-15.80
-15.66
-14.28
-11.73
-8.32
-4.52
-0.76
2.62
5.41
7.51
8.81
9.26
8.86
7.74
6.17
4.51
3.11
2.21
1.94
2.30
3.16
4.35
5.60
6.65
7.27
7.37
7.00
6.36
5.69
5.20
4.94
4.80
4.60
4.17
3.44
2.52
1.57
0.77
0.19
-0.20
-0.51
-0.87
-1.36
-1.98
-2.71
-3.49
-4.30
-5.15
-6.06
-7.06
-8.15
-9.32
-10.48
-11.50
-12.20
-12.37
-11.84
-10.52
-8.49
-5.94
-3.15
-0.36
2.22
4.47
6.28
7.52
8.05
7.83
6.94
5.67
4.37
3.38
2.87
2.87
3.30
4.06
5.04
6.19
7.34
8.32
8.93
9.03
8.59
7.76
6.73
5.70
4.76
3.90
3.04
2.11
1.15
0.30
-0.29
-0.51
-0.43
-0.23
-0.20
-0.52
-1.22
-2.13
-3.02
-3.74
-4.31
-4.86
-5.60
-6.62
-7.87
-9.23
-10.59
-11.87
-13.09
-14.15
-14.85
-14.83
-13.76
-11.46
-8.10
-4.17
-0.35
2.78
4.86
5.89
6.10
5.77
5.14
4.34
3.40
2.42
1.53
0.96
0.92
1.51
2.63
4.04
5.41
6.46
7.09
7.33
7.32
7.21
7.07
6.90
6.67
6.33
5.87
5.28
4.55
3.70
2.75
1.80
0.93
0.21
-0.36
-0.83
-1.24
-1.66
-2.06
-2.45
-2.85
-3.33
-4.00
-4.96
-6.27
-7.88
-9.65
-11.28
-12.45
-12.81
-12.11
-10.29
-7.52
-4.13
-0.58
2.67
5.26
6.95
7.68
7.56
6.82
5.76
4.67
3.74
3.05
2.58
2.28
2.11
2.09
2.26
2.66
3.27
4.02
4.83
5.60
6.23
6.64
6.73
6.47
5.84
4.95
3.99
3.16
2.61
2.32
2.16
1.89
1.31
0.38
-0.80
-2.02
-3.04
-3.79
-4.31
-4.78
-5.40
-6.29
-7.48
-8.93
-10.59
-12.36
-14.11
-15.57
-16.39
-16.16
-14.64
-11.88
-8.24
-4.29
-0.61
2.43
4.71
6.31
7.33
7.82
7.74
7.06
5.93
4.64
3.56
3.07
3.33
4.32
5.83
7.58
9.33
10.88
12.11
12.90
13.20
13.04
12.53
11.84
11.07
10.27
9.32
8.09
6.44
4.38
2.08
-0.23
-2.36
-4.23
-5.90
-7.52
-9.25
-11.12
-13.07
-14.95
-16.59
-17.93
-19.02
-20.01
-21.10
-22.47
-24.23
-26.35
-28.62
-30.65
-31.97
-32.12
-30.93
-28.53
-25.47
-22.42
-19.99
-18.45
-17.68
-17.26
-16.66
-15.42
-13.17
-9.73
-5.20
-0.04
4.87
8.51
10.06
9.39
7.25
5.05
4.23
5.62
9.08
13.66
18.08
21.36
23.19
23.83
23.87
23.79
23.84
24.00
24.18
24.35
24.62
25.05
25.62
26.11
26.17
25.49
23.97
21.74
19.15
16.59
14.38
12.64
11.32
10.15
8.76
6.74
3.78
-0.16
-4.77
-9.37
-13.11
-15.31
-15.67
-14.42
-12.16
-9.68
-7.62
-6.33
-5.81
-5.78
-5.82
-5.45
-4.28
-2.13
0.97
4.82
9.14
13.77
18.63
23.75
28.99
34.04
38.33
41.26
42.37
41.48
38.76
34.69
29.93
25.24
21.40
19.04
18.50
19.72
22.23
25.29
28.19
30.41
31.77
32.36
32.37
31.96
31.15
29.87
28.01
25.51
22.35
18.51
13.97
8.69
2.62
-4.15
-11.38
-18.55
-25.02
-30.11
-33.34
-34.61
-34.14
-32.47
-30.24
-27.96
-25.96
-24.34
-23.03
-21.96
-21.05
-20.30
-19.75
-19.43
-19.32
-19.36
-19.45
-19.45
-19.23
-18.69
-17.75
-16.40
-14.72
-12.87
-11.09
-9.57
-8.45
-7.72
-7.26
-6.93
-6.64
-6.40
-6.30
-6.43
-6.83
-7.46
-8.19
-8.86
-9.33
-9.54
-9.50
-9.31
-9.17
-9.29
-9.93
-11.22
-13.14
-15.49
-17.85
-19.73
-20.63
-20.22
-18.41
-15.35
-11.41
-7.09
-2.94
0.56
3.06
4.45
4.81
4.39
3.55
2.62
1.89
1.54
1.63
2.16
3.02
4.04
5.02
5.78
6.24
6.44
6.46
6.40
6.27
6.05
5.67
5.09
4.37
3.58
2.81
2.09
1.41
0.71
-0.05
-0.91
-1.87
-2.88
-3.90
-4.86
-5.70
-6.40
-7.00
-7.62
-8.49
-9.84
-11.82
-14.34
-17.03
-19.26
-20.40
-20.01
-18.02
-14.78
-10.85
-6.89
-3.40
-0.69
1.17
2.22
2.56
2.31
1.57
0.49
-0.77
-2.06
-3.19
-4.03
-4.50
-4.69
-4.92
-5.61
-7.10
-9.49
-12.47
-15.45
-17.76
-18.93
-18.74
-17.09
-13.93
-9.14
-2.85
4.35
11.21
16.11
17.60
14.99
8.67
-0.10
-9.54
-17.81
-23.24
-24.46
-20.59
-11.59
1.53
16.74
31.53
43.69
52.02
56.53
58.02
57.49
55.66
52.92
49.58
46.19
43.54
42.35
42.96
45.07
47.92
50.64
52.68
53.90
54.57
55.04
55.49
55.86
55.86
55.12
53.41
50.71
47.16
43.00
38.39
33.34
27.75
21.46
14.38
6.60
-1.67
-10.11
-18.44
-26.41
-33.80
-40.38
-45.87
-50.04
-52.85
-54.51
-55.45
-56.16
-56.95
-57.79
-58.27
-57.88
-56.25
-53.39
-49.77
-46.16
-43.40
-42.11
-42.45
-44.01
-45.90
-46.97
-46.25
-43.26
-38.24
-32.03
-25.72
-20.23
-16.05
-13.13
-11.03
-9.08
-6.48
-2.48
3.42
11.21
20.09
28.50
34.49
36.51
34.03
27.90
19.95
12.19
5.91
1.28
-2.27
-5.30
-7.68
-8.52
-6.74
-1.86
5.49
13.69
20.81
25.35
26.71
25.07
21.04
15.35
8.67
1.70
-4.81
-10.18
-14.03
-16.45
-17.93
-19.04
-20.09
-20.90
-20.93
-19.56
-16.52
-12.10
-7.19
-2.93
-0.31
0.14
-1.50
-4.72
-8.89
-13.49
-18.23
-22.88
-27.14
-30.57
-32.67
-33.08
-31.72
-28.85
-25.04
-20.99
-17.37
-14.66
-13.01
-12.26
-12.00
-11.70
-10.90
-9.35
-6.98
-3.96
-0.56
2.89
6.07
8.76
10.89
12.51
13.72
14.56
14.93
14.65
13.61
11.91
9.98
8.44
7.93
8.88
11.35
15.06
19.50
24.12
28.49
32.39
35.84
38.95
41.88
44.66
47.12
48.96
49.78
49.29
47.34
44.02
39.53
34.17
28.28
22.20
16.26
10.77
5.86
1.49
-2.51
-6.28
-9.81
-12.87
-15.12
-16.31
-16.48
-16.00
-15.43
-15.26
-15.66
-16.44
-17.17
-17.48
-17.24
-16.56
-15.68
-14.81
-13.97
-13.10
-12.08
-10.87
-9.44
-7.72
-5.61
-3.03
0.00
3.29
6.45
9.12
11.13
12.59
13.86
15.32
17.11
19.07
20.70
21.48
20.98
19.09
15.98
12.05
7.76
3.55
-0.19
-3.12
-4.93
-5.48
-4.82
-3.36
-1.72
-0.52
-0.19
-0.73
-1.80
-2.90
-3.66
-3.97
-4.01
-4.07
-4.42
-5.18
-6.34
-7.78
-9.36
-10.94
-12.32
-13.31
-13.72
-13.46
-12.58
-11.25
-9.69
-8.10
-6.58
-5.14
-3.69
-2.08
-0.20
2.00
4.45
6.98
9.36
11.37
12.90
13.88
14.34
14.34
13.95
13.22
12.27
11.27
10.40
9.79
9.46
9.32
9.22
9.08
8.94
8.92
9.14
9.58
10.07
10.29
9.90
8.69
6.60
3.77
0.48
-2.91
-6.06
-8.67
-10.57
-11.77
-12.44
-12.85
-13.31
-14.02
-15.00
-16.13
-17.19
-18.02
-18.48
-18.54
-18.17
-17.35
-16.06
-14.30
-12.16
-9.80
-7.50
-5.56
-4.25
-3.80
-4.31
-5.71
-7.79
-10.19
-12.50
-14.38
-15.67
-16.46
-17.03
-17.73
-18.86
-20.50
-22.51
-24.48
-25.91
-26.46
-26.16
-25.55
-25.64
-27.48
-31.74
-38.35
-46.47
-54.58
-60.92
-63.84
-62.26
-55.96
-45.76
-33.35
-20.86
-10.13
-2.13
3.35
7.49
11.72
17.09
23.81
31.35
38.93
46.00
52.43
58.42
64.16
69.60
74.42
78.17
80.52
81.42
81.10
79.95
78.36
76.54
74.59
72.51
70.34
68.18
66.19
64.51
63.18
62.13
61.17
60.10
58.75
56.99
54.73
51.88
48.27
43.66
37.81
30.56
22.01
12.56
2.92
-6.10
-13.83
-20.06
-25.10
-29.67
-34.50
-39.97
-45.89
-51.46
-55.68
-57.66
-57.05
-54.11
-49.50
-44.10
-38.67
-33.75
-29.64
-26.47
-24.23
-22.79
-21.91
-21.28
-20.58
-19.57
-18.10
-16.21
-14.04
-11.86
-9.97
-8.61
-7.85
-7.61
-7.64
-7.67
-7.47
-7.02
-6.43
-5.94
-5.78
-6.06
-6.80
-7.90
-9.19
-10.52
-11.73
-12.65
-13.22
-13.47
-13.54
-13.70
-14.19
-15.16
-16.57
-18.15
-19.50
-20.25
-20.15
-19.19
-17.56
-15.54
-13.49
-11.70
-10.36
-9.56
-9.31
-9.52
-10.09
-10.98
-12.35
-14.56
-18.05
-23.16
-29.83
-37.49
-45.19
-51.94
-57.03
-60.14
-61.32
-60.64
-58.06
-53.36
-46.40
-37.37
-26.85
-15.74
-4.92
5.04
13.89
21.65
28.36
33.94
38.22
40.98
42.19
41.99
40.67
38.57
36.00
33.21
30.49
28.22
26.88
26.91
28.49
31.43
35.11
38.77
41.77
43.85
45.19
46.22
47.31
48.58
49.89
50.98
51.69
51.98
51.88
51.31
50.09
47.95
44.82
40.87
36.55
32.39
28.75
25.72
23.16
20.86
18.70
16.65
14.67
12.56
9.97
6.49
1.85
-3.96
-10.70
-17.96
-25.36
-32.60
-39.37
-45.31
-49.97
-52.89
-53.82
-52.86
-50.41
-47.07
-43.40
-39.78
-36.37
-33.23
-30.35
-27.78
-25.53
-23.63
-22.05
-20.77
-19.84
-19.35
-19.38
-19.87
-20.60
-21.22
-21.41
-21.02
-20.10
-18.90
-17.68
-16.64
-15.84
-15.17
-14.47
-13.53
-12.19
-10.39
-8.18
-5.67
-3.02
-0.35
2.24
4.70
6.92
8.74
9.92
10.27
9.79
8.68
7.39
6.36
5.84
5.86
6.18
6.45
6.37
5.75
4.49
2.58
-0.01
-3.27
-7.10
-11.25
-15.37
-19.13
-22.27
-24.60
-25.97
-26.16
-24.93
-22.19
-18.12
-13.21
-8.14
-3.47
0.52
3.89
6.86
9.59
12.07
14.13
15.69
16.86
17.91
19.12
20.52
21.82
22.53
22.16
20.57
18.07
15.35
13.22
12.32
12.91
14.78
17.40
20.10
22.31
23.67
24.04
23.38
21.65
18.65
14.08
7.74
-0.18
-8.92
-17.21
-23.62
-27.07
-27.22
-24.57
-20.31
-15.78
-12.04
-9.57
-8.30
-7.81
-7.64
-7.50
-7.26
-6.96
-6.62
-6.21
-5.64
-4.78
-3.54
-1.95
-0.13
1.71
3.35
4.64
5.51
5.99
6.22
6.43
6.88
7.81
9.29
11.24
13.42
15.52
17.30
18.57
19.19
18.96
17.66
15.03
10.98
5.71
-0.25
-6.15
-11.26
-15.14
-17.72
-19.21
-19.93
-20.08
-19.67
-18.63
-16.92
-14.69
-12.32
-10.23
-8.75
-8.09
-8.27
-9.24
-10.90
-13.16
-15.83
-18.63
-21.20
-23.23
-24.48
-24.90
-24.65
-23.97
-23.14
-22.30
-21.43
-20.30
-18.61
-16.08
-12.57
-8.19
-3.22
1.91
6.81
11.15
14.76
17.56
19.58
20.92
21.71
22.12
22.33
22.54
22.88
23.43
24.15
24.93
25.57
25.89
25.80
25.30
24.56
23.74
22.97
22.29
21.62
20.86
19.92
18.87
17.88
17.14
16.80
16.88
17.23
17.63
17.92
18.03
18.01
17.97
18.05
18.30
18.72
19.24
19.72
20.03
19.97
19.37
18.13
16.29
14.09
11.87
10.01
8.74
8.12
8.03
8.29
8.73
9.24
9.64
9.73
9.22
7.88
5.62
2.58
-0.94
-4.54
-7.84
-10.51
-12.33
-13.18
-13.18
-12.64
-12.15
-12.44
-14.32
-18.55
-25.66
-35.80
-48.47
-62.49
-76.20
-87.80
-95.87
-99.65
-98.97
-94.03
-85.16
-72.85
-58.02
-42.15
-27.13
-14.73
-5.99
-0.96
1.14
1.37
0.54
-0.95
-2.95
-5.17
-7.07
-7.94
-7.30
-5.09
-1.70
2.30
6.49
10.70
14.99
19.44
23.97
28.37
32.36
35.75
38.56
40.96
43.22
45.49
47.72
49.69
51.11
51.74
51.57
50.74
49.53
48.14
46.57
44.55
41.69
37.63
32.29
25.89
18.93
11.95
5.35
-0.68
-6.12
-10.97
-15.16
-18.55
-21.04
-22.61
-23.45
-23.82
-23.96
-24.02
-24.02
-23.91
-23.67
-23.25
-22.64
-21.81
-20.67
-19.18
-17.34
-15.26
-13.11
-11.10
-9.36
-7.93
-6.81
-5.92
-5.22
-4.66
-4.22
-3.89
-3.70
-3.68
-3.86
-4.23
-4.70
-5.15
-5.46
-5.64
-5.83
-6.34
-7.47
-9.41
-12.09
-15.13
-18.01
-20.33
-22.07
-23.70
-25.90
-29.10
-33.14
-37.11
-39.86
-40.61
-39.56
-37.87
-37.32
-39.58
-45.83
-56.71
-72.31
-92.04
-114.15
-135.28
-150.71
-155.53
-146.34
-122.65
-87.27
-45.33
-2.46
36.84
69.98
96.08
115.24
127.83
134.29
135.32
132.11
126.30
119.71
113.88
109.73
107.49
106.83
107.13
107.83
108.59
109.44
110.69
112.79
116.06
120.64
126.37
132.67
138.56
142.60
142.97
137.86
125.87
106.57
80.75
50.38
18.12
-13.35
-41.91
-66.37
-86.40
-102.27
-114.48
-123.51
-129.80
-133.74
-135.73
-136.00
-134.53
-131.02
-125.03
-116.31
-105.03
-91.83
-77.56
-63.05
-48.93
-35.69
-23.81
-13.85
-6.27
-1.18
1.76
3.21
3.79
3.79
3.12
1.66
-0.40
-2.46
-3.78
-3.99
-3.42
-2.92
-3.45
-5.52
-8.97
-13.06
-16.84
-19.39
-20.00
-18.21
-13.86
-7.24
0.94
9.53
17.35
23.46
27.51
29.61
30.19
29.59
27.96
25.31
21.68
17.37
12.98
9.32
7.11
6.74
8.15
10.82
14.00
16.98
19.25
20.54
20.82
20.16
18.70
16.66
14.31
11.95
9.76
7.74
5.71
3.38
0.61
-2.47
-5.45
-7.81
-9.16
-9.45
-9.02
-8.46
-8.34
-8.95
-10.15
-11.46
-12.24
-12.04
-10.77
-8.71
-6.33
-4.06
-2.07
-0.27
1.52
3.38
5.16
6.50
6.99
6.44
4.96
2.98
1.06
-0.27
-0.68
-0.13
1.15
2.74
4.20
5.22
5.66
5.69
5.57
5.61
5.98
6.62
7.30
7.70
7.50
6.52
4.73
2.26
-0.64
-3.63
-6.37
-8.59
-10.12
-10.99
-11.36
-11.49
-11.66
-12.12
-13.02
-14.40
-16.22
-18.33
-20.44
-22.13
-22.87
-22.20
-19.88
-16.06
-11.37
-6.79
-3.35
-1.80
-2.28
-4.27
-6.79
-8.82
-9.69
-9.35
-8.30
-7.40
-7.44
-8.90
-11.77
-15.47
-19.01
-21.12
-20.61
-16.66
-9.12
1.34
13.36
25.28
35.73
44.06
50.39
55.37
59.63
63.33
66.04
67.00
65.54
61.44
55.09
47.24
38.73
30.25
22.26
15.00
8.68
3.41
-0.74
-3.86
-6.17
-7.86
-8.94
-9.11
-7.78
-4.32
1.60
9.64
18.69
27.04
32.90
34.99
32.94
27.32
19.27
10.08
0.71
-8.22
-16.29
-23.05
-28.00
-30.74
-31.15
-29.60
-26.74
-23.33
-20.00
-17.13
-14.83
-13.01
-11.41
-9.70
-7.67
-5.41
-3.41
-2.32
-2.53
-3.82
-5.40
-6.28
-5.89
-4.48
-2.87
-1.93
-1.97
-2.61
-3.13
-3.04
-2.39
-1.63
-1.16
-0.95
-0.58
0.46
2.35
4.67
6.67
7.74
7.68
6.67
5.06
3.09
0.93
-1.27
-3.33
-4.97
-5.96
-6.27
-6.09
-5.81
-5.67
-5.61
-5.21
-4.18
-2.52
-0.62
0.90
1.53
0.92
-0.67
-2.49
-3.56
-3.63
-3.08
-2.57
-2.63
-3.32
-4.69
-6.37
-7.77
-8.15
-7.83
-7.73
-8.82
-11.59
-15.80
-21.16
-26.48
-29.79
-28.75
-23.13
-14.45
-5.50
0.74
1.68
-5.09
-20.09
-41.36
-64.46
-85.54
-101.41
-110.29
-111.94
-102.18
-81.94
-57.48
-40.92
-33.52
-32.94
-34.90
-36.57
-36.10
-32.67
-27.23
-20.75
-13.42
-4.17
6.71
18.23
28.93
37.51
43.26
45.62
45.31
44.32
45.50
50.02
57.61
66.90
76.17
83.71
87.82
87.68
83.68
77.36
69.91
62.13
54.40
46.99
40.39
35.37
33.21
35.32
42.37
53.14
64.73
73.50
76.47
72.24
61.39
46.24
30.21
16.89
8.94
7.01
9.11
10.55
4.96
-13.55
-47.63
-94.57
-146.16
-191.07
-218.89
-224.05
-207.64
-176.32
-139.01
-103.24
-72.86
-48.19
-27.85
-10.79
2.81
12.16
17.35
20.20
23.87
31.26
43.27
58.01
71.53
79.80
80.53
74.29
64.31
54.86
49.53
49.98
55.79
65.01
75.06
83.12
86.07
80.49
63.44
33.93
-5.88
-50.53
-92.91
-126.89
-149.51
-161.46
-165.63
-164.75
-159.63
-149.32
-132.82
-111.06
-87.50
-66.80
-52.53
-45.49
-43.45
-42.46
-38.98
-31.38
-20.25
-7.42
5.43
17.49
28.40
37.99
46.20
52.95
58.29
62.35
65.85
70.58
79.11
93.30
113.70
139.37
167.54
194.13
214.77
226.88
231.34
231.74
231.01
229.63
225.33
213.49
188.98
147.88
89.55
17.89
-59.47
-134.51
-199.70
-248.15
-274.74
-274.26
-245.98
-198.82
-148.32
-101.87
-61.92
-31.50
-12.02
-3.04
-2.48
-7.49
-14.62
-19.70
-18.83
-11.17
1.62
16.86
31.65
43.35
49.54
48.71
41.11
28.82
14.14
-0.48
-12.48
-20.14
-23.36
-23.75
-23.58
-24.21
-25.46
-26.59
-26.72
-25.12
-21.73
-17.35
-13.36
-11.19
-11.58
-14.22
-18.14
-21.80
-23.52
-22.17
-17.75
-11.39
-4.75
0.91
5.23
8.54
11.38
13.99
16.10
17.14
16.88
15.81
15.14
16.27
20.13
26.59
34.43
41.75
46.64
47.89
45.48
40.45
34.47
29.05
24.99
22.08
19.46
16.16
11.73
6.54
1.55
-2.11
-3.78
-3.50
-2.01
-0.31
0.78
0.93
0.32
-0.63
-1.52
-2.23
-2.89
-3.81
-5.23
-7.16
-9.42
-11.65
-13.54
-14.87
-15.59
-15.74
-15.40
-14.60
-13.33
-11.55
-9.32
-6.81
-4.32
-2.11
-0.37
0.86
1.63
2.02
2.03
1.65
0.89
-0.13
-1.15
-1.89
-2.12
-1.78
-0.93
0.27
1.60
2.81
3.60
3.71
3.05
1.79
0.33
-0.76
-1.04
-0.35
1.08
2.78
4.23
5.05
5.13
4.53
3.38
1.80
-0.13
-2.34
-4.66
-6.87
-8.69
-9.91
-10.47
-10.45
-10.08
-9.63
-9.29
-9.10
-8.93
-8.55
-7.76
-6.42
-4.49
-2.01
0.94
4.23
7.73
11.27
14.63
17.50
19.56
20.45
19.96
18.11
15.21
11.98
9.39
8.47
9.86
13.53
18.55
23.23
25.50
23.58
16.45
4.15
-12.20
-30.82
-49.64
-66.72
-80.45
-89.58
-93.28
-91.14
-83.34
-70.72
-54.80
-37.49
-20.65
-5.70
6.71
16.60
24.39
30.47
34.91
37.46
37.76
35.73
31.73
26.58
21.26
16.54
12.77
9.85
7.42
5.18
3.06
1.22
-0.11
-0.75
-0.73
-0.17
0.75
1.94
3.38
5.10
7.03
9.04
10.93
12.56
13.85
14.80
15.40
15.62
15.39
14.70
13.55
12.04
10.34
8.63
7.08
5.75
4.56
3.35
1.91
0.19
-1.66
-3.31
-4.44
-4.92
-4.96
-5.03
-5.66
-7.20
-9.66
-12.73
-15.91
-18.63
-20.34
-20.56
-18.95
-15.48
-10.47
-4.65
1.02
5.60
8.48
9.49
8.93
7.34
5.37
3.56
2.35
2.02
2.73
4.48
7.07
10.11
13.07
15.42
16.78
17.07
16.42
15.16
13.62
12.10
10.72
9.53
8.48
7.49
6.46
5.29
3.94
2.42
0.77
-0.94
-2.68
-4.44
-6.17
-7.77
-9.03
-9.72
-9.71
-9.03
-7.89
-6.51
-5.01
-3.35
-1.38
1.01
3.74
6.51
8.89
10.44
10.82
9.88
7.64
4.39
0.67
-2.74
-5.01
-5.53
-4.17
-1.29
2.36
6.03
9.15
11.51
13.05
13.72
13.29
11.51
8.22
3.60
-1.84
-7.32
-12.12
-15.70
-17.86
-18.71
-18.53
-17.73
-16.68
-15.72
-15.11
-14.94
-15.11
-15.36
-15.31
-14.58
-12.91
-10.26
-6.77
-2.77
1.38
5.34
8.83
11.66
13.71
14.93
15.36
15.19
14.70
14.25
14.08
14.28
14.73
15.19
15.51
15.74
16.13
16.99
18.44
20.34
22.27
23.70
24.22
23.60
21.89
19.37
16.49
13.79
11.80
10.89
11.11
12.17
13.51
14.53
14.78
14.09
12.49
10.06
6.86
2.99
-1.36
-5.84
-10.01
-13.58
-16.53
-19.12
-21.72
-24.57
-27.73
-31.12
-34.73
-38.58
-42.74
-47.17
-51.65
-55.95
-60.05
-64.29
-69.32
-75.71
-83.54
-92.10
-99.88
-104.84
-104.74
-97.58
-82.05
-58.09
-27.22
7.46
41.75
71.40
93.08
105.22
108.12
103.52
93.85
81.46
68.23
55.40
43.70
33.52
25.07
18.47
13.82
11.13
10.28
10.89
12.38
14.08
15.45
16.20
16.30
15.89
15.13
14.14
12.91
11.40
9.62
7.66
5.72
4.08
3.00
2.62
2.87
3.50
4.13
4.44
4.24
3.58
2.62
1.55
0.47
-0.64
-1.89
-3.34
-4.99
-6.70
-8.30
-9.63
-10.62
-11.30
-11.72
-11.96
-12.05
-11.99
-11.70
-11.13
-10.27
-9.11
-7.75
-6.28
-4.78
-3.36
-2.08
-1.04
-0.32
0.02
0.01
-0.23
-0.53
-0.71
-0.71
-0.55
-0.33
-0.14
0.02
0.20
0.46
0.80
1.19
1.58
1.99
2.51
3.23
4.10
4.91
5.32
5.06
4.07
2.58
1.08
0.05
-0.21
0.23
1.00
1.63
1.78
1.45
0.91
0.50
0.42
0.59
0.75
0.66
0.25
-0.29
-0.65
-0.54
0.11
1.15
2.27
3.16
3.63
3.67
3.45
3.29
3.55
4.46
5.95
7.66
8.99
9.37
8.47
6.33
3.25
-0.35
-4.13
-7.91
-11.60
-15.04
-17.85
-19.48
-19.37
-17.21
-13.08
-7.55
-1.52
3.99
8.04
10.02
9.76
7.52
3.87
-0.41
-4.53
-7.83
-9.96
-10.92
-10.99
-10.58
-10.00
-9.36
-8.59
-7.59
-6.38
-5.11
-4.05
-3.44
-3.44
-4.00
-4.98
-6.09
-7.03
-7.49
-7.20
-6.02
-3.98
-1.33
1.49
3.97
5.65
6.28
5.89
4.83
3.64
2.95
3.21
4.57
6.74
9.12
10.98
11.66
10.83
8.50
5.02
0.91
-3.27
-7.04
-10.12
-12.32
-13.57
-13.84
-13.18
-11.70
-9.63
-7.26
-4.84
-2.58
-0.56
1.25
2.90
4.41
5.72
6.71
7.24
7.21
6.59
5.47
4.08
2.73
1.71
1.18
1.10
1.24
1.28
0.98
0.29
-0.62
-1.50
-2.11
-2.39
-2.41
-2.33
-2.28
-2.26
-2.25
-2.20
-2.18
-2.22
-2.36
-2.46
-2.30
-1.67
-0.56
0.79
1.92
2.40
2.01
0.92
-0.40
-1.40
-1.65
-1.04
0.24
1.80
3.21
4.12
4.33
3.76
2.45
0.47
-2.01
-4.76
-7.43
-9.57
-10.69
-10.47
-8.85
-6.07
-2.63
0.93
4.15
6.77
8.66
9.78
10.09
9.58
8.36
6.72
5.06
3.78
3.10
2.99
3.13
3.11
2.54
1.26
-0.66
-2.91
-5.04
-6.56
-7.00
-6.07
-3.75
-0.38
3.32
6.40
7.91
7.22
4.25
-0.50
-6.09
-11.47
-15.77
-18.48
-19.52
-19.14
-17.79
-15.94
-13.89
-11.75
-9.38
-6.64
-3.51
-0.24
2.72
4.87
5.96
6.13
5.81
5.52
5.60
6.04
6.52
6.66
6.18
5.10
3.64
2.11
0.72
-0.46
-1.52
-2.54
-3.46
-4.06
-4.07
-3.28
-1.67
0.52
2.89
5.01
6.55
7.36
7.45
6.95
6.03
4.86
3.52
2.09
0.59
-0.91
-2.27
-3.29
-3.75
-3.47
-2.49
-1.02
0.56
1.84
2.57
2.72
2.40
1.72
0.72
-0.70
-2.56
-4.66
-6.54
-7.65
-7.61
-6.46
-4.67
-2.92
-1.74
-1.32
-1.41
-1.56
-1.37
-0.70
0.26
1.13
1.51
1.11
-0.19
-2.36
-5.21
-8.32
-10.99
-12.27
-11.26
-7.50
-1.28
6.31
13.77
19.75
23.48
24.91
24.47
22.68
19.94
16.50
12.57
8.50
4.69
1.44
-1.12
-3.00
-4.21
-4.62
-4.08
-2.59
-0.44
1.77
3.40
4.03
3.66
2.66
1.59
0.92
0.85
1.30
1.96
2.48
2.56
2.06
0.96
-0.63
-2.53
-4.51
-6.33
-7.76
-8.72
-9.20
-9.28
-9.07
-8.58
-7.77
-6.54
-4.83
-2.70
-0.33
2.03
4.18
5.95
7.27
8.03
8.06
7.19
5.37
2.83
0.08
-2.24
-3.59
-3.79
-3.12
-2.14
-1.38
-1.13
-1.26
-1.46
-1.44
-1.13
-0.75
-0.58
-0.77
-1.20
-1.50
-1.36
-0.67
0.33
1.18
1.42
0.82
-0.61
-2.67
-5.18
-8.09
-11.41
-15.03
-18.53
-21.17
-22.11
-20.70
-16.79
-10.81
-3.61
3.74
10.30
15.42
18.78
20.39
20.36
18.83
15.86
11.51
6.01
-0.21
-6.35
-11.44
-14.57
-15.20
-13.35
-9.63
-5.04
-0.60
2.90
5.14
6.25
6.68
6.93
7.38
8.11
8.95
9.60
9.84
9.66
9.18
8.56
7.88
7.10
6.14
4.99
3.70
2.41
1.25
0.27
-0.53
-1.21
-1.80
-2.30
-2.69
-2.99
-3.24
-3.48
-3.76
-4.12
-4.54
-4.96
-5.22
-5.12
-4.49
-3.26
-1.55
0.36
2.13
3.49
4.35
4.73
4.75
4.48
3.95
3.18
2.24
1.27
0.47
0.04
0.08
0.56
1.34
2.27
3.22
4.19
5.26
6.54
8.05
9.63
10.95
11.58
11.22
9.82
7.69
5.36
3.35
1.95
1.07
0.32
-0.87
-2.91
-6.01
-10.11
-14.96
-20.20
-25.38
-29.88
-32.99
-34.05
-32.72
-29.26
-24.48
-19.49
-15.23
-12.10
-9.88
-7.97
-5.78
-3.16
-0.40
1.98
3.57
4.33
4.63
5.04
6.06
7.82
9.99
11.92
12.89
12.41
10.47
7.62
4.78
2.96
2.90
4.71
7.84
11.06
12.70
10.85
3.94
-8.65
-26.04
-45.64
-63.68
-76.29
-80.78
-76.51
-64.92
-48.82
-31.32
-14.94
-1.25
9.10
16.04
19.98
21.68
22.16
22.53
23.58
25.56
28.13
30.69
32.71
33.97
34.59
34.84
34.93
34.94
34.91
34.88
34.98
35.33
35.96
36.75
37.51
37.99
38.16
38.12
38.08
38.22
38.46
38.53
37.98
36.46
33.79
30.10
25.65
20.75
15.55
9.94
3.65
-3.72
-12.46
-22.66
-34.17
-46.52
-58.97
-70.47
-79.73
-85.39
-86.32
-81.93
-72.49
-59.13
-43.68
-28.21
-14.55
-3.87
3.52
8.09
10.78
12.65
14.54
16.84
19.52
22.22
24.46
25.91
26.46
26.17
25.25
23.83
22.11
20.29
18.64
17.47
16.93
16.96
17.24
17.37
17.09
16.38
15.53
14.87
14.61
14.60
14.43
13.59
11.69
8.66
4.71
0.28
-4.16
-8.17
-11.47
-13.92
-15.55
-16.49
-16.96
-17.08
-16.89
-16.29
-15.12
-13.36
-11.20
-9.12
-7.78
-7.73
-9.12
-11.62
-14.51
-16.92
-18.28
-18.40
-17.57
-16.26
-14.88
-13.57
-12.29
-10.90
-9.37
-7.80
-6.34
-5.10
-4.02
-3.00
-1.94
-0.90
-0.05
0.41
0.41
0.08
-0.36
-0.66
-0.75
-0.69
-0.64
-0.70
-0.78
-0.77
-0.51
-0.05
0.47
0.82
0.87
0.65
0.30
0.00
-0.20
-0.38
-0.70
-1.25
-1.98
-2.74
-3.35
-3.66
-3.63
-3.30
-2.72
-2.01
-1.26
-0.63
-0.29
-0.35
-0.85
-1.70
-2.70
-3.61
-4.24
-4.40
-3.96
-2.83
-1.02
1.36
4.03
6.60
8.71
10.07
10.65
10.62
10.30
10.00
9.96
10.20
10.58
10.85
10.78
10.24
9.19
7.70
5.93
4.14
2.67
1.93
2.21
3.52
5.49
7.44
8.61
8.52
7.17
5.08
2.99
1.51
0.94
1.12
1.68
2.24
2.62
2.85
3.08
3.46
3.96
4.38
4.39
3.73
2.34
0.45
-1.49
-3.00
-3.79
-3.84
-3.41
-2.87
-2.48
-2.32
-2.21
-1.76
-0.50
1.97
5.81
10.79
16.22
21.10
24.33
25.12
23.17
18.91
13.33
7.83
3.85
2.55
4.49
9.51
16.67
24.55
31.55
36.40
38.37
37.43
34.01
28.74
22.26
15.15
7.97
1.27
-4.44
-8.81
-11.82
-13.76
-15.18
-16.70
-18.78
-21.61
-25.08
-28.84
-32.44
-35.43
-37.48
-38.44
-38.36
-37.45
-35.93
-33.93
-31.47
-28.45
-24.90
-21.06
-17.40
-14.50
-12.76
-12.25
-12.63
-13.34
-13.84
-13.86
-13.39
-12.66
-11.94
-11.41
-11.09
-10.89
-10.65
-10.25
-9.64
-8.84
-8.00
-7.34
-7.10
-7.48
-8.41
-9.49
-9.95
-8.91
-5.67
-0.09
7.19
14.99
21.87
26.73
29.12
29.30
28.01
26.14
24.38
23.10
22.40
22.22
22.49
23.21
24.43
26.12
28.17
30.34
32.31
33.80
34.59
34.54
33.46
31.11
27.28
22.09
16.12
10.36
5.91
3.40
2.72
3.07
3.40
3.11
2.39
2.21
3.85
8.27
15.61
25.12
35.29
44.32
50.42
52.19
48.84
40.33
27.41
11.47
-5.69
-22.23
-36.63
-47.98
-56.04
-61.18
-64.20
-66.10
-67.73
-69.51
-71.22
-71.97
-70.39
-65.23
-55.85
-42.62
-26.98
-11.04
3.02
13.44
19.26
20.33
17.07
10.30
0.97
-9.91
-21.30
-32.13
-41.42
-48.26
-52.02
-52.42
-49.59
-44.10
-36.78
-28.52
-20.07
-11.98
-4.64
1.69
6.82
10.68
13.36
15.07
16.09
16.63
16.81
16.67
16.28
15.77
15.28
14.86
14.37
13.52
12.02
9.83
7.25
4.89
3.46
3.45
5.00
7.85
11.47
15.23
18.49
20.67
21.28
19.95
16.59
11.44
5.15
-1.36
-7.14
-11.46
-14.02
-14.97
-14.78
-14.10
-13.49
-13.34
-13.77
-14.61
-15.47
-15.88
-15.39
-13.80
-11.24
-8.17
-5.21
-2.93
-1.57
-1.00
-0.82
-0.58
0.05
1.12
2.52
3.99
5.23
5.93
5.83
4.66
2.33
-1.11
-5.38
-10.02
-14.49
-18.26
-20.95
-22.41
-22.70
-22.09
-20.87
-19.33
-17.67
-16.00
-14.44
-13.08
-12.02
-11.21
-10.49
-9.56
-8.17
-6.12
-3.43
-0.22
3.30
6.95
10.55
13.99
17.14
19.92
22.25
24.13
25.52
26.37
26.53
25.83
24.19
21.73
18.76
15.72
13.06
11.01
9.59
8.58
7.68
6.61
5.27
3.74
2.22
0.89
-0.16
-0.95
-1.65
-2.43
-3.49
-4.95
-6.86
-9.13
-11.60
-13.93
-15.71
-16.46
-15.76
-13.44
-9.61
-4.75
0.40
5.05
8.51
10.42
10.71
9.63
7.59
5.02
2.28
-0.39
-2.86
-5.06
-6.88
-8.11
-8.40
-7.42
-4.97
-1.22
3.29
7.74
11.23
13.12
13.15
11.51
8.73
5.51
2.58
0.54
-0.20
0.44
2.20
4.59
6.99
8.95
10.24
10.94
11.27
11.47
11.63
11.70
11.47
10.70
9.14
6.66
3.30
-0.68
-4.73
-8.22
-10.55
-11.37
-10.75
-9.09
-7.02
-5.11
-3.69
-2.77
-2.13
-1.52
-0.71
0.36
1.67
3.18
4.81
6.51
8.18
9.67
10.85
11.63
11.99
11.99
11.65
10.95
9.82
8.19
6.04
3.50
0.82
-1.65
-3.58
-4.75
-5.12
-4.86
-4.29
-3.79
-3.67
-4.03
-4.79
-5.77
-6.80
-7.76
-8.59
-9.22
-9.50
-9.25
-8.36
-6.88
-5.05
-3.23
-1.76
-0.80
-0.35
-0.27
-0.32
-0.31
-0.07
0.51
1.48
2.83
4.44
6.18
7.84
9.27
10.34
10.94
10.92
10.15
8.54
6.13
3.14
-0.04
-2.96
-5.27
-6.81
-7.65
-8.03
-8.24
-8.50
-8.87
-9.30
-9.69
-9.92
-9.94
-9.75
-9.37
-8.80
-8.03
-7.03
-5.86
-4.58
-3.38
-2.40
-1.77
-1.51
-1.51
-1.55
-1.42
-0.93
-0.07
1.03
2.10
2.83
3.01
2.53
1.45
-0.06
-1.79
-3.46
-4.80
-5.50
-5.37
-4.30
-2.42
0.00
2.56
4.92
6.85
8.27
9.22
9.77
9.97
9.87
9.47
8.83
8.08
7.36
6.87
6.72
6.98
7.59
8.42
9.32
10.14
10.79
11.25
11.57
11.80
11.99
12.15
12.22
12.13
11.84
11.35
10.73
10.09
9.51
9.00
8.45
7.68
6.50
4.84
2.76
0.50
-1.59
-3.20
-4.13
-4.41
-4.23
-3.92
-3.81
-4.17
-5.15
-6.74
-8.78
-10.98
-12.96
-14.37
-14.99
-14.76
-13.87
-12.62
-11.35
-10.31
-9.61
-9.23
-9.06
-9.05
-9.16
-9.39
-9.69
-9.97
-10.08
-9.88
-9.35
-8.56
-7.63
-6.65
-5.59
-4.36
-2.91
-1.29
0.29
1.55
2.23
2.30
1.89
1.34
1.00
1.12
1.77
2.84
4.16
5.53
6.86
8.09
9.20
10.10
10.65
10.68
10.09
8.87
7.14
5.10
2.93
0.79
-1.17
-2.79
-3.92
-4.42
-4.21
-3.36
-2.04
-0.45
1.15
2.57
3.68
4.40
4.67
4.46
3.78
2.69
1.33
-0.06
-1.26
-2.08
-2.43
-2.33
-1.89
-1.28
-0.67
-0.16
0.27
0.72
1.34
2.23
3.37
4.57
5.55
5.99
5.74
4.80
3.40
1.82
0.32
-0.96
-2.01
-2.91
-3.77
-4.64
-5.51
-6.33
-7.06
-7.73
-8.36
-8.96
-9.45
-9.64
-9.24
-8.04
-5.99
-3.28
-0.27
2.60
4.99
6.78
8.03
8.95
9.76
10.56
11.35
12.01
12.45
12.62
12.63
12.59
12.67
12.93
13.34
13.79
14.17
14.37
14.32
13.99
13.29
12.17
10.60
8.63
6.37
4.02
1.76
-0.27
-2.03
-3.58
-5.06
-6.64
-8.43
-10.48
-12.69
-14.93
-16.99
-18.72
-20.07
-21.08
-21.84
-22.48
-23.13
-23.87
-24.67
-25.37
-25.62
-24.95
-22.92
-19.26
-14.08
-7.83
-1.27
4.78
9.64
12.92
14.49
14.50
13.24
11.13
8.65
6.31
4.54
3.63
3.68
4.56
6.01
7.73
9.45
11.00
12.24
13.08
13.49
13.50
13.18
12.69
12.19
11.81
11.62
11.63
11.78
11.98
12.07
11.92
11.40
10.45
9.08
7.42
5.62
3.84
2.18
0.65
-0.82
-2.38
-4.21
-6.49
-9.28
-12.46
-15.72
-18.61
-20.66
-21.56
-21.26
-19.94
-17.97
-15.78
-13.74
-12.08
-10.91
-10.18
-9.72
-9.30
-8.73
-7.84
-6.58
-5.01
-3.24
-1.41
0.35
1.93
3.24
4.32
5.25
6.21
7.36
8.73
10.20
11.50
12.36
12.71
12.65
12.51
12.60
13.11
14.01
15.06
15.93
16.29
15.90
14.62
12.43
9.42
5.85
2.04
-1.61
-4.79
-7.36
-9.39
-11.10
-12.70
-14.33
-15.90
-17.17
-17.79
-17.50
-16.16
-13.86
-10.81
-7.34
-3.84
-0.64
1.97
3.82
4.92
5.38
5.41
5.22
4.94
4.67
4.46
4.33
4.34
4.51
4.81
5.19
5.55
5.82
5.97
6.03
6.04
5.99
5.83
5.47
4.84
3.94
2.86
1.76
0.77
-0.07
-0.84
-1.69
-2.78
-4.12
-5.57
-6.93
-7.96
-8.57
-8.76
-8.65
-8.39
-8.12
-7.92
-7.87
-8.04
-8.41
-8.87
-9.17
-9.02
-8.15
-6.41
-3.82
-0.58
2.96
6.41
9.42
11.77
13.38
14.33
14.75
14.79
14.47
13.80
12.72
11.30
9.70
8.18
6.94
6.07
5.47
4.96
4.40
3.78
3.20
2.81
2.68
2.76
2.90
2.93
2.78
2.43
1.95
1.47
1.08
0.88
0.89
1.09
1.35
1.49
1.34
0.76
-0.26
-1.65
-3.31
-5.05
-6.74
-8.24
-9.48
-10.49
-11.39
-12.38
-13.55
-14.85
-15.98
-16.51
-16.06
-14.44
-11.75
-8.33
-4.63
-1.03
2.21
4.98
7.24
9.00
10.24
10.95
11.23
11.22
11.18
11.39
12.07
13.31
15.02
16.99
18.94
20.64
21.93
22.71
22.96
22.64
21.71
20.21
18.21
15.86
13.36
10.88
8.53
6.32
4.18
2.05
-0.08
-2.13
-3.90
-5.16
-5.70
-5.41
-4.26
-2.30
0.32
3.38
6.52
9.31
11.23
11.89
11.09
9.01
6.10
3.03
0.36
-1.59
-2.82
-3.63
-4.36
-5.29
-6.45
-7.80
-9.19
-10.58
-11.98
-13.43
-14.90
-16.27
-17.34
-17.92
-17.90
-17.25
-16.03
-14.33
-12.30
-10.09
-7.88
-5.84
-4.12
-2.82
-1.96
-1.51
-1.42
-1.69
-2.36
-3.44
-4.87
-6.45
-7.83
-8.59
-8.38
-7.06
-4.80
-2.07
0.48
2.18
2.50
1.18
-1.68
-5.63
-9.93
-13.68
-16.10
-16.80
-15.94
-14.24
-12.67
-12.04
-12.65
-14.19
-15.92
-17.01
-16.91
-15.50
-12.97
-9.71
-6.09
-2.45
0.89
3.61
5.41
6.16
5.94
5.06
3.96
3.08
2.75
3.12
4.12
5.52
6.97
8.09
8.56
8.23
7.17
5.60
3.83
2.08
0.48
-0.96
-2.27
-3.50
-4.65
-5.72
-6.74
-7.69
-8.50
-9.08
-9.29
-9.05
-8.36
-7.31
-6.02
-4.60
-3.13
-1.68
-0.33
0.78
1.52
1.81
1.63
1.08
0.24
-0.86
-2.19
-3.71
-5.21
-6.36
-6.78
-6.21
-4.63
-2.26
0.45
3.05
5.23
6.83
7.83
8.25
8.12
7.43
6.20
4.58
2.81
1.16
-0.12
-0.87
-1.09
-0.85
-0.29
0.44
1.21
1.90
2.48
2.96
3.42
3.93
4.53
5.12
5.56
5.70
5.49
5.02
4.47
4.04
3.82
3.72
3.54
3.09
2.29
1.22
0.07
-0.96
-1.77
-2.38
-2.86
-3.30
-3.74
-4.17
-4.66
-5.31
-6.29
-7.72
-9.54
-11.45
-12.93
-13.49
-12.79
-10.78
-7.72
-4.03
-0.19
3.41
6.46
8.72
10.03
10.31
9.64
8.24
6.48
4.78
3.45
2.70
2.56
2.93
3.66
4.62
5.69
6.80
7.89
8.89
9.68
10.17
10.31
10.08
9.55
8.82
8.01
7.17
6.31
5.39
4.35
3.17
1.92
0.71
-0.33
-1.14
-1.76
-2.30
-2.88
-3.54
-4.24
-4.85
-5.24
-5.39
-5.37
-5.38
-5.60
-6.15
-7.02
-8.07
-9.08
-9.76
-9.88
-9.28
-7.92
-5.89
-3.42
-0.74
1.87
4.21
6.16
7.63
8.60
9.04
8.94
8.33
7.28
5.98
4.69
3.72
3.30
3.54
4.36
5.50
6.63
7.46
7.84
7.80
7.47
7.02
6.57
6.13
5.59
4.85
3.89
2.75
1.60
0.65
0.01
-0.28
-0.30
-0.23
-0.22
-0.42
-0.87
-1.53
-2.29
-3.01
-3.57
-3.88
-3.97
-3.93
-3.94
-4.23
-4.96
-6.19
-7.83
-9.55
-10.94
-11.56
-11.14
-9.65
-7.31
-4.50
-1.64
0.96
3.09
4.67
5.66
6.05
5.86
5.16
4.17
3.13
2.33
1.93
1.97
2.34
2.89
3.46
4.00
4.52
5.03
5.51
5.90
6.10
6.05
5.76
5.25
4.54
3.64
2.54
1.34
0.19
-0.73
-1.26
-1.44
-1.39
-1.33
-1.43
-1.72
-2.14
-2.55
-2.84
-2.96
-2.97
-2.95
-3.01
-3.25
-3.72
-4.48
-5.52
-6.73
-7.85
-8.53
-8.40
-7.21
-4.97
-2.00
1.22
4.18
6.53
8.18
9.23
9.80
9.95
9.56
8.52
6.79
4.57
2.22
0.18
-1.19
-1.71
-1.43
-0.56
0.60
1.73
2.52
2.75
2.36
1.49
0.42
-0.48
-0.94
-0.84
-0.24
0.70
1.75
2.75
3.55
4.07
4.24
4.03
3.45
2.57
1.52
0.43
-0.54
-1.30
-1.85
-2.22
-2.56
-2.97
-3.55
-4.30
-5.17
-6.07
-6.94
-7.70
-8.24
-8.39
-7.94
-6.74
-4.83
-2.40
0.18
2.56
4.46
5.81
6.69
7.21
7.49
7.58
7.56
7.54
7.67
8.12
9.00
10.26
11.75
13.22
14.42
15.19
15.49
15.33
14.80
13.99
12.93
11.62
10.09
8.42
6.73
5.19
3.93
3.00
2.29
1.64
0.86
-0.13
-1.28
-2.45
-3.49
-4.33
-5.01
-5.64
-6.34
-7.14
-7.98
-8.74
-9.31
-9.65
-9.79
-9.83
-9.88
-10.05
-10.36
-10.75
-11.05
-11.04
-10.48
-9.20
-7.17
-4.51
-1.47
1.62
4.46
6.84
8.65
9.90
10.66
11.01
11.04
10.84
10.53
10.20
9.99
9.94
9.98
9.95
9.67
9.06
8.21
7.35
6.77
6.65
6.97
7.52
8.00
8.09
7.63
6.54
4.88
2.70
0.11
-2.75
-5.66
-8.38
-10.67
-12.36
-13.40
-13.89
-13.94
-13.71
-13.35
-12.97
-12.69
-12.53
-12.46
-12.32
-11.92
-11.15
-10.06
-8.87
-7.91
-7.43
-7.45
-7.78
-8.03
-7.84
-6.95
-5.32
-3.11
-0.56
2.05
4.44
6.42
7.85
8.65
8.86
8.56
7.89
7.02
6.08
5.17
4.36
3.72
3.29
3.09
3.09
3.20
3.28
3.20
2.87
2.28
1.48
0.57
-0.39
-1.34
-2.28
-3.21
-4.12
-4.97
-5.67
-6.17
-6.39
-6.35
-6.11
-5.78
-5.46
-5.23
-5.06
-4.94
-4.82
-4.70
-4.61
-4.61
-4.74
-5.01
-5.41
-5.89
-6.43
-7.01
-7.59
-8.10
-8.43
-8.44
-8.01
-7.04
-5.53
-3.60
-1.48
0.54
2.20
3.35
3.99
4.28
4.42
4.55
4.69
4.75
4.59
4.15
3.52
2.90
2.53
2.58
3.05
3.84
4.74
5.59
6.25
6.62
6.65
6.31
5.61
4.66
3.60
2.59
1.77
1.23
0.96
0.90
0.93
0.95
0.86
0.64
0.31
-0.06
-0.39
-0.68
-0.93
-1.21
-1.53
-1.89
-2.27
-2.69
-3.23
-4.02
-5.13
-6.50
-7.91
-9.00
-9.46
-9.09
-7.93
-6.22
-4.26
-2.32
-0.59
0.90
2.13
3.08
3.71
3.95
3.81
3.32
2.64
1.89
1.21
0.70
0.45
0.55
1.02
1.83
2.82
3.80
4.56
4.96
5.00
4.77
4.37
3.92
3.50
3.16
2.90
2.70
2.51
2.27
1.95
1.56
1.14
0.75
0.41
0.11
-0.18
-0.49
-0.82
-1.16
-1.50
-1.89
-2.33
-2.85
-3.42
-4.02
-4.68
-5.43
-6.33
-7.39
-8.47
-9.35
-9.76
-9.51
-8.55
-6.97
-5.02
-2.93
-0.92
0.88
2.37
3.48
4.14
4.32
4.03
3.38
2.56
1.79
1.26
1.11
1.33
1.80
2.35
2.80
3.08
3.22
3.33
3.51
3.76
3.98
3.99
3.67
3.06
2.29
1.61
1.16
0.96
0.86
0.69
0.33
-0.18
-0.71
-1.05
-1.11
-0.94
-0.75
-0.84
-1.46
-2.65
-4.29
-6.10
-7.76
-9.03
-9.80
-10.01
-9.60
-8.51
-6.72
-4.30
-1.48
1.37
3.89
5.77
6.87
7.18
6.83
5.97
4.80
3.51
2.24
1.06
0.03
-0.84
-1.48
-1.81
-1.71
-1.16
-0.22
0.91
2.01
2.89
3.44
3.69
3.69
3.51
3.18
2.71
2.12
1.45
0.78
0.17
-0.36
-0.85
-1.33
-1.85
-2.36
-2.82
-3.14
-3.33
-3.48
-3.77
-4.35
-5.24
-6.31
-7.24
-7.69
-7.40
-6.32
-4.57
-2.43
-0.25
1.68
3.16
4.07
4.43
4.29
3.77
2.99
2.09
1.22
0.51
0.09
0.05
0.39
1.03
1.83
2.60
3.19
3.55
3.68
3.64
3.47
3.20
2.83
2.35
1.80
1.20
0.59
0.01
-0.52
-0.96
-1.29
-1.46
-1.51
-1.47
-1.45
-1.56
-1.90
-2.49
-3.31
-4.25
-5.15
-5.78
-5.92
-5.39
-4.18
-2.45
-0.52
1.28
2.74
3.86
4.85
5.93
7.16
8.35
9.12
9.13
8.30
6.91
5.49
4.60
4.51
5.10
5.93
6.42
6.15
4.90
2.67
-0.38
-4.06
-8.07
-12.00
-15.25
-17.14
-17.11
-14.91
-10.79
-5.39
0.58
6.73
13.19
20.35
28.35
36.59
43.55
47.29
46.27
40.07
29.81
17.63
5.91
-3.73
-10.78
-15.79
-19.62
-22.85
-25.46
-26.99
-27.07
-25.86
-24.19
-23.10
-23.19
-24.08
-24.44
-22.70
-18.00
-10.80
-2.81
3.95
8.20
10.06
10.81
11.93
14.09
16.74
18.55
18.39
16.09
12.54
9.10
6.71
5.33
4.13
2.09
-1.30
-5.76
-10.42
-14.32
-16.88
-18.05
-18.20
-17.86
-17.47
-17.31
-17.43
-17.71
-17.97
-18.05
-17.86
-17.44
-16.85
-16.09
-14.99
-13.21
-10.53
-7.02
-3.12
0.49
3.26
5.07
6.23
7.33
8.82
10.80
13.01
15.02
16.55
17.52
18.11
18.47
18.68
18.72
18.57
18.23
17.79
17.33
16.89
16.47
16.10
15.75
15.34
14.67
13.53
11.77
9.48
6.97
4.58
2.52
0.70
-1.13
-3.22
-5.63
-8.19
-10.66
-12.89
-14.90
-16.80
-18.65
-20.32
-21.52
-21.91
-21.28
-19.62
-17.12
-14.09
-10.87
-7.69
-4.68
-1.90
0.59
2.63
4.00
4.46
3.91
2.39
0.22
-2.20
-4.48
-6.40
-7.89
-9.03
-9.97
-10.78
-11.55
-12.34
-13.22
-14.14
-14.87
-14.91
-13.58
-10.34
-5.04
1.89
9.43
16.38
21.74
25.05
26.45
26.43
25.48
23.79
21.32
17.95
13.88
9.69
6.30
4.48
4.56
6.18
8.54
10.78
12.44
13.58
14.57
15.65
16.61
16.76
15.29
11.83
6.73
1.00
-4.15
-7.88
-10.01
-10.96
-11.33
-11.52
-11.48
-10.96
-9.82
-8.24
-6.80
-6.11
-6.48
-7.73
-9.26
-10.40
-10.70
-10.13
-9.00
-7.71
-6.58
-5.74
-5.19
-4.94
-5.02
-5.45
-6.16
-7.05
-7.97
-8.87
-9.76
-10.60
-11.22
-11.30
-10.49
-8.62
-5.74
-2.11
1.99
6.33
10.75
15.06
19.07
22.72
26.22
30.10
34.95
41.04
48.02
54.99
60.92
65.14
67.65
68.92
69.49
69.49
68.58
66.24
62.24
56.86
50.79
44.79
39.28
34.31
29.68
25.25
21.11
17.50
14.64
12.47
10.63
8.51
5.51
1.24
-4.33
-10.83
-17.61
-23.93
-29.21
-33.21
-36.06
-38.15
-39.85
-41.28
-42.25
-42.36
-41.30
-39.08
-36.05
-32.74
-29.67
-27.17
-25.31
-24.08
-23.44
-23.40
-23.93
-24.87
-25.85
-26.39
-26.01
-24.45
-21.71
-18.11
-14.10
-10.14
-6.57
-3.54
-1.00
1.20
3.19
5.05
6.68
7.92
8.61
8.72
8.38
7.85
7.37
7.12
7.15
7.39
7.83
8.48
9.45
10.81
12.59
14.63
16.70
18.60
20.20
21.49
22.39
22.56
21.41
18.19
12.46
4.37
-5.28
-15.29
-24.54
-32.44
-38.91
-44.21
-48.58
-52.02
-54.36
-55.44
-55.28
-54.04
-51.90
-49.05
-45.67
-42.20
-39.31
-37.83
-38.37
-41.01
-45.09
-49.44
-52.57
-53.07
-49.80
-42.15
-30.23
-15.12
1.22
16.33
27.88
34.45
35.95
33.65
29.61
25.91
24.02
24.38
26.57
29.60
32.40
34.12
34.28
32.77
29.78
25.65
20.78
15.57
10.38
5.58
1.49
-1.76
-4.24
-6.31
-8.45
-10.97
-13.85
-16.62
-18.60
-19.26
-18.58
-17.13
-15.85
-15.55
-16.52
-18.38
-20.37
-21.69
-21.92
-21.09
-19.58
-17.81
-16.09
-14.53
-13.10
-11.79
-10.55
-9.30
-7.87
-6.02
-3.59
-0.60
2.70
5.82
8.26
9.66
9.89
9.11
7.67
5.93
4.21
2.68
1.37
0.24
-0.75
-1.67
-2.56
-3.50
-4.60
-5.99
-7.73
-9.75
-11.77
-13.39
-14.23
-14.05
-12.89
-11.03
-8.84
-6.62
-4.49
-2.45
-0.46
1.43
3.05
4.21
4.78
4.84
4.57
4.22
3.99
3.97
4.14
4.44
4.82
5.22
5.67
6.17
6.73
7.37
8.03
8.68
9.24
9.68
9.95
10.01
9.82
9.35
8.60
7.65
6.64
5.72
4.95
4.29
3.63
2.88
2.04
1.17
0.34
-0.51
-1.49
-2.77
-4.36
-6.05
-7.40
-7.96
-7.44
-5.88
-3.60
-1.08
1.26
3.17
4.58
5.52
6.01
6.02
5.56
4.67
3.53
2.37
1.42
0.83
0.61
0.71
1.00
1.39
1.85
2.39
3.07
3.91
4.84
5.70
6.26
6.31
5.73
4.57
3.06
1.49
0.11
-0.94
-1.67
-2.14
-2.47
-2.69
-2.88
-3.13
-3.58
-4.38
-5.65
-7.33
-9.26
-11.16
-12.71
-13.58
-13.51
-12.37
-10.16
-7.13
-3.72
-0.49
2.06
3.63
4.24
4.14
3.70
3.18
2.64
1.99
1.09
-0.12
-1.57
-3.05
-4.31
-5.14
-5.46
-5.30
-4.85
-4.33
-3.97
-3.90
-4.11
-4.51
-4.96
-5.35
-5.64
-5.82
-5.92
-5.94
-5.83
-5.60
-5.27
-4.88
-4.52
-4.26
-4.10
-4.03
-3.99
-3.86
-3.46
-2.60
-1.14
0.96
3.54
6.31
8.93
11.14
12.83
14.02
14.84
15.39
15.70
15.74
15.47
14.85
13.92
12.75
11.47
10.16
8.93
7.86
7.04
6.52
6.35
6.49
6.83
7.23
7.51
7.60
7.44
7.08
6.54
5.87
5.10
4.24
3.34
2.44
1.59
0.79
-0.02
-0.94
-2.05
-3.39
-4.87
-6.33
-7.52
-8.23
-8.31
-7.71
-6.51
-4.84
-2.92
-0.95
0.88
2.37
3.43
3.97
4.00
3.58
2.80
1.79
0.72
-0.19
-0.74
-0.77
-0.27
0.60
1.56
2.33
2.71
2.70
2.45
2.17
2.03
2.06
2.21
2.34
2.35
2.16
1.78
1.21
0.48
-0.42
-1.46
-2.62
-3.88
-5.19
-6.55
-7.90
-9.16
-10.17
-10.72
-10.62
-9.75
-8.14
-5.95
-3.41
-0.78
1.71
3.89
5.61
6.72
7.14
6.84
5.97
4.77
3.56
2.59
2.00
1.80
1.90
2.23
2.72
3.31
3.94
4.49
4.87
5.03
5.02
4.95
4.89
4.84
4.69
4.28
3.50
2.37
1.03
-0.30
-1.45
-2.36
-3.13
-3.93
-4.90
-6.12
-7.53
-8.98
-10.30
-11.25
-11.66
-11.39
-10.39
-8.64
-6.28
-3.50
-0.60
2.11
4.36
5.94
6.76
6.85
6.32
5.36
4.19
3.06
2.18
1.71
1.73
2.22
3.05
4.02
4.90
5.54
5.92
6.09
6.16
6.19
6.17
6.00
5.57
4.84
3.84
2.69
1.50
0.36
-0.73
-1.80
-2.93
-4.14
-5.43
-6.75
-8.04
-9.23
-10.22
-10.88
-11.06
-10.61
-9.41
-7.48
-4.95
-2.05
0.91
3.64
5.87
7.46
8.32
8.50
8.08
7.22
6.08
4.86
3.71
2.74
2.04
1.64
1.57
1.81
2.31
2.98
3.69
4.34
4.80
5.02
4.93
4.57
3.99
3.28
2.57
1.95
1.47
1.11
0.78
0.40
-0.13
-0.77
-1.45
-2.08
-2.64
-3.22
-3.99
-5.08
-6.50
-8.00
-9.19
-9.66
-9.18
-7.74
-5.57
-3.04
-0.46
1.94
4.03
5.74
6.99
7.74
7.98
7.77
7.25
6.63
6.09
5.77
5.74
6.00
6.47
7.08
7.68
8.09
8.09
7.49
6.24
4.45
2.42
0.50
-1.04
-2.13
-2.90
-3.56
-4.31
-5.21
-6.16
-6.99
-7.57
-7.85
-7.94
-7.99
-8.16
-8.54
-9.15
-9.95
-10.85
-11.75
-12.54
-13.04
-13.06
-12.40
-10.91
-8.64
-5.81
-2.79
0.00
2.30
4.02
5.24
6.10
6.70
7.05
7.09
6.84
6.41
6.03
5.95
6.35
7.23
8.44
9.72
10.85
11.74
12.42
13.03
13.71
14.54
15.48
16.44
17.34
18.15
18.91
19.65
20.39
21.07
21.60
21.87
21.81
21.44
20.87
20.27
19.80
19.53
19.34
18.94
17.91
15.81
12.38
7.60
1.73
-4.73
-11.18
-16.98
-21.59
-24.63
-26.01
-25.92
-24.84
-23.39
-22.16
-21.49
-21.43
-21.71
-21.89
-21.50
-20.24
-18.03
-15.01
-11.45
-7.63
-3.68
0.41
4.80
9.62
14.95
20.71
26.71
32.72
38.48
43.70
48.01
50.96
52.15
51.35
48.63
44.45
39.48
34.44
29.83
25.87
22.50
19.45
16.48
13.48
10.44
7.43
4.47
1.51
-1.59
-4.92
-8.47
-12.05
-15.44
-18.38
-20.70
-22.25
-22.89
-22.43
-20.74
-17.80
-13.81
-9.18
-4.40
0.01
3.53
5.70
6.11
4.50
0.90
-4.27
-10.27
-16.25
-21.44
-25.36
-27.89
-29.17
-29.58
-29.56
-29.55
-29.76
-30.13
-30.32
-29.90
-28.56
-26.35
-23.56
-20.64
-17.86
-15.32
-12.94
-10.74
-8.89
-7.63
-7.04
-6.86
-6.48
-5.25
-2.81
0.66
4.44
7.52
9.01
8.51
6.21
2.79
-0.91
-4.30
-7.31
-10.28
-13.65
-17.56
-21.66
-25.19
-27.46
-28.14
-27.46
-25.98
-24.18
-22.21
-19.87
-16.98
-13.60
-10.16
-7.21
-4.96
-3.11
-1.05
1.77
5.35
9.15
12.34
14.39
15.33
15.70
16.17
17.15
18.54
19.92
20.84
21.11
20.85
20.39
19.97
19.66
19.28
18.63
17.59
16.25
14.88
13.81
13.31
13.40
13.88
14.34
14.36
13.60
12.00
9.69
6.94
4.01
1.10
-1.68
-4.20
-6.24
-7.53
-7.80
-7.00
-5.33
-3.31
-1.57
-0.69
-1.05
-2.73
-5.58
-9.24
-13.12
-16.40
-18.11
-17.48
-14.31
-9.17
-3.32
1.78
5.09
6.43
6.45
6.17
6.39
7.33
8.62
9.67
10.10
9.99
9.76
9.91
10.64
11.82
13.15
14.39
15.55
16.82
18.39
20.23
22.03
23.30
23.64
22.87
21.12
18.70
15.94
13.05
10.10
7.11
4.20
1.61
-0.37
-1.52
-1.85
-1.67
-1.49
-1.85
-3.03
-4.99
-7.41
-9.84
-11.95
-13.64
-15.01
-16.20
-17.23
-17.90
-17.87
-16.83
-14.59
-11.17
-6.81
-1.87
3.25
8.16
12.55
16.22
19.12
21.33
23.02
24.36
25.45
26.31
26.87
27.01
26.62
25.62
23.95
21.59
18.56
14.94
10.90
6.67
2.47
-1.52
-5.25
-8.81
-12.32
-15.85
-19.40
-22.78
-25.76
-28.07
-29.49
-29.89
-29.22
-27.62
-25.36
-22.82
-20.43
-18.51
-17.17
-16.32
-15.75
-15.27
-14.86
-14.63
-14.71
-15.16
-15.87
-16.61
-17.13
-17.26
-16.95
-16.24
-15.16
-13.68
-11.74
-9.31
-6.49
-3.52
-0.75
1.50
3.02
3.83
4.14
4.30
4.60
5.21
6.10
7.10
7.96
8.45
8.41
7.80
6.65
5.08
3.33
1.69
0.51
0.09
0.52
1.67
3.19
4.66
5.74
6.26
6.26
5.89
5.33
4.67
3.90
3.03
2.07
1.16
0.50
0.32
0.78
1.89
3.50
5.27
6.84
7.90
8.35
8.32
8.12
8.11
8.63
9.86
11.84
14.44
17.46
20.68
23.88
26.87
29.51
31.71
33.41
34.60
35.28
35.47
35.20
34.52
33.52
32.28
30.88
29.40
27.78
25.88
23.43
20.19
16.07
11.31
6.49
2.33
-0.55
-1.97
-2.27
-2.16
-2.48
-3.89
-6.66
-10.71
-15.72
-21.22
-26.70
-31.61
-35.40
-37.61
-38.00
-36.70
-34.19
-31.22
-28.51
-26.52
-25.25
-24.28
-22.96
-20.71
-17.22
-12.61
-7.26
-1.69
3.67
8.52
12.62
15.67
17.30
17.17
15.19
11.68
7.33
3.05
-0.37
-2.57
-3.60
-3.81
-3.62
-3.32
-3.04
-2.89
-3.02
-3.56
-4.59
-5.97
-7.44
-8.71
-9.68
-10.47
-11.33
-12.47
-13.89
-15.45
-16.97
-18.38
-19.76
-21.29
-23.10
-25.19
-27.46
-29.71
-31.73
-33.26
-33.99
-33.58
-31.70
-28.23
-23.28
-17.31
-10.98
-5.05
-0.15
3.35
5.40
6.20
6.09
5.42
4.42
3.29
2.13
1.15
0.51
0.38
0.76
1.50
2.31
2.87
2.92
2.37
1.23
-0.37
-2.30
-4.38
-6.45
-8.31
-9.78
-10.79
-11.39
-11.81
-12.34
-13.25
-14.66
-16.53
-18.65
-20.75
-22.63
-24.11
-25.09
-25.47
-25.20
-24.28
-22.85
-21.14
-19.39
-17.73
-16.10
-14.30
-12.17
-9.70
-7.11
-4.82
-3.18
-2.36
-2.21
-2.36
-2.36
-1.87
-0.76
0.89
2.89
5.02
7.18
9.35
11.54
13.71
15.78
17.64
19.16
20.27
20.98
21.34
21.42
21.28
20.99
20.71
20.71
21.35
22.96
25.71
29.46
33.73
37.80
40.95
42.66
42.79
41.56
39.41
36.84
34.17
31.54
28.94
26.27
23.46
20.42
17.04
13.15
8.58
3.27
-2.63
-8.67
-14.20
-18.60
-21.53
-23.04
-23.61
-23.87
-24.33
-25.18
-26.27
-27.28
-27.98
-28.31
-28.39
-28.38
-28.21
-27.68
-26.45
-24.32
-21.31
-17.70
-13.87
-10.18
-6.84
-3.96
-1.59
0.30
1.74
2.87
3.92
5.17
6.85
9.09
11.87
15.01
18.25
21.33
23.99
26.07
27.56
28.53
29.17
29.73
30.36
31.10
31.85
32.38
32.40
31.64
29.92
27.21
23.69
19.63
15.41
11.35
7.73
4.73
2.39
0.71
-0.44
-1.21
-1.78
-2.26
-2.75
-3.27
-3.88
-4.58
-5.35
-6.09
-6.59
-6.60
-5.96
-4.71
-3.11
-1.53
-0.29
0.46
0.80
0.96
1.19
1.64
2.29
3.01
3.62
3.93
3.86
3.36
2.42
1.02
-0.95
-3.64
-7.19
-11.68
-16.93
-22.53
-27.76
-31.83
-34.02
-33.98
-31.77
-27.91
-23.26
-18.79
-15.44
-13.85
-14.29
-16.50
-19.71
-22.86
-24.86
-24.96
-22.99
-19.36
-14.90
-10.43
-6.51
-3.28
-0.53
2.09
4.90
8.00
11.34
14.72
17.88
20.56
22.53
23.64
23.84
23.18
21.85
20.06
18.10
16.23
14.61
13.34
12.39
11.62
10.84
9.85
8.53
6.92
5.19
3.58
2.28
1.28
0.43
-0.54
-1.81
-3.32
-4.81
-5.88
-6.17
-5.48
-3.85
-1.54
1.16
3.96
6.62
9.01
11.01
12.53
13.51
13.88
13.64
12.87
11.73
10.45
9.33
8.63
8.50
8.89
9.52
10.00
9.88
8.83
6.72
3.60
-0.34
-4.84
-9.65
-14.55
-19.33
-23.81
-27.88
-31.51
-34.71
-37.51
-39.84
-41.50
-42.25
-41.93
-40.58
-38.50
-36.13
-33.81
-31.66
-29.52
-27.15
-24.46
-21.66
-19.19
-17.51
-16.82
-16.95
-17.40
-17.60
-17.10
-15.67
-13.24
-9.75
-5.18
0.46
6.90
13.63
19.96
25.26
29.09
31.35
32.08
31.42
29.48
26.43
22.54
18.33
14.45
11.49
9.83
9.48
10.18
11.52
13.12
14.73
16.19
17.45
18.42
19.04
19.21
18.92
18.20
17.15
15.92
14.64
13.41
12.31
11.41
10.78
10.51
10.65
11.17
11.94
12.73
13.29
13.41
12.98
12.07
10.84
9.52
8.31
7.35
6.76
6.65
7.15
8.28
9.89
11.57
12.74
12.77
11.35
8.51
4.67
0.40
-3.91
-8.15
-12.50
-17.15
-22.15
-27.21
-31.85
-35.59
-38.14
-39.41
-39.41
-38.08
-35.21
-30.61
-24.25
-16.54
-8.28
-0.54
5.75
10.08
12.41
13.09
12.61
11.46
10.00
8.50
7.17
6.15
5.51
5.19
5.08
5.05
5.00
4.81
4.34
3.38
1.69
-0.88
-4.24
-8.08
-11.86
-14.98
-16.96
-17.53
-16.70
-14.72
-11.99
-8.98
-6.04
-3.38
-1.04
1.07
2.99
4.68
5.93
6.49
6.15
4.88
2.82
0.33
-2.18
-4.34
-5.87
-6.62
-6.53
-5.61
-3.97
-1.86
0.36
2.27
3.54
4.03
3.80
3.10
2.23
1.42
0.78
0.30
-0.16
-0.80
-1.80
-3.23
-5.07
-7.14
-9.22
-11.14
-12.88
-14.53
-16.21
-17.92
-19.46
-20.48
-20.60
-19.65
-17.69
-15.05
-12.16
-9.39
-7.01
-5.08
-3.53
-2.26
-1.11
0.07
1.41
3.02
4.97
7.21
9.60
11.92
13.92
15.46
16.49
17.10
17.45
17.69
17.86
17.93
17.80
17.40
16.73
15.85
14.86
13.79
12.64
11.34
9.92
8.49
7.23
6.33
5.85
5.71
5.76
5.83
5.76
5.40
4.58
3.15
1.08
-1.37
-3.70
-5.28
-5.61
-4.66
-2.83
-0.85
0.65
1.40
1.59
1.71
2.27
3.62
5.81
8.70
12.01
15.45
18.65
21.21
22.70
22.77
21.20
18.08
13.79
8.89
4.01
-0.33
-3.86
-6.53
-8.42
-9.69
-10.45
-10.76
-10.68
-10.30
-9.73
-9.05
-8.29
-7.41
-6.33
-5.02
-3.50
-1.81
0.01
1.98
4.09
6.31
8.58
10.77
12.74
14.42
15.72
16.55
16.78
16.29
15.04
13.16
10.96
8.81
7.06
5.89
5.30
5.12
5.10
5.02
4.69
4.01
2.93
1.41
-0.55
-2.91
-5.51
-8.10
-10.33
-11.91
-12.70
-12.87
-12.82
-13.06
-13.99
-15.73
-18.09
-20.61
-22.79
-24.25
-24.88
-24.80
-24.22
-23.37
-22.39
-21.33
-20.17
-18.92
-17.59
-16.17
-14.56
-12.63
-10.28
-7.50
-4.47
-1.46
1.22
3.37
4.87
5.70
5.81
5.13
3.59
1.21
-1.88
-5.42
-9.09
-12.60
-15.67
-18.06
-19.52
-19.84
-18.93
-16.94
-14.25
-11.43
-8.97
-7.20
-6.14
-5.61
-5.33
-5.16
-5.07
-5.12
-5.30
-5.46
-5.35
-4.70
-3.45
-1.80
-0.14
1.05
1.52
1.24
0.42
-0.64
-1.69
-2.60
-3.37
-4.06
-4.68
-5.22
-5.69
-6.16
-6.76
-7.64
-8.84
-10.16
-11.18
-11.36
-10.24
-7.56
-3.43
1.80
7.56
13.24
18.27
22.22
24.84
26.10
26.14
25.21
23.49
21.01
17.71
13.51
8.53
3.24
-1.61
-5.17
-6.84
-6.48
-4.46
-1.49
1.65
4.44
6.74
8.71
10.62
12.59
14.45
15.75
16.01
14.98
12.83
10.12
7.60
5.90
5.32
5.74
6.77
7.93
8.91
9.58
10.01
10.32
10.59
10.83
10.95
10.84
10.36
9.49
8.34
7.16
6.29
6.02
6.40
7.19
7.93
8.12
7.48
6.11
4.38
2.82
1.78
1.37
1.37
1.41
1.18
0.51
-0.58
-1.93
-3.39
-4.88
-6.48
-8.32
-10.49
-12.95
-15.45
-17.57
-18.89
-19.12
-18.23
-16.45
-14.16
-11.75
-9.53
-7.66
-6.22
-5.24
-4.78
-4.89
-5.56
-6.64
-7.86
-8.89
-9.39
-9.14
-8.12
-6.47
-4.48
-2.42
-0.53
1.09
2.44
3.53
4.35
4.89
5.12
5.09
4.88
4.60
4.35
4.16
3.99
3.78
3.50
3.14
2.73
2.26
1.74
1.16
0.55
-0.01
-0.43
-0.62
-0.58
-0.38
-0.16
-0.06
-0.16
-0.47
-0.90
-1.33
-1.63
-1.66
-1.38
-0.73
0.27
1.60
3.17
4.90
6.63
8.15
9.25
9.78
9.64
8.90
7.72
6.35
5.07
4.09
3.59
3.62
4.15
5.09
6.26
7.47
8.49
9.15
9.38
9.27
8.99
8.78
8.78
9.00
9.32
9.59
9.72
9.78
9.93
10.36
11.12
12.15
13.28
14.39
15.43
16.43
17.44
18.45
19.35
19.96
20.16
19.88
19.18
18.19
16.96
15.45
13.49
10.87
7.48
3.44
-0.84
-4.72
-7.53
-8.70
-7.98
-5.50
-1.79
2.38
6.20
9.02
10.54
10.75
9.94
8.45
6.60
4.59
2.56
0.61
-1.16
-2.66
-3.92
-5.04
-6.18
-7.48
-8.94
-10.51
-12.10
-13.71
-15.44
-17.49
-20.03
-23.08
-26.45
-29.68
-32.16
-33.23
-32.42
-29.64
-25.20
-19.79
-14.25
-9.35
-5.56
-3.08
-1.84
-1.60
-2.10
-3.03
-4.11
-5.11
-5.90
-6.52
-7.14
-8.03
-9.41
-11.29
-13.45
-15.45
-16.71
-16.80
-15.49
-12.94
-9.59
-6.06
-2.94
-0.61
0.74
1.09
0.47
-1.09
-3.54
-6.65
-9.99
-12.92
-14.80
-15.21
-14.15
-11.95
-9.22
-6.51
-4.14
-2.14
-0.32
1.57
3.60
5.68
7.52
8.90
9.70
9.98
9.94
9.74
9.46
8.99
8.14
6.73
4.66
2.01
-1.01
-4.11
-7.00
-9.47
-11.46
-13.07
-14.53
-16.09
-17.91
-20.02
-22.34
-24.65
-26.68
-28.12
-28.67
-28.05
-26.08
-22.77
-18.33
-13.21
-7.96
-3.10
1.02
4.33
6.96
9.23
11.40
13.60
15.76
17.66
19.08
19.92
20.30
20.46
20.67
21.06
21.53
21.85
21.72
21.00
19.71
18.03
16.16
14.21
12.15
9.86
7.23
4.27
1.14
-1.86
-4.48
-6.55
-8.11
-9.31
-10.34
-11.38
-12.56
-13.90
-15.43
-17.10
-18.82
-20.38
-21.45
-21.71
-20.91
-18.98
-16.11
-12.61
-8.88
-5.23
-1.87
1.08
3.54
5.41
6.64
7.27
7.43
7.37
7.38
7.69
8.38
9.37
10.46
11.39
11.93
11.94
11.40
10.44
9.26
8.10
7.11
6.39
5.93
5.66
5.50
5.44
5.49
5.69
6.02
6.36
6.55
6.43
5.86
4.78
3.20
1.18
-1.18
-3.77
-6.42
-8.86
-10.82
-12.03
-12.37
-11.90
-10.91
-9.73
-8.62
-7.66
-6.73
-5.64
-4.35
-2.95
-1.74
-0.94
-0.65
-0.70
-0.81
-0.64
0.03
1.31
3.24
5.77
8.82
12.24
15.77
19.12
22.04
24.38
26.12
27.34
28.14
28.56
28.59
28.21
27.43
26.35
25.08
23.72
22.32
20.77
18.92
16.56
13.60
10.05
6.04
1.72
-2.76
-7.29
-11.71
-15.74
-18.92
-20.74
-20.81
-19.02
-15.65
-11.28
-6.61
-2.28
1.34
4.12
6.13
7.42
8.08
8.13
7.67
6.89
6.10
5.64
5.67
6.16
6.83
7.32
7.32
6.74
5.63
4.13
2.35
0.32
-1.92
-4.25
-6.41
-8.11
-9.09
-9.28
-8.83
-8.02
-7.17
-6.51
-6.17
-6.17
-6.51
-7.15
-8.04
-9.13
-10.31
-11.54
-12.78
-14.02
-15.26
-16.48
-17.63
-18.62
-19.34
-19.63
-19.34
-18.34
-16.57
-14.18
-11.44
-8.76
-6.51
-4.94
-4.05
-3.62
-3.29
-2.75
-1.84
-0.60
0.85
2.33
3.77
5.14
6.49
7.81
9.10
10.37
11.66
13.05
14.62
16.37
18.23
20.04
21.61
22.83
23.63
23.99
23.90
23.35
22.30
20.73
18.62
16.06
13.17
10.22
7.48
5.19
3.43
2.07
0.81
-0.69
-2.69
-5.26
-8.26
-11.39
-14.25
-16.49
-17.84
-18.12
-17.38
-15.77
-13.60
-11.23
-8.98
-7.03
-5.39
-3.99
-2.75
-1.78
-1.35
-1.81
-3.43
-6.25
-9.94
-13.92
-17.47
-19.97
-20.99
-20.32
-17.96
-14.06
-8.93
-3.04
3.03
8.63
13.23
16.52
18.50
19.41
19.63
19.50
19.22
18.81
18.15
17.12
15.65
13.79
11.67
9.41
7.15
4.92
2.75
0.60
-1.57
-3.77
-5.96
-8.02
-9.76
-11.03
-11.69
-11.70
-11.08
-9.93
-8.33
-6.27
-3.62
-0.19
4.15
9.35
15.09
20.82
25.84
29.55
31.56
31.81
30.60
28.46
25.94
23.50
21.32
19.31
17.09
14.10
9.82
3.97
-3.24
-11.11
-18.51
-24.18
-27.14
-26.95
-23.87
-18.77
-12.81
-7.08
-2.37
1.01
3.05
3.96
4.01
3.45
2.51
1.40
0.34
-0.41
-0.63
-0.21
0.85
2.35
4.00
5.55
6.87
7.93
8.78
9.36
9.46
8.85
7.46
5.57
3.78
2.76
2.98
4.43
6.67
9.09
11.18
12.73
13.78
14.49
14.94
15.03
14.57
13.46
11.76
9.75
7.73
5.88
4.15
2.28
0.07
-2.35
-4.43
-5.37
-4.55
-1.85
2.05
6.04
8.97
10.15
9.55
7.57
4.82
1.72
-1.48
-4.64
-7.56
-9.97
-11.69
-12.72
-13.35
-13.94
-14.78
-15.81
-16.67
-16.87
-16.01
-13.94
-10.87
-7.32
-3.95
-1.41
-0.12
-0.14
-1.11
-2.43
-3.45
-3.72
-3.13
-1.87
-0.32
1.16
2.29
2.82
2.52
1.10
-1.65
-5.71
-10.73
-16.05
-20.84
-24.41
-26.37
-26.72
-25.78
-24.02
-21.87
-19.61
-17.27
-14.77
-12.01
-9.05
-6.15
-3.74
-2.21
-1.75
-2.20
-3.12
-3.93
-4.16
-3.58
-2.25
-0.42
1.50
3.12
4.10
4.22
3.39
1.73
-0.55
-3.14
-5.76
-8.20
-10.32
-12.09
-13.49
-14.53
-15.22
-15.56
-15.56
-15.20
-14.50
-13.47
-12.15
-10.60
-8.87
-6.99
-4.97
-2.81
-0.55
1.76
4.05
6.29
8.51
10.79
13.19
15.69
18.15
20.40
22.29
23.72
24.69
25.23
25.47
25.57
25.70
26.00
26.46
26.83
26.63
25.36
22.69
18.72
13.97
9.24
5.30
2.61
1.24
0.92
1.32
2.17
3.38
4.94
6.77
8.68
10.31
11.24
11.19
10.03
7.95
5.27
2.46
-0.05
-1.91
-2.94
-3.08
-2.42
-1.17
0.40
1.93
3.16
3.90
4.14
3.96
3.51
2.88
2.08
1.02
-0.32
-1.85
-3.33
-4.45
-4.92
-4.59
-3.50
-1.83
0.07
1.72
2.55
1.87
-0.89
-5.98
-13.04
-21.08
-28.56
-33.81
-35.46
-32.80
-25.87
-15.42
-2.62
11.17
24.62
36.56
46.07
52.57
55.92
56.44
54.84
51.93
48.39
44.53
40.32
35.52
30.00
23.94
17.94
12.80
9.22
7.48
7.24
7.64
7.56
6.11
2.93
-1.72
-7.12
-12.45
-17.07
-20.71
-23.30
-24.89
-25.52
-25.26
-24.38
-23.41
-23.03
-23.89
-26.26
-29.92
-34.24
-38.39
-41.66
-43.63
-44.14
-43.17
-40.69
-36.72
-31.28
-24.65
-17.33
-10.00
-3.41
1.80
5.25
6.82
6.69
5.20
2.90
0.46
-1.38
-2.03
-1.17
1.06
4.07
7.02
9.12
9.95
9.65
8.80
8.18
8.38
9.54
11.36
13.25
14.65
15.30
15.27
14.82
14.21
13.54
12.75
11.72
10.43
9.02
7.77
6.98
6.84
7.31
8.22
9.28
10.30
11.21
12.00
12.64
12.92
12.49
10.93
8.00
3.77
-1.36
-6.77
-11.87
-16.28
-19.97
-23.16
-26.13
-29.05
-31.83
-34.23
-35.96
-36.79
-36.63
-35.53
-33.57
-30.83
-27.41
-23.46
-19.29
-15.34
-12.12
-10.06
-9.39
-10.02
-11.63
-13.75
-15.90
-17.76
-19.17
-20.15
-20.75
-20.99
-20.74
-19.81
-18.04
-15.43
-12.18
-8.67
-5.31
-2.45
-0.32
1.05
1.72
1.86
1.66
1.31
0.95
0.66
0.44
0.24
-0.07
-0.60
-1.50
-2.83
-4.58
-6.62
-8.71
-10.54
-11.80
-12.29
-11.89
-10.63
-8.62
-6.00
-2.94
0.43
3.94
7.45
10.77
13.75
16.20
17.92
18.63
18.10
16.17
12.97
8.95
4.81
1.31
-0.98
-1.94
-1.90
-1.42
-1.07
