1718902922.00
64.000000
-0.00
-0.00
-0.00
-0.00
-0.00
-0.00
-0.00
-0.00
-0.00
-0.00
0.00
0.01
0.01
-0.00
-0.03
-0.05
-0.05
0.00
0.13
0.36
0.66
1.01
1.37
1.72
2.06
2.40
2.79
3.24
3.80
4.42
5.06
5.66
6.20
6.68
7.15
7.68
8.31
9.14
10.09
11.04
11.88
12.56
13.14
13.76
14.65
15.96
17.91
20.32
22.90
25.38
27.58
29.57
31.68
34.32
37.81
42.54
48.15
54.10
59.83
64.97
69.58
74.14
79.34
85.71
93.76
103.00
112.62
121.73
129.77
136.75
143.30
150.75
157.77
166.64
177.95
191.79
206.97
220.57
228.25
225.36
208.53
176.87
132.76
80.05
23.07
-34.94
-92.44
-149.16
-205.23
-260.37
-313.74
-363.87
-409.83
-450.91
-486.50
-515.74
-537.23
-549.22
-549.96
-538.37
-514.21
-478.67
-433.88
-382.45
-327.02
-269.84
-212.64
-156.66
-102.95
-52.37
-5.89
35.61
71.47
101.42
125.59
144.50
158.85
169.35
176.62
181.05
182.92
182.47
179.97
175.75
170.23
163.81
156.85
149.58
142.14
134.61
127.03
119.44
111.90
104.48
97.25
90.28
83.58
77.18
71.08
65.30
59.85
54.73
49.96
45.53
41.45
37.72
34.32
31.25
28.51
26.09
23.98
22.19
20.71
19.53
18.64
18.03
17.68
17.58
17.70
18.03
18.55
19.25
20.12
21.16
22.36
23.69
25.14
26.67
28.20
29.64
30.87
31.75
32.11
31.82
30.77
28.87
26.12
22.58
18.32
13.54
8.48
3.36
-1.55
-6.03
-9.90
-13.03
-15.37
-16.91
-17.71
-17.88
-17.55
-16.85
-15.92
-14.86
-13.77
-12.71
-11.71
-10.76
-9.88
-9.07
-8.29
-7.48
-6.58
-5.52
-4.19
-2.54
-0.45
2.04
4.92
8.17
11.71
15.49
19.45
23.54
27.73
32.05
36.39
40.71
45.03
49.44
54.02
58.89
64.17
70.00
76.50
83.49
90.84
98.39
106.02
113.61
121.04
128.24
135.19
141.95
148.17
153.68
158.29
161.82
164.03
164.55
162.88
158.19
152.02
144.90
137.17
129.05
120.73
112.37
104.14
96.21
88.77
82.09
76.02
70.50
65.52
61.04
57.04
53.48
50.35
47.66
45.39
43.29
41.16
38.85
36.33
33.57
30.67
27.71
24.85
22.19
19.64
17.12
14.55
11.88
9.13
6.35
3.60
0.94
-1.59
-4.11
-6.76
-9.66
-12.83
-16.20
-19.58
-22.75
-25.55
-27.98
-30.24
-32.64
-35.52
-39.01
-42.96
-47.01
-50.66
-53.57
-55.74
-57.59
-59.82
-63.16
-67.99
-74.19
-81.14
-87.99
-94.14
-99.57
-104.95
-111.40
-120.08
-131.57
-145.57
-161.14
-176.99
-192.09
-206.12
-219.55
-233.43
-249.16
-268.24
-291.92
-320.66
-353.16
-385.86
-413.12
-428.49
-426.97
-406.97
-371.14
-325.44
-276.93
-231.34
-191.72
-158.57
-131.00
-108.09
-89.43
-74.93
-64.09
-55.51
-47.06
-36.53
-22.45
-4.63
15.84
36.97
56.63
73.18
85.76
94.37
99.50
101.64
101.00
97.44
90.72
80.83
68.27
53.99
39.23
25.19
12.74
2.46
-5.48
-11.08
-14.63
-16.66
-18.01
-19.77
-23.02
-28.57
-36.53
-46.11
-55.64
-62.91
-65.77
-62.73
-53.53
-39.19
-21.76
-3.70
12.75
26.11
35.81
42.04
45.38
46.54
46.26
45.28
44.30
43.87
44.25
45.24
46.41
47.23
47.35
46.81
45.85
44.82
43.94
43.25
42.57
41.63
40.17
37.93
34.80
30.79
26.07
21.01
16.07
11.64
7.91
4.74
1.72
-1.74
-6.25
-12.29
-19.91
-28.71
-37.72
-45.61
-50.99
-52.82
-50.74
-45.13
-36.93
-27.33
-17.25
-7.26
2.48
11.86
20.53
27.79
32.74
34.62
33.19
28.89
22.80
16.29
10.66
6.76
4.96
5.16
6.97
10.01
13.92
18.39
23.06
27.47
30.94
32.78
32.48
29.92
25.51
20.15
14.87
10.70
8.26
7.58
8.10
8.63
7.73
4.12
-2.70
-11.99
-21.74
-29.02
-31.02
-25.95
-13.71
3.81
23.19
40.07
50.18
50.42
40.10
21.62
0.21
-17.57
-26.30
-23.77
-11.73
5.08
21.31
33.27
39.93
42.38
42.32
40.71
37.35
31.54
23.12
12.96
2.58
-6.87
-15.33
-23.60
-32.38
-41.21
-48.53
-52.45
-52.19
-48.80
-44.99
-43.99
-48.06
-57.69
-71.56
-87.34
-102.44
-114.52
-121.56
-121.96
-114.92
-100.85
-81.30
-58.36
-33.70
-7.97
19.06
47.84
78.29
109.60
140.63
170.03
196.41
218.18
233.54
240.90
239.79
231.49
218.97
205.92
195.14
187.37
181.20
173.77
162.19
144.43
119.84
89.00
53.53
15.86
-20.99
-53.83
-79.96
-97.86
-107.66
-110.89
-109.89
-106.91
-103.46
-100.05
-96.53
-92.63
-88.56
-85.34
-84.62
-88.09
-96.61
-109.56
-124.69
-138.64
-147.95
-150.09
-144.12
-130.89
-112.69
-92.85
-75.04
-62.44
-56.79
-57.92
-63.75
-71.13
-77.15
-80.32
-80.92
-80.50
-80.74
-82.55
-85.65
-88.98
-91.08
-90.59
-86.38
-77.65
-64.14
-46.52
-26.53
-6.79
10.01
21.99
28.76
31.38
31.78
31.99
33.45
36.78
41.94
48.45
55.52
62.19
67.41
70.24
70.25
67.71
63.67
59.72
57.63
58.88
64.23
73.30
84.63
96.05
105.60
112.58
118.06
124.64
134.96
150.05
168.22
185.43
197.06
200.07
194.47
183.10
170.11
158.98
151.24
146.54
143.60
141.52
140.27
140.61
143.16
147.63
152.53
155.65
154.98
149.69
140.36
128.69
116.69
105.66
95.76
86.13
75.57
63.37
49.62
35.13
20.80
7.09
-6.23
-19.89
-34.63
-50.70
-67.66
-84.49
-100.00
-113.19
-123.57
-131.27
-136.84
-141.00
-144.44
-147.76
-151.64
-156.91
-164.51
-175.16
-188.93
-204.65
-219.83
-231.12
-235.17
-229.76
-214.61
-191.47
-163.64
-134.92
-108.60
-86.73
-70.03
-58.13
-50.15
-45.19
-42.67
-42.27
-43.74
-46.70
-50.43
-53.94
-56.05
-55.71
-52.25
-45.66
-36.56
-26.17
-15.95
-7.28
-1.12
2.56
5.15
9.62
20.05
40.35
72.46
114.81
161.79
204.89
235.38
247.47
240.50
219.36
192.63
169.40
156.07
154.35
160.97
169.47
172.50
164.42
142.93
109.34
68.22
26.60
-6.99
-24.20
-19.16
8.87
53.89
104.02
145.01
165.63
161.90
138.11
103.94
69.17
39.24
14.00
-9.84
-34.82
-59.96
-81.00
-93.24
-94.78
-88.06
-78.68
-72.48
-72.79
-79.51
-89.74
-100.13
-108.64
-115.08
-120.33
-125.20
-129.37
-131.29
-129.07
-121.53
-109.16
-94.17
-79.84
-69.44
-65.00
-66.68
-72.82
-80.75
-87.93
-93.00
-96.09
-98.50
-101.81
-106.95
-113.74
-121.00
-127.09
-130.61
-130.69
-126.99
-119.34
-107.64
-91.89
-72.56
-50.74
-28.12
-6.55
12.45
27.96
39.71
47.75
52.32
53.60
51.91
47.86
42.43
36.88
32.39
29.65
28.67
28.75
28.88
28.18
26.32
23.63
20.79
18.48
16.91
15.65
13.82
10.48
5.13
-2.05
-10.11
-17.69
-23.47
-26.73
-27.77
-27.93
-29.25
-33.53
-41.46
-52.12
-63.10
-71.54
-75.47
-74.81
-71.47
-68.52
-68.59
-72.40
-78.17
-81.72
-77.67
-60.75
-27.66
21.47
81.99
144.82
198.26
230.88
235.10
209.90
161.65
102.42
46.30
4.53
-18.39
-26.05
-28.38
-36.95
-59.69
-97.06
-141.95
-183.00
-209.72
-216.83
-205.53
-181.46
-150.85
-117.55
-82.31
-44.28
-3.30
39.07
80.04
117.28
150.37
180.83
210.93
241.89
272.78
300.63
321.73
333.11
333.66
324.33
307.58
286.46
264.09
243.17
225.89
213.72
207.40
206.82
211.21
219.10
228.46
236.79
241.28
239.19
228.48
208.44
179.97
145.42
107.78
69.86
33.66
0.09
-30.70
-59.00
-85.31
-110.43
-135.62
-162.52
-192.61
-226.24
-262.01
-296.52
-325.29
-344.04
-349.86
-341.66
-320.11
-287.21
-246.34
-202.58
-162.49
-133.13
-119.90
-124.25
-142.51
-166.78
-187.58
-196.98
-190.86
-169.19
-134.85
-92.24
-46.30
-2.13
35.52
63.18
79.89
87.63
90.62
93.25
98.11
105.03
111.68
115.37
114.59
109.68
102.14
93.56
84.76
75.83
66.73
57.74
49.50
42.60
37.05
32.27
27.31
21.51
14.68
7.29
0.19
-5.71
-9.87
-12.18
-13.07
-13.32
-13.71
-14.74
-16.30
-17.88
-18.78
-18.61
-17.51
-16.14
-15.25
-15.16
-15.51
-15.27
-13.24
-8.53
-0.95
8.98
20.13
31.16
40.87
48.81
55.60
63.16
74.20
91.14
114.77
143.14
171.47
193.29
202.34
194.61
169.66
130.85
84.28
37.14
-4.32
-36.43
-58.69
-73.50
-84.88
-96.50
-110.08
-124.67
-137.20
-143.88
-141.84
-130.36
-110.92
-86.67
-61.46
-38.94
-22.04
-12.55
-10.92
-16.03
-25.47
-36.08
-44.88
-49.97
-51.15
-49.84
-48.41
-49.23
-53.72
-61.71
-71.45
-80.12
-84.89
-84.12
-78.15
-69.26
-60.64
-54.78
-52.07
-50.55
-46.85
-38.00
-23.02
-3.37
17.67
36.53
50.72
59.45
63.34
63.83
62.46
60.60
59.62
61.00
66.35
76.78
92.00
109.55
124.75
131.69
125.03
102.05
63.89
15.51
-35.73
-82.31
-118.49
-141.43
-151.33
-150.52
-142.35
-130.07
-116.19
-102.49
-90.28
-80.65
-74.44
-71.76
-71.27
-69.95
-63.95
-50.40
-29.16
-3.48
21.13
39.16
47.30
45.22
34.76
18.19
-3.00
-28.10
-55.98
-84.07
-108.31
-124.18
-128.67
-121.52
-105.29
-84.14
-62.26
-42.64
-26.78
-15.09
-7.41
-3.37
-2.47
-3.95
-6.66
-9.32
-10.85
-10.76
-9.28
-7.04
-4.83
-3.20
-2.36
-2.19
-2.52
-3.17
-4.18
-5.68
-7.85
-10.86
-14.80
-19.53
-24.77
-30.10
-35.08
-39.42
-43.21
-46.97
-51.54
-57.85
-66.34
-76.54
-86.88
-94.91
-97.94
-94.02
-82.54
-64.49
-42.10
-18.09
5.11
25.80
43.10
56.72
66.66
73.10
76.37
77.02
75.75
73.41
70.76
68.33
66.45
65.12
64.15
63.22
62.04
60.43
58.40
56.07
53.46
50.41
46.51
41.27
34.47
26.24
17.25
8.40
0.50
-6.15
-11.85
-17.44
-23.91
-32.13
-42.54
-54.96
-68.39
-81.08
-90.65
-94.59
-91.11
-79.90
-62.40
-41.62
-21.03
-3.38
10.17
20.09
27.74
34.18
39.25
41.49
39.03
31.16
19.46
7.86
1.32
3.76
16.48
37.78
64.25
92.45
120.17
146.43
170.40
190.55
204.60
210.47
207.68
197.72
182.98
164.85
142.21
111.92
71.23
20.94
-32.84
-80.21
-111.87
-124.28
-122.30
-117.07
-120.40
-138.28
-167.58
-197.76
-216.56
-216.21
-196.60
-164.04
-126.71
-90.31
-55.97
-21.63
15.04
54.30
93.87
130.52
162.50
191.04
220.11
254.43
296.30
343.19
387.47
418.55
427.04
408.60
365.51
305.33
237.36
169.01
104.22
44.48
-8.82
-52.70
-82.83
-95.68
-90.87
-72.12
-46.03
-19.23
4.06
22.96
39.23
55.19
71.84
88.18
101.54
108.66
106.71
94.20
71.42
40.71
6.31
-26.57
-52.84
-68.98
-74.04
-69.59
-58.96
-45.81
-33.04
-22.26
-14.04
-8.46
-5.46
-4.89
-6.29
-8.62
-10.54
-10.81
-8.93
-5.50
-1.98
-0.09
-1.02
-4.76
-10.10
-15.09
-17.91
-17.65
-14.72
-10.54
-7.03
-5.82
-7.75
-12.62
-19.38
-26.55
-32.84
-37.55
-40.67
-42.91
-45.29
-48.87
-54.48
-62.61
-73.29
-86.00
-99.48
-111.70
-120.26
-122.82
-117.87
-105.29
-86.47
-63.95
-40.67
-19.25
-1.32
12.54
22.55
29.14
32.55
32.85
30.22
25.46
20.11
16.03
14.76
16.85
21.88
28.85
36.87
45.26
53.44
60.35
64.51
64.59
60.42
53.55
46.81
43.19
44.41
50.37
59.47
69.72
79.72
88.93
97.23
104.32
109.46
111.75
110.66
106.23
98.95
89.33
77.63
63.90
48.35
31.52
14.28
-2.66
-19.26
-36.52
-56.37
-81.09
-112.25
-149.55
-190.21
-229.24
-260.80
-280.03
-284.71
-275.71
-256.44
-231.32
-204.41
-178.71
-156.10
-137.64
-123.72
-113.90
-106.73
-99.99
-91.41
-79.66
-64.90
-48.55
-32.37
-17.67
-4.80
6.67
17.36
27.66
37.70
47.53
57.36
67.56
78.48
90.04
101.55
111.67
118.61
120.58
116.25
105.34
88.89
69.19
49.27
31.94
18.98
10.81
6.72
5.73
7.19
11.07
17.60
26.77
37.87
49.52
60.18
68.63
74.49
78.11
80.37
82.11
83.82
85.39
86.25
85.57
82.67
77.26
69.65
60.63
51.24
42.47
34.93
28.81
23.95
20.21
17.53
15.96
15.42
15.56
15.63
14.69
12.03
7.40
1.09
-6.21
-13.78
-21.02
-27.63
-33.40
-38.18
-41.73
-43.73
-43.88
-42.04
-38.41
-33.57
-28.44
-24.07
-21.35
-20.80
-22.44
-25.77
-29.80
-33.20
-34.35
-31.65
-23.78
-10.31
8.04
29.15
49.89
67.00
77.94
81.71
78.95
71.63
62.27
53.18
45.94
41.20
38.90
38.39
38.74
38.71
36.98
32.45
24.64
14.07
2.27
-8.67
-16.84
-21.22
-22.13
-21.17
-20.76
-23.38
-30.76
-43.28
-59.90
-78.65
-97.46
-114.99
-131.04
-146.28
-161.38
-176.25
-189.62
-199.46
-203.90
-202.21
-195.11
-184.50
-172.71
-161.56
-151.86
-143.47
-135.58
-127.13
-117.15
-104.91
-89.90
-71.91
-51.10
-28.14
-4.18
19.27
40.61
58.47
71.80
79.92
82.50
79.51
71.38
59.19
44.71
30.10
17.47
8.19
2.53
-0.25
-1.38
-2.09
-3.02
-4.27
-5.49
-6.36
-6.78
-6.94
-7.17
-7.74
-8.61
-9.51
-10.18
-10.56
-10.97
-12.03
-14.42
-18.53
-24.17
-30.42
-35.83
-38.86
-38.49
-34.70
-28.46
-21.47
-15.45
-11.41
-9.16
-7.40
-4.22
2.07
12.07
24.95
38.75
50.97
59.62
63.84
64.09
61.69
58.10
54.25
50.34
46.06
41.06
35.22
28.61
21.44
13.84
6.05
-1.42
-7.71
-11.77
-12.86
-11.06
-7.42
-3.71
-1.73
-2.52
-6.06
-11.38
-17.19
-22.58
-27.37
-32.16
-38.13
-46.41
-57.43
-70.39
-82.76
-90.50
-88.84
-73.63
-43.17
0.74
52.64
104.81
149.52
181.30
198.15
201.31
194.09
180.27
163.09
145.05
128.18
114.25
104.66
99.73
98.22
97.60
94.87
88.20
77.96
66.94
59.19
58.39
65.93
79.83
95.32
106.21
106.82
93.41
64.91
23.16
-27.27
-79.26
-124.12
-153.00
-159.24
-140.26
-98.32
-39.25
30.06
104.11
179.36
253.06
321.06
376.75
412.23
421.46
403.31
362.77
309.23
252.77
200.69
155.96
117.80
84.08
53.36
25.68
1.61
-19.10
-38.35
-58.97
-83.04
-109.93
-135.47
-152.82
-155.28
-139.50
-107.70
-67.66
-30.16
-5.28
0.89
-12.43
-41.69
-80.98
-123.76
-163.39
-193.35
-207.80
-203.21
-180.44
-145.65
-109.07
-81.69
-71.26
-79.84
-104.07
-137.69
-174.89
-212.12
-248.07
-282.17
-312.78
-336.86
-350.95
-353.01
-343.68
-326.38
-306.11
-287.64
-274.32
-267.70
-268.17
-275.42
-288.54
-305.55
-323.21
-337.31
-344.08
-341.61
-330.48
-313.22
-292.74
-270.91
-247.97
-223.21
-196.23
-167.69
-139.07
-111.63
-85.59
-60.02
-33.61
-5.87
22.40
49.31
72.94
92.24
107.57
120.15
131.19
141.04
148.97
153.73
154.28
150.41
142.81
132.87
122.17
112.42
105.32
102.36
104.58
112.14
124.09
138.53
153.10
165.78
175.48
182.13
186.24
188.40
188.84
187.50
184.30
179.49
173.80
168.10
163.12
159.08
155.82
153.03
150.65
148.88
147.99
147.91
148.04
147.38
144.90
140.09
133.06
124.44
114.89
104.78
94.06
82.35
69.23
54.39
37.72
19.27
-0.75
-21.89
-43.50
-64.80
-85.08
-103.79
-120.58
-135.07
-146.59
-154.04
-155.98
-151.00
-138.19
-117.66
-90.69
-59.73
-28.06
0.88
24.26
40.53
49.69
53.21
53.38
52.50
52.13
52.85
54.37
55.97
57.00
57.18
56.79
56.53
57.38
59.96
64.01
68.04
69.55
65.86
55.31
37.97
15.75
-8.13
-30.03
-46.65
-55.83
-57.29
-53.22
-48.42
-49.64
-63.74
-94.91
-142.33
-199.13
-254.00
-294.62
-311.55
-301.06
-265.46
-211.60
-147.91
-81.94
-19.00
38.07
88.17
131.33
168.57
202.35
236.71
276.30
324.26
379.56
436.00
483.33
510.73
510.99
483.18
432.73
368.66
300.28
234.81
176.90
129.14
92.80
67.88
52.89
44.81
39.65
33.71
24.41
10.60
-7.92
-30.78
-57.04
-85.08
-112.61
-137.38
-158.16
-175.43
-191.40
-209.03
-230.76
-257.36
-287.77
-319.12
-347.43
-368.52
-378.92
-376.96
-363.22
-340.29
-311.84
-281.39
-251.10
-221.49
-191.70
-160.55
-127.58
-93.71
-61.22
-32.81
-10.46
5.78
17.86
28.73
40.74
54.36
68.09
79.51
86.83
89.66
88.56
83.66
73.79
57.00
32.63
3.24
-25.01
-44.51
-49.72
-40.17
-21.02
-0.84
12.18
13.40
2.93
-15.58
-37.40
-58.61
-76.89
-91.00
-99.76
-101.83
-96.09
-82.31
-61.33
-34.84
-4.86
26.58
57.29
84.91
107.18
122.51
130.92
134.15
134.99
135.70
136.41
134.73
126.93
110.22
84.73
54.29
25.52
5.44
-0.91
7.86
29.12
57.01
84.04
103.04
108.76
98.70
73.26
35.06
-12.11
-64.20
-117.47
-168.33
-212.82
-246.39
-264.54
-264.12
-244.79
-209.75
-165.16
-118.17
-74.54
-36.89
-4.62
24.87
54.02
83.50
111.67
135.58
152.68
162.21
165.61
165.80
165.77
167.23
170.14
173.09
174.27
172.56
167.84
160.90
152.81
144.35
135.88
127.47
119.23
111.44
104.53
98.78
94.17
90.19
85.90
80.04
71.36
58.96
42.54
22.60
0.39
-22.49
-44.49
-64.42
-81.58
-95.56
-106.12
-113.18
-116.93
-117.90
-116.84
-114.27
-110.09
-103.53
-93.62
-79.88
-62.97
-44.76
-27.78
-14.35
-5.76
-2.04
-2.27
-4.94
-8.60
-11.98
-14.15
-14.49
-12.83
-9.37
-4.75
0.21
4.78
8.53
11.29
13.03
13.69
13.16
11.47
8.84
5.68
2.42
-0.75
-3.97
-7.62
-12.05
-17.40
-23.46
-29.87
-36.23
-42.13
-47.29
-51.49
-54.69
-57.25
-59.90
-63.67
-69.44
-77.44
-86.81
-95.71
-101.69
-102.39
-96.28
-82.97
-63.26
-38.83
-11.82
15.48
40.87
62.39
78.58
88.72
92.86
91.77
86.67
78.95
69.94
60.61
51.42
42.12
31.89
20.02
6.77
-5.93
-14.47
-14.48
-2.31
23.27
60.14
102.85
143.74
174.62
188.79
182.78
157.52
118.53
74.80
36.62
13.07
10.17
30.00
70.65
126.71
189.99
250.27
296.92
321.02
317.61
287.09
234.99
170.60
104.67
46.90
4.15
-20.77
-29.23
-26.14
-18.35
-12.53
-13.25
-21.89
-36.90
-54.95
-72.43
-86.39
-95.07
-97.78
-94.93
-87.80
-78.29
-68.47
-59.81
-52.84
-47.06
-41.33
-34.08
-23.78
-9.11
10.60
34.87
61.77
88.11
110.21
124.95
130.58
126.91
115.06
96.96
74.85
51.18
28.30
8.17
-8.06
-20.39
-30.11
-39.46
-50.93
-66.48
-86.80
-110.76
-135.71
-158.43
-176.39
-189.12
-198.27
-206.51
-215.70
-225.37
-232.63
-233.71
-226.29
-210.98
-191.35
-171.93
-155.80
-143.11
-131.22
-116.58
-96.93
-72.67
-46.89
-24.07
-8.31
-1.83
-4.46
-13.85
-26.52
-39.22
-49.82
-57.72
-63.38
-67.46
-70.08
-70.73
-68.65
-63.60
-56.37
-48.59
-42.26
-38.94
-39.31
-43.06
-49.07
-55.59
-60.62
-62.24
-58.98
-50.30
-36.76
-19.89
-1.64
16.14
32.17
45.71
56.42
64.05
68.36
69.22
66.79
61.53
54.19
45.63
36.67
27.96
19.95
12.88
6.76
1.51
-3.13
-7.43
-11.58
-15.64
-19.65
-23.70
-28.03
-32.91
-38.49
-44.68
-51.23
-58.02
-65.33
-73.86
-84.24
-96.24
-108.30
-117.51
-120.44
-114.48
-98.92
-75.34
-47.01
-17.55
10.69
37.56
65.05
96.02
132.22
172.72
213.21
247.04
267.49
270.02
253.49
220.09
174.33
121.99
69.29
22.26
-14.25
-37.87
-49.67
-54.18
-57.69
-65.62
-80.05
-98.73
-116.00
-125.06
-120.43
-99.76
-64.45
-19.18
29.33
73.78
108.06
128.54
134.76
128.87
114.40
95.17
74.63
55.79
41.37
33.51
33.16
39.49
49.82
60.48
68.24
71.55
70.97
68.42
66.05
64.89
64.45
63.04
58.93
51.36
41.20
30.61
22.20
17.97
18.32
21.96
26.42
29.01
27.90
22.51
13.65
2.91
-7.97
-17.73
-25.91
-32.82
-39.23
-46.02
-53.79
-62.76
-72.74
-83.31
-93.82
-103.38
-110.74
-114.17
-111.85
-102.27
-85.00
-61.07
-32.88
-3.65
23.55
46.45
63.85
75.54
81.87
83.46
81.11
75.75
68.62
61.07
54.33
49.26
46.13
44.67
44.37
44.78
45.70
47.16
49.20
51.78
54.61
57.24
59.17
60.00
59.54
57.76
54.82
51.05
46.85
42.68
38.76
34.91
30.51
24.67
16.71
6.60
-4.68
-15.37
-23.34
-26.89
-25.36
-19.32
-10.40
-0.77
7.70
13.84
17.32
18.45
17.66
15.23
11.09
4.97
-3.23
-13.19
-24.12
-34.89
-44.37
-51.85
-57.03
-59.96
-60.84
-59.80
-56.82
-51.93
-45.37
-37.87
-30.67
-25.16
-22.55
-23.36
-27.25
-33.12
-39.54
-45.29
-49.58
-52.31
-53.89
-55.00
-56.32
-58.16
-60.38
-62.17
-62.23
-58.92
-50.80
-37.10
-18.16
4.50
28.42
50.80
69.16
81.89
88.42
89.20
85.38
78.42
69.95
61.68
55.46
53.16
56.25
65.17
78.79
94.32
108.01
116.34
117.24
110.82
99.11
84.95
70.56
56.55
41.87
24.61
3.20
-22.56
-51.33
-80.62
-107.41
-128.60
-141.28
-142.93
-132.01
-109.19
-78.54
-47.52
-25.18
-18.60
-29.22
-51.27
-73.19
-82.21
-69.56
-34.26
16.56
70.53
114.66
139.50
141.25
121.66
86.56
43.96
2.45
-30.27
-48.63
-50.32
-36.97
-13.70
12.31
33.93
46.07
46.89
37.73
22.12
4.58
-10.59
-19.92
-21.16
-13.73
1.04
19.86
37.98
50.47
53.64
46.14
29.36
6.84
-16.79
-37.12
-50.87
-56.47
-54.11
-45.49
-33.13
-19.67
-7.24
2.80
9.71
13.07
12.68
8.56
1.35
-7.59
-16.37
-23.09
-26.55
-26.70
-24.56
-21.77
-19.82
-19.41
-20.28
-21.39
-21.52
-19.86
-16.50
-12.31
-8.48
-6.05
-5.36
-6.07
-7.30
-8.05
-7.33
-4.46
0.67
7.00
12.04
12.24
4.26
-13.30
-38.53
-66.10
-88.84
-100.24
-96.83
-79.14
-50.98
-17.45
16.99
49.66
79.32
105.31
126.50
141.28
148.03
146.22
137.02
123.37
109.00
96.90
88.04
80.76
71.62
56.75
33.75
2.67
-33.87
-71.37
-104.38
-127.14
-134.39
-122.41
-90.72
-43.59
9.58
56.29
84.71
88.02
66.99
29.37
-13.59
-51.64
-78.73
-93.68
-98.61
-96.41
-89.11
-77.87
-63.95
-49.74
-38.66
-34.02
-37.32
-47.27
-59.99
-70.48
-74.62
-70.70
-59.87
-45.45
-31.42
-20.76
-14.53
-11.72
-9.97
-6.47
0.96
13.11
28.83
45.03
57.28
61.10
53.56
34.57
7.06
-24.08
-53.76
-78.52
-97.23
-110.59
-119.57
-124.08
-122.50
-112.45
-92.26
-62.29
-25.27
14.42
52.10
83.96
107.86
123.36
131.29
133.27
131.10
126.39
120.24
113.03
104.33
93.11
78.24
59.07
35.92
10.14
-16.17
-40.64
-61.18
-76.34
-85.52
-89.05
-88.04
-84.09
-78.89
-73.83
-69.64
-66.48
-64.14
-62.45
-61.57
-62.03
-64.22
-68.04
-72.54
-75.98
-76.31
-71.79
-61.57
-45.92
-26.29
-4.91
15.85
34.23
49.42
61.51
70.92
77.77
81.62
81.74
77.82
70.57
61.78
53.65
47.90
44.94
44.02
43.79
43.32
42.56
42.16
42.78
44.36
45.95
46.19
44.00
39.21
32.61
25.41
18.61
12.46
6.48
-0.11
-7.95
-17.13
-27.23
-37.51
-47.06
-54.81
-59.46
-59.62
-54.25
-43.22
-27.64
-9.70
8.15
24.11
37.57
49.03
59.38
69.16
78.11
85.30
89.59
90.19
87.17
81.62
75.80
72.90
76.40
88.98
111.36
141.64
175.42
206.99
230.90
243.30
242.66
229.66
206.39
175.50
139.58
100.83
61.08
21.91
-15.16
-48.66
-77.26
-100.11
-116.97
-128.23
-134.66
-137.03
-136.09
-132.71
-128.30
-124.76
-123.98
-126.81
-132.32
-137.70
-139.10
-133.31
-119.09
-97.85
-73.01
-48.66
-28.12
-13.01
-3.33
1.95
4.03
3.74
1.49
-2.35
-7.07
-11.47
-14.22
-14.42
-11.91
-7.45
-2.14
3.17
8.36
14.09
21.17
29.96
39.78
49.07
55.91
58.91
57.81
53.42
47.15
40.22
33.15
25.71
17.39
7.91
-2.49
-13.01
-22.77
-31.12
-37.89
-43.37
-48.18
-52.98
-58.41
-64.80
-72.09
-79.67
-86.29
-90.34
-90.16
-84.71
-73.87
-58.71
-41.21
-23.65
-8.13
4.07
12.55
17.62
20.03
20.51
19.67
17.82
15.21
12.09
9.04
6.99
7.09
10.34
17.08
26.59
37.27
47.09
54.36
58.39
59.54
59.02
58.05
57.29
56.30
53.60
46.98
34.35
14.48
-12.26
-43.75
-76.37
-105.90
-128.61
-142.06
-145.53
-139.71
-126.25
-107.23
-85.00
-62.07
-41.04
-24.24
-13.27
-8.49
-8.91
-12.52
-17.01
-20.44
-21.81
-21.08
-18.72
-15.23
-10.60
-4.30
4.39
15.73
29.08
42.79
54.61
62.44
65.06
62.40
55.48
45.90
35.25
24.81
15.31
7.09
0.28
-5.17
-9.51
-13.18
-16.75
-20.69
-25.12
-29.70
-33.73
-36.49
-37.70
-37.69
-37.35
-37.75
-39.64
-43.21
-48.19
-54.11
-60.59
-67.38
-74.26
-80.77
-86.24
-89.81
-90.63
-87.97
-81.24
-70.10
-54.41
-34.55
-11.53
12.92
36.75
58.13
76.08
90.66
102.74
113.40
123.22
132.01
138.90
142.82
142.99
139.39
132.73
124.32
115.65
108.03
102.37
99.14
98.16
98.74
99.72
99.80
97.97
93.85
87.67
80.15
71.99
63.61
55.15
46.53
37.81
29.34
21.52
14.66
8.67
3.15
-2.35
-7.97
-13.47
-18.45
-22.71
-26.52
-30.48
-35.07
-40.37
-45.82
-50.44
-53.11
-53.11
-50.22
-44.75
-37.39
-29.09
-20.83
-13.55
-7.87
-4.10
-2.13
-1.64
-2.32
-3.92
-6.15
-8.66
-10.91
-12.32
-12.55
-11.66
-10.14
-8.67
-7.91
-8.09
-9.11
-10.59
-12.08
-13.36
-14.37
-15.29
-16.30
-17.68
-19.66
-22.47
-26.23
-30.88
-36.07
-41.23
-45.73
-49.03
-50.89
-51.57
-51.65
-51.82
-52.58
-54.03
-55.85
-57.38
-57.89
-56.87
-54.14
-49.86
-44.45
-38.45
-32.43
-26.94
-22.42
-19.16
-17.16
-16.07
-15.35
-14.48
-13.12
-11.31
-9.35
-7.69
-6.67
-6.38
-6.61
-6.98
-7.10
-6.73
-5.75
-4.30
-2.70
-1.37
-0.67
-0.80
-1.70
-3.16
-4.89
-6.75
-8.78
-11.15
-14.04
-17.43
-21.16
-24.98
-28.67
-32.15
-35.45
-38.62
-41.64
-44.45
-47.07
-49.70
-52.56
-55.78
-59.10
-61.80
-62.71
-60.57
-54.44
-44.06
-30.11
-14.14
1.84
15.84
26.50
33.35
36.78
37.75
37.33
36.42
35.46
34.55
33.51
32.10
30.08
27.43
24.39
21.59
19.95
20.34
23.22
28.29
34.53
40.46
44.59
46.15
45.21
42.77
40.41
39.90
42.55
48.84
58.10
68.49
77.58
83.02
83.44
79.00
71.39
63.20
56.77
53.28
52.16
51.28
47.81
39.37
25.12
6.19
-14.51
-33.23
-46.57
-52.57
-51.10
-43.67
-32.65
-20.42
-8.94
0.48
7.10
10.77
12.00
12.13
13.04
16.55
23.63
33.62
44.29
52.60
56.03
53.84
47.42
39.59
33.10
29.09
26.53
22.82
15.44
3.58
-11.02
-24.60
-33.05
-33.62
-26.12
-13.03
1.37
12.52
16.87
12.69
0.45
-17.74
-38.73
-59.32
-77.13
-91.04
-101.39
-109.69
-117.98
-128.21
-141.18
-155.84
-168.97
-175.93
-172.49
-157.27
-133.48
-108.64
-91.85
-89.70
-102.83
-125.18
-146.55
-156.92
-150.35
-126.25
-87.97
-40.15
13.04
67.87
119.44
160.77
183.70
181.87
154.22
106.67
50.82
0.03
-34.95
-49.07
-43.39
-23.48
3.36
30.42
52.93
68.33
75.92
76.35
71.00
61.72
50.48
39.12
29.20
21.74
17.14
15.00
14.11
12.87
9.80
4.11
-4.15
-14.14
-24.88
-35.58
-45.70
-54.71
-61.79
-65.70
-65.26
-59.76
-49.44
-35.58
-20.15
-5.27
7.32
16.65
22.56
25.58
26.52
26.21
25.01
22.97
19.87
15.65
10.63
5.47
0.90
-2.66
-5.24
-7.25
-9.08
-10.69
-11.58
-11.07
-8.73
-4.80
-0.01
4.57
8.05
10.03
10.54
9.96
8.67
6.99
4.99
2.70
0.06
-2.93
-6.19
-9.54
-12.86
-16.10
-19.35
-22.93
-27.30
-32.99
-40.23
-48.68
-57.26
-64.21
-67.50
-65.43
-57.33
-43.84
-26.79
-8.58
8.61
23.35
35.25
44.47
51.36
56.09
58.53
58.67
56.76
53.43
49.57
46.02
43.24
41.28
39.82
38.48
36.97
35.28
33.65
32.40
31.83
31.92
32.33
32.41
31.47
29.13
25.38
20.63
15.36
9.92
4.40
-1.31
-7.32
-13.66
-20.10
-26.39
-32.31
-37.84
-43.07
-48.12
-53.13
-58.24
-63.76
-69.97
-76.82
-83.53
-88.34
-88.86
-82.86
-69.34
-49.30
-25.66
-2.37
16.95
30.28
37.61
40.55
41.37
42.10
44.17
48.28
54.61
62.63
71.02
77.73
80.53
78.01
70.45
59.93
49.53
42.08
38.97
39.89
43.39
47.87
52.34
56.45
60.12
62.91
63.96
62.44
58.11
51.59
44.06
36.65
29.80
23.18
16.01
7.59
-2.27
-13.09
-23.90
-33.50
-40.63
-44.10
-43.02
-37.10
-26.93
-14.05
-0.59
11.41
20.75
27.36
32.19
36.47
41.09
46.18
51.23
55.49
58.49
60.25
61.26
62.23
63.84
66.58
70.65
76.04
82.56
89.93
97.79
105.81
113.67
121.13
127.88
133.57
137.68
139.61
138.68
134.22
125.73
113.10
96.79
77.69
56.85
34.93
12.01
-12.33
-38.57
-66.59
-95.25
-122.41
-145.18
-160.67
-166.71
-162.57
-149.45
-130.44
-109.78
-91.60
-78.63
-71.39
-68.35
-67.14
-66.01
-64.80
-64.80
-67.77
-74.58
-84.58
-95.59
-104.79
-109.70
-108.71
-101.37
-88.34
-71.48
-53.69
-38.82
-30.44
-30.66
-38.84
-51.16
-61.86
-65.36
-58.68
-42.39
-20.19
3.08
23.31
38.27
47.22
50.09
46.66
36.84
21.26
1.91
-18.08
-35.51
-48.19
-55.38
-57.48
-55.28
-49.28
-39.73
-27.07
-12.42
2.43
15.41
24.95
30.36
31.90
30.46
27.08
22.71
18.08
13.72
10.16
7.91
7.46
9.12
12.73
17.58
22.49
26.22
27.92
27.42
25.24
22.26
19.33
17.02
15.49
14.71
14.61
15.12
16.12
17.26
18.07
18.00
16.82
14.61
11.83
9.02
6.57
4.65
2.96
0.93
-2.26
-7.35
-14.72
-24.01
-33.90
-42.27
-46.62
-44.91
-36.26
-21.44
-2.69
16.66
33.04
43.31
45.42
38.86
24.73
5.55
-15.52
-35.63
-53.01
-67.21
-78.46
-86.79
-91.53
-91.38
-85.36
-73.75
-58.44
-42.27
-27.82
-16.20
-6.84
1.73
10.68
19.94
28.24
33.85
35.71
33.85
29.16
22.66
14.73
5.04
-6.97
-21.32
-36.90
-51.55
-62.82
-68.77
-68.67
-63.10
-53.68
-42.83
-33.41
-28.38
-30.33
-40.67
-58.75
-81.34
-102.97
-117.06
-117.99
-102.88
-72.75
-32.22
11.96
52.92
85.52
107.18
117.94
119.56
114.63
105.72
95.22
85.31
77.92
74.52
75.69
80.80
87.99
94.87
99.17
99.63
96.30
90.32
83.34
76.72
71.11
66.34
61.74
56.55
50.36
43.23
35.57
27.96
20.83
14.35
8.31
2.20
-4.64
-12.79
-22.46
-33.37
-44.78
-55.71
-65.30
-73.10
-79.36
-84.86
-90.66
-97.55
-105.55
-113.50
-119.23
-120.09
-113.75
-99.28
-77.53
-51.12
-23.63
1.40
21.61
36.11
45.34
50.35
52.08
51.17
48.04
43.32
38.06
33.55
30.82
30.21
31.19
32.68
33.52
33.14
31.64
29.74
28.37
28.13
29.09
30.71
32.10
32.39
31.22
28.72
25.57
22.50
20.03
18.30
17.08
15.86
14.19
11.62
7.88
2.92
-3.03
-9.45
-15.70
-21.30
-26.23
-31.10
-37.04
-45.14
-55.88
-68.54
-81.00
-90.25
-93.24
-87.92
-74.06
-53.46
-29.57
-6.49
11.85
22.65
24.71
18.54
6.27
-8.87
-23.03
-32.61
-35.02
-29.31
-16.30
1.79
22.04
41.66
58.55
71.51
80.26
85.17
87.02
86.77
85.30
83.19
80.67
77.56
73.47
67.99
61.03
52.88
44.13
35.52
27.55
20.65
15.02
10.73
7.60
5.17
2.64
-0.95
-6.41
-14.08
-23.80
-34.95
-46.55
-57.39
-65.94
-70.48
-69.39
-61.76
-47.91
-29.65
-9.87
8.47
23.20
33.59
40.18
44.00
45.89
46.13
44.53
41.01
35.96
30.36
25.41
21.99
20.33
19.96
20.09
20.14
20.07
20.33
21.45
23.67
26.56
29.16
30.30
29.27
26.14
21.79
17.44
13.99
11.63
9.66
7.03
3.11
-1.89
-6.86
-10.36
-11.38
-10.01
-7.48
-5.57
-5.87
-9.20
-15.40
-23.57
-32.40
-40.34
-45.70
-46.77
-42.16
-31.27
-14.74
5.61
27.25
47.64
64.86
77.73
85.64
88.31
85.85
78.87
68.67
57.05
45.61
35.10
25.26
15.14
3.96
-8.06
-19.71
-29.42
-35.87
-38.00
-34.55
-24.09
-5.82
18.73
44.38
62.92
65.98
49.19
15.18
-26.62
-63.76
-86.32
-91.07
-81.90
-66.77
-52.93
-43.42
-36.74
-29.26
-18.54
-5.39
6.44
12.38
9.54
-1.58
-17.50
-33.40
-45.11
-50.40
-49.25
-43.19
-34.11
-23.50
-12.18
-0.55
10.98
21.72
30.66
36.83
39.63
39.06
35.81
31.05
26.10
22.11
19.70
18.92
19.32
20.16
20.76
20.55
19.28
16.93
13.75
10.14
6.71
3.99
2.41
1.98
2.30
2.71
2.51
1.28
-1.04
-4.21
-7.83
-11.63
-15.55
-19.76
-24.43
-29.66
-35.25
-40.69
-45.24
-48.06
-48.59
-46.78
-43.23
-39.18
-36.35
-36.60
-41.37
-51.06
-64.24
-77.41
-85.31
-82.50
-65.30
-33.74
8.00
52.86
93.54
125.09
146.22
158.79
165.85
169.72
171.16
169.81
165.25
157.48
146.61
132.13
112.64
86.65
53.94
16.70
-20.52
-52.10
-73.00
-80.16
-73.03
-53.70
-26.63
1.63
23.30
31.09
20.43
-8.61
-50.88
-97.68
-139.65
-169.75
-184.67
-184.65
-172.08
-149.89
-120.87
-88.03
-55.25
-27.27
-8.97
-3.67
-11.63
-29.61
-51.98
-72.75
-87.77
-95.61
-97.10
-93.83
-86.64
-75.15
-58.49
-36.59
-11.07
14.80
37.31
53.83
63.63
67.81
68.42
67.26
65.29
62.57
58.82
54.01
48.63
43.56
39.76
37.75
37.31
37.65
37.68
36.38
33.18
28.08
21.63
14.77
8.55
3.74
0.56
-1.54
-3.69
-7.19
-13.05
-21.44
-31.63
-42.15
-51.45
-58.38
-62.68
-64.91
-66.11
-67.45
-69.92
-74.08
-80.03
-87.25
-94.45
-99.66
-100.58
-95.22
-82.72
-63.82
-40.76
-16.58
5.75
24.25
38.09
47.48
53.21
56.17
57.17
56.88
55.97
54.98
54.31
53.97
53.69
53.11
52.06
50.73
49.54
48.86
48.71
48.66
47.99
46.14
42.98
38.82
34.14
29.23
24.04
18.29
11.78
4.62
-2.78
-9.96
-16.63
-22.85
-28.83
-34.78
-40.70
-46.37
-51.50
-55.97
-60.04
-64.32
-69.63
-76.48
-84.53
-92.33
-97.32
-96.64
-88.08
-71.01
-46.77
-18.27
11.05
38.29
61.83
81.29
96.97
109.14
117.72
122.41
123.24
121.00
117.24
113.77
111.92
111.92
112.89
113.36
112.08
108.64
103.59
98.01
92.99
89.26
87.13
86.74
88.21
91.59
96.65
102.59
108.13
111.78
112.29
109.08
102.29
92.60
81.07
68.81
56.87
45.94
36.21
27.30
18.39
8.61
-2.75
-16.11
-31.96
-50.93
-73.47
-99.13
-125.63
-148.79
-163.46
-165.40
-153.23
-129.12
-98.20
-66.65
-39.91
-21.70
-14.23
-18.75
-35.69
-63.90
-99.52
-135.72
-163.97
-176.90
-171.07
-148.66
-116.63
-84.06
-58.72
-44.61
-41.37
-45.53
-52.72
-59.26
-62.89
-62.41
-57.32
-47.65
-34.46
-20.28
-8.78
-3.66
-6.80
-16.98
-30.06
-40.23
-42.33
-33.38
-13.29
15.73
50.26
86.49
120.66
149.36
169.89
180.87
182.71
177.66
168.98
159.92
152.62
147.66
144.28
141.02
136.26
128.52
116.83
100.86
81.16
59.19
37.13
17.30
1.67
-8.88
-14.67
-16.89
-17.26
-17.25
-17.82
-19.45
-22.21
-25.91
-30.10
-33.95
-36.30
-36.04
-32.56
-26.18
-18.25
-10.64
-5.03
-2.33
-2.54
-5.19
-9.92
-16.79
-26.10
-37.95
-51.73
-65.98
-78.87
-88.73
-94.75
-96.99
-96.21
-93.19
-88.09
-80.27
-68.73
-52.86
-33.21
-11.94
7.51
21.39
26.80
22.59
9.55
-9.96
-32.81
-55.64
-75.35
-89.36
-96.05
-95.42
-89.47
-81.99
-77.28
-78.59
-86.68
-99.70
-114.19
-126.77
-135.61
-140.57
-142.32
-141.08
-136.01
-125.89
-110.44
-91.33
-71.97
-56.33
-46.93
-43.93
-45.23
-47.89
-49.43
-48.58
-44.97
-38.19
-27.23
-10.56
13.26
44.93
84.19
129.93
180.16
231.83
280.46
320.23
345.04
350.11
333.65
297.48
246.49
187.08
125.35
66.13
12.58
-33.61
-72.07
-103.48
-129.26
-151.08
-169.98
-185.73
-196.63
-199.98
-193.00
-173.70
-141.74
-98.81
-48.65
3.22
50.33
86.66
107.97
113.08
104.08
85.43
62.43
39.42
18.90
1.45
-13.57
-27.05
-39.44
-50.53
-59.80
-66.68
-70.94
-72.58
-71.89
-69.28
-65.23
-60.26
-54.81
-49.23
-43.63
-38.00
-32.33
-26.70
-21.45
-17.15
-14.38
-13.69
-15.51
-20.12
-27.56
-37.31
-48.01
-57.25
-62.02
-59.46
-47.91
-27.84
-1.84
26.00
51.30
70.86
83.28
89.17
90.37
88.98
86.52
83.66
80.29
76.10
70.99
65.31
59.81
55.25
52.02
49.94
48.32
46.36
43.44
39.46
34.70
29.71
24.97
20.64
16.53
12.22
7.20
1.16
-5.85
-13.40
-20.88
-27.66
-33.44
-38.50
-43.49
-49.19
-56.05
-63.81
-71.55
-78.07
-82.58
-85.01
-86.26
-87.75
-90.93
-96.75
-105.27
-115.61
-126.09
-134.53
-138.70
-136.80
-127.88
-112.09
-90.60
-65.32
-38.54
-12.49
10.88
30.07
44.18
52.94
56.75
56.56
53.75
49.77
45.98
43.40
42.65
43.85
46.63
50.31
54.05
57.19
59.48
61.13
62.57
64.24
66.25
68.38
70.11
70.87
70.25
68.20
65.16
61.86
59.13
57.31
55.99
53.79
48.80
39.39
25.04
6.90
-12.52
-30.28
-44.19
-53.62
-59.52
-63.82
-68.35
-74.10
-80.90
-87.66
-92.86
-95.01
-92.92
-85.77
-73.27
-55.76
-34.29
-10.64
12.94
34.21
51.48
63.91
71.68
75.66
77.00
76.60
75.02
72.50
69.32
66.05
63.42
62.17
62.59
64.40
66.88
69.08
70.30
70.10
68.39
65.11
60.30
54.10
46.79
38.95
31.21
24.12
17.76
11.73
5.27
-2.34
-11.33
-21.30
-31.23
-39.94
-46.49
-50.59
-52.64
-53.52
-54.41
-56.49
-60.71
-67.55
-76.74
-86.87
-95.47
-99.40
-95.79
-83.17
-62.21
-35.64
-7.27
19.25
41.55
58.79
71.17
79.16
82.98
82.70
78.65
71.88
64.04
56.93
51.83
49.05
48.17
48.50
49.56
51.33
54.01
57.61
61.77
65.68
68.42
69.28
67.92
64.35
58.91
52.12
44.60
37.00
29.83
23.29
17.17
10.91
3.91
-4.15
-13.09
-22.23
-30.71
-37.86
-43.54
-48.20
-52.79
-58.49
-66.18
-76.15
-87.65
-98.91
-107.42
-110.62
-106.62
-94.90
-76.45
-53.50
-28.86
-5.18
15.52
32.07
44.08
51.74
55.62
56.51
55.31
52.86
49.95
47.24
45.25
44.24
44.22
44.85
45.64
46.06
45.80
44.88
43.59
42.22
40.91
39.40
37.20
33.83
29.13
23.38
17.21
11.32
6.09
1.45
-3.08
-8.09
-13.92
-20.48
-27.24
-33.54
-38.96
-43.49
-47.55
-51.81
-56.87
-62.94
-69.58
-75.67
-79.54
-79.42
-73.92
-62.57
-46.10
-26.28
-5.48
14.04
30.64
43.54
52.66
58.28
60.71
60.15
56.82
51.19
44.18
37.11
31.42
28.18
27.69
29.37
31.92
33.96
34.52
33.33
30.88
27.95
25.22
22.96
20.97
18.75
15.80
11.79
6.64
0.56
-6.03
-12.55
-18.48
-23.53
-27.86
-32.01
-36.77
-42.87
-50.78
-60.41
-71.08
-81.49
-89.85
-94.17
-92.66
-84.34
-69.48
-49.63
-27.29
-5.16
14.69
31.23
44.35
54.37
61.54
65.74
66.65
64.18
58.83
51.79
44.54
38.52
34.50
32.54
32.13
32.47
32.91
33.09
32.90
32.41
31.67
30.60
29.10
27.06
24.44
21.20
17.26
12.51
6.86
0.39
-6.62
-13.71
-20.38
-26.33
-31.54
-36.36
-41.36
-47.15
-54.25
-62.93
-72.94
-83.35
-92.46
-98.07
-97.97
-90.70
-76.08
-55.44
-31.25
-6.33
16.86
36.70
52.53
64.31
72.32
76.95
78.69
78.20
76.29
73.78
71.27
69.05
67.03
64.95
62.59
59.97
57.38
55.27
53.95
53.39
53.10
52.24
49.97
45.77
39.73
32.52
25.10
18.30
12.51
7.62
3.10
-1.68
-7.07
-13.05
-19.16
-24.78
-29.42
-32.96
-35.71
-38.44
-42.14
-47.68
-55.61
-65.72
-76.97
-87.41
-94.56
-95.98
-90.11
-76.86
-57.75
-35.49
-13.12
6.95
23.47
36.32
46.08
53.33
58.35
61.13
61.54
59.75
56.30
52.01
47.72
44.06
41.27
39.33
38.11
37.51
37.58
38.42
39.95
41.87
43.62
44.51
43.92
41.58
37.53
32.13
25.96
19.63
13.73
8.63
4.42
0.85
-2.65
-6.69
-11.75
-17.89
-24.83
-31.86
-38.23
-43.33
-46.94
-49.37
-51.37
-53.98
-58.26
-65.00
-74.31
-85.31
-96.05
-103.83
-105.84
-100.10
-86.17
-65.35
-40.38
-14.51
9.42
29.59
45.38
56.98
64.96
69.80
71.84
71.42
69.02
65.35
61.26
57.54
54.70
52.82
51.67
50.88
50.14
49.40
48.77
48.34
48.08
47.73
46.82
44.82
41.30
36.09
29.34
21.59
13.56
6.02
-0.41
-5.40
-8.98
-11.51
-13.56
-15.75
-18.58
-22.34
-26.95
-32.06
-37.11
-41.63
-45.39
-48.54
-51.59
-55.20
-60.00
-66.43
-74.56
-83.98
-93.51
-101.24
-104.79
-101.99
-91.66
-74.28
-51.96
-27.89
-5.32
13.39
27.30
36.69
42.53
45.85
47.25
46.95
45.00
41.66
37.43
33.11
29.41
26.85
25.57
25.38
25.88
26.61
27.23
27.50
27.29
26.49
25.09
23.08
20.56
17.69
14.75
11.99
9.50
7.27
5.03
2.47
-0.73
-4.78
-9.59
-14.84
-20.11
-25.01
-29.42
-33.68
-38.48
-44.65
-52.69
-62.23
-71.95
-79.76
-83.32
-80.84
-71.63
-56.35
-36.79
-15.36
5.65
24.37
39.69
51.16
58.79
62.83
63.66
61.80
57.85
52.59
46.91
41.61
37.31
34.20
32.11
30.67
29.50
28.36
27.22
26.21
25.41
24.76
23.96
22.60
20.28
16.83
12.42
7.56
2.90
-1.08
-4.31
-7.24
-10.66
-15.23
-21.15
-27.97
-34.82
-40.82
-45.51
-49.01
-51.99
-55.32
-59.87
-66.14
-74.07
-82.86
-90.96
-96.33
-96.92
-91.30
-79.21
-61.70
-40.87
-19.28
0.81
17.88
31.36
41.32
48.15
52.27
54.03
53.80
52.03
49.35
46.38
43.67
41.48
39.83
38.56
37.46
36.46
35.53
34.76
34.27
34.10
34.15
34.07
33.28
31.27
27.74
22.84
17.16
11.55
6.66
2.70
-0.64
-3.98
-7.91
-12.63
-17.93
-23.43
-28.77
-33.95
-39.28
-45.17
-52.03
-60.01
-69.05
-78.79
-88.55
-97.18
-103.20
-104.96
-101.15
-91.30
-76.05
-57.03
-36.42
-16.34
1.70
16.85
28.92
38.00
44.24
47.74
48.68
47.52
45.04
42.30
40.22
39.30
39.50
40.20
40.66
40.42
39.48
38.30
37.43
37.10
37.13
36.96
35.96
33.71
30.11
25.32
19.73
13.82
8.10
3.01
-1.17
-4.52
-7.34
-10.10
-13.10
-16.39
-19.81
-23.15
-26.41
-29.79
-33.54
-37.82
-42.65
-48.12
-54.44
-61.84
-70.14
-78.34
-84.56
-86.57
-82.64
-72.21
-56.21
-36.65
-15.81
4.30
22.29
37.36
49.10
57.35
62.19
64.00
63.38
61.06
57.69
53.85
50.05
46.70
44.06
42.18
40.89
39.91
39.06
38.29
37.69
37.27
36.81
35.83
33.78
30.34
25.60
20.06
14.38
9.08
4.34
-0.12
-4.81
-10.16
-16.26
-22.78
-29.01
-34.26
-38.14
-40.75
-42.75
-45.12
-48.85
-54.55
-62.23
-71.03
-79.33
-85.01
-85.98
-80.88
-69.44
-52.75
-32.87
-12.20
7.16
23.92
37.50
47.80
54.86
58.79
59.71
58.06
54.56
50.13
45.64
41.70
38.63
36.48
35.20
34.63
34.56
34.73
34.83
34.56
33.70
32.11
29.70
26.49
22.47
17.75
12.67
7.66
3.17
-0.55
-3.67
-6.69
-10.32
-15.03
-20.84
-27.25
-33.49
-38.91
-43.29
-46.96
-50.67
-55.26
-61.43
-69.35
-78.59
-87.98
-95.78
-99.99
-98.81
-91.21
-77.28
-58.28
-36.29
-13.75
7.17
24.92
38.72
48.47
54.59
57.70
58.42
57.32
54.87
51.57
48.00
44.80
42.59
41.68
41.92
42.79
43.57
43.67
42.85
41.31
39.50
37.83
36.41
34.94
32.76
29.22
23.96
17.21
9.69
2.34
-4.02
-9.15
-13.34
-17.24
-21.44
-26.18
-31.21
-35.99
-40.05
-43.18
-45.66
-48.08
-51.15
-55.53
-61.64
-69.48
-78.43
-87.18
-93.77
-96.09
-92.41
-82.01
-65.56
-44.83
-22.23
-0.12
19.64
35.91
48.21
56.61
61.52
63.61
63.66
62.46
60.56
58.32
55.95
53.63
51.61
50.09
49.06
48.36
47.64
46.63
45.27
43.76
42.30
40.93
39.38
37.16
33.86
29.35
23.84
17.87
11.99
6.59
1.83
-2.32
-5.99
-9.34
-12.54
-15.81
-19.35
-23.24
-27.45
-31.83
-36.17
-40.29
-44.11
-47.70
-51.32
-55.40
-60.50
-67.15
-75.44
-84.74
-93.60
-99.88
-101.29
-96.23
-84.33
-66.62
-45.22
-22.61
-0.98
18.22
34.20
46.68
55.56
60.87
62.84
61.98
59.13
55.34
51.61
48.60
46.50
45.18
44.32
43.68
43.16
42.80
42.61
42.52
42.31
41.73
40.66
39.11
37.25
35.31
33.46
31.86
30.63
29.90
29.75
30.03
30.30
29.78
27.52
22.78
15.16
4.87
-7.39
-20.58
-33.54
-45.19
-54.58
-61.05
-64.39
-65.00
-63.99
-62.82
-62.77
-64.23
-66.14
-66.17
-61.54
-50.14
-31.50
-7.11
20.15
47.03
70.92
90.47
105.45
116.26
123.34
126.84
126.72
123.06
116.39
107.73
98.41
89.68
82.31
76.46
71.85
67.99
64.52
61.28
58.34
55.85
54.03
53.25
53.99
56.71
61.40
67.33
72.90
76.06
74.99
68.77
57.71
43.11
26.74
10.15
-5.64
-20.05
-32.74
-43.36
-51.58
-57.36
-61.10
-63.63
-65.92
-68.72
-72.39
-76.93
-82.16
-87.87
-93.54
-98.03
-99.40
-95.18
-83.14
-62.46
-34.48
-2.65
28.23
53.52
70.00
76.43
73.37
62.49
45.79
25.27
2.98
-18.91
-38.19
-53.07
-62.84
-68.10
-70.44
-71.80
-73.55
-76.15
-79.28
-82.33
-84.98
-87.27
-89.42
-91.46
-93.13
-93.93
-93.53
-92.06
-89.98
-87.92
-86.34
-85.23
-84.27
-82.93
-80.76
-77.54
-73.33
-68.56
-63.87
-60.09
-58.03
-58.25
-60.83
-65.10
-69.61
-72.39
-71.39
-65.09
-53.07
-36.21
-16.38
4.10
23.21
39.69
53.18
63.87
72.11
77.96
81.19
81.46
78.64
73.15
65.94
58.28
51.33
45.84
41.89
38.95
36.16
32.64
27.79
21.45
13.90
5.74
-2.46
-10.36
-18.04
-25.94
-34.65
-44.51
-55.42
-66.70
-77.31
-86.19
-92.65
-96.61
-98.69
-100.35
-103.81
-111.69
-126.04
-147.09
-172.18
-195.65
-210.21
-209.35
-189.88
-153.17
-104.53
-50.94
1.56
49.63
92.66
131.39
166.36
196.93
221.55
238.76
248.10
250.23
246.44
237.88
225.11
208.42
188.45
166.62
145.08
125.94
110.43
98.59
89.43
81.62
74.24
66.76
58.84
49.74
38.37
23.65
5.38
-15.30
-36.11
-54.61
-69.37
-80.64
-90.27
-100.76
-114.13
-131.08
-150.79
-171.30
-190.09
-204.57
-212.50
-212.34
-203.64
-187.47
-166.42
-144.11
-124.03
-108.37
-97.40
-89.70
-83.11
-75.92
-67.59
-58.61
-49.95
-42.37
-36.01
-30.62
-25.87
-21.67
-18.05
-15.03
-12.33
-9.38
-5.55
-0.33
6.42
14.49
23.33
32.25
40.46
47.27
52.28
55.46
57.08
57.47
56.90
55.45
53.19
50.29
47.18
44.36
42.05
40.01
37.37
33.02
26.15
16.89
6.49
-2.72
-7.99
-7.13
0.74
14.77
32.66
51.48
68.66
82.67
93.26
100.99
106.68
110.87
113.76
115.31
115.59
114.93
113.81
112.60
111.41
109.96
107.85
104.75
100.62
95.70
90.49
85.40
80.67
76.21
71.61
66.33
59.96
52.32
43.62
34.42
25.51
17.60
11.12
6.12
2.23
-1.17
-4.79
-9.14
-14.33
-20.10
-25.78
-30.58
-34.00
-36.14
-37.82
-40.42
-45.39
-53.69
-65.28
-78.97
-92.42
-102.81
-107.49
-104.71
-94.24
-77.38
-56.62
-34.89
-14.78
2.06
14.96
24.09
29.96
33.11
33.94
32.87
30.32
26.85
23.03
19.29
15.88
12.79
9.86
6.93
3.97
1.21
-0.92
-1.91
-1.43
0.46
3.24
6.17
8.50
9.87
10.40
10.64
11.26
12.70
14.86
17.16
18.70
18.68
16.72
13.03
8.24
3.18
-1.52
-5.53
-8.78
-11.31
-13.20
-14.55
-15.74
-17.47
-20.48
-25.09
-30.71
-35.68
-37.83
-35.39
-27.91
-16.41
-3.05
9.88
20.79
29.21
35.48
40.14
43.49
45.41
45.76
44.66
42.82
41.23
40.81
42.09
45.07
49.36
54.44
59.90
65.49
70.94
75.75
79.24
80.62
79.49
76.25
72.17
69.06
68.49
71.16
76.37
82.19
85.85
84.62
76.65
61.51
40.40
15.85
-9.01
-31.37
-49.57
-63.39
-73.76
-82.01
-89.10
-95.23
-100.13
-103.50
-105.38
-106.00
-105.38
-102.87
-97.26
-87.46
-73.13
-55.03
-34.61
-13.25
8.24
29.56
50.19
68.73
82.87
90.37
90.18
83.32
72.66
61.72
53.29
48.40
46.39
45.60
44.45
42.00
38.05
32.78
26.34
18.68
9.53
-1.59
-15.16
-31.42
-50.18
-70.51
-90.74
-108.59
-121.61
-127.67
-125.60
-115.59
-99.39
-80.42
-63.43
-53.92
-56.87
-74.97
-106.98
-147.24
-186.73
-215.67
-226.60
-216.60
-187.68
-145.46
-96.89
-48.20
-3.91
32.91
60.07
75.84
79.27
70.87
52.99
29.54
5.09
-16.47
-32.68
-42.89
-47.82
-48.86
-47.25
-43.75
-38.60
-31.95
-24.15
-15.88
-7.95
-0.98
4.88
9.94
14.64
19.16
23.26
26.28
27.50
26.68
24.26
21.33
19.18
18.74
20.06
22.37
24.30
24.50
22.06
16.80
9.08
-0.40
-10.99
-22.33
-34.32
-46.87
-59.49
-70.96
-79.33
-82.31
-78.00
-65.82
-46.88
-23.81
0.07
21.80
39.65
53.33
63.54
71.09
76.22
78.54
77.51
73.16
66.52
59.35
53.56
50.35
49.86
51.28
53.22
54.22
52.80
47.59
37.41
21.70
1.00
-22.88
-47.32
-69.68
-88.12
-101.98
-111.44
-117.01
-119.14
-118.13
-114.53
-109.24
-103.41
-98.11
-93.84
-90.42
-87.25
-83.71
-79.51
-74.88
-70.42
-67.04
-65.64
-67.01
-71.41
-78.33
-86.34
-93.30
-96.85
-95.10
-87.10
-73.01
-53.97
-31.66
-7.95
15.32
36.57
54.54
68.40
77.79
82.85
84.17
82.68
79.48
75.65
72.07
69.27
67.42
66.34
65.71
65.26
64.86
64.42
63.83
62.88
61.25
58.72
55.27
51.10
46.46
41.48
36.08
30.10
23.57
16.86
10.61
5.44
1.58
-1.25
-3.78
-6.79
-10.75
-15.75
-21.59
-28.09
-35.23
-42.97
-50.82
-57.46
-60.91
-59.04
-50.50
-35.49
-15.76
5.89
26.67
44.69
59.25
70.61
79.37
85.90
90.26
92.49
92.93
92.35
91.71
91.68
92.32
93.09
93.23
92.19
89.82
86.31
81.90
76.70
70.65
63.72
56.16
48.47
41.28
35.04
29.86
25.52
21.82
18.64
16.06
14.18
12.97
12.23
11.62
10.81
9.54
7.66
4.97
1.13
-4.31
-11.82
-21.67
-33.69
-47.20
-61.06
-73.61
-82.96
-87.12
-84.58
-74.63
-57.76
-35.62
-10.72
14.16
36.60
54.83
67.86
75.31
77.32
74.54
68.09
59.58
50.79
43.28
37.99
35.10
34.05
33.87
33.64
32.78
31.29
29.68
28.57
28.39
29.04
29.94
30.17
28.86
25.51
20.14
13.16
5.17
-3.40
-12.24
-21.22
-30.14
-38.74
-46.64
-53.48
-59.02
-63.21
-66.22
-68.40
-70.31
-72.56
-75.76
-80.30
-86.21
-92.92
-99.28
-103.69
-104.40
-100.04
-90.05
-74.86
-55.90
-35.22
-14.95
3.08
17.63
28.08
34.32
36.61
35.56
32.10
27.32
22.40
18.35
15.74
14.69
14.83
15.57
16.28
16.50
16.11
15.29
14.44
13.93
13.96
14.46
15.05
15.32
14.96
13.95
12.51
10.99
9.58
8.17
6.42
3.81
-0.02
-5.14
-11.26
-17.80
-24.08
-29.56
-33.88
-36.99
-39.20
-41.15
-43.76
-47.97
-54.33
-62.47
-70.89
-77.10
-78.39
-72.81
-59.93
-41.18
-19.32
2.57
22.02
37.71
49.41
57.55
62.67
65.17
65.36
63.57
60.35
56.38
52.34
48.69
45.53
42.66
39.88
37.08
34.43
32.26
30.84
30.18
29.94
29.55
28.45
26.30
23.17
19.43
15.56
11.93
8.73
5.93
3.35
0.73
-2.17
-5.49
-9.24
-13.19
-17.02
-20.47
-23.54
-26.56
-30.22
-35.27
-42.11
-50.33
-58.53
-64.52
-65.95
-61.13
-49.78
-33.19
-13.87
5.35
22.28
35.79
45.90
53.09
57.77
59.90
59.28
55.96
50.66
44.72
39.61
36.26
34.74
34.24
33.74
32.50
30.51
28.32
26.52
25.40
24.70
23.84
22.34
20.03
17.08
13.76
10.17
6.19
1.58
-3.82
-9.97
-16.68
-23.59
-30.28
-36.33
-41.41
-45.42
-48.64
-51.76
-55.66
-61.07
-68.22
-76.80
-85.99
-94.62
-101.34
-104.64
-103.08
-95.63
-82.09
-63.46
-41.80
-19.64
0.71
17.83
31.30
41.39
48.59
53.31
55.78
56.17
54.80
52.21
49.10
46.11
43.66
41.79
40.21
38.53
36.57
34.51
32.80
31.89
31.90
32.44
32.79
32.28
30.58
27.75
24.10
19.90
15.23
10.06
4.24
-2.33
-9.73
-17.93
-26.63
-35.19
-42.72
-48.46
-52.18
-54.44
-56.43
-59.44
-64.38
-71.43
-80.02
-88.98
-96.73
-101.44
-101.45
-95.49
-83.30
-65.78
-44.88
-23.06
-2.59
14.96
28.87
39.06
45.80
49.53
50.73
50.09
48.32
46.10
43.94
42.13
40.71
39.63
38.84
38.40
38.42
39.09
40.47
42.46
44.65
46.39
46.97
45.90
43.18
39.38
35.41
32.11
29.82
28.25
26.54
23.75
19.20
12.91
5.52
-1.99
-8.72
-14.22
-18.73
-23.05
-28.14
-34.82
-43.51
-54.00
-65.62
-77.26
-87.53
-94.88
-97.85
-95.38
-87.18
-73.89
-57.05
-38.82
-21.49
-7.00
3.19
8.23
7.79
1.95
-8.88
-24.09
-42.83
-63.91
-85.62
-105.64
-121.23
-129.73
-129.31
-119.51
-101.18
-76.15
-46.58
-14.78
16.55
44.12
64.35
74.47
74.02
65.64
54.77
47.76
49.56
61.82
82.21
105.27
124.11
132.47
126.31
104.65
69.67
25.96
-20.88
-66.01
-106.90
-143.60
-177.77
-210.72
-241.77
-267.90
-285.15
-290.66
-284.40
-269.27
-249.63
-229.21
-209.65
-190.40
-170.11
-148.13
-125.42
-104.25
-86.95
-74.68
-66.99
-62.22
-58.37
-53.95
-48.28
-41.36
-33.47
-24.84
-15.49
-5.31
5.76
17.54
29.54
40.90
50.59
57.72
61.73
62.59
60.83
57.33
53.09
48.93
45.32
42.30
39.51
36.27
31.68
24.96
15.68
3.92
-9.69
-24.33
-39.21
-53.86
-68.06
-81.49
-93.29
-101.84
-104.90
-100.17
-86.13
-62.62
-31.12
5.46
43.70
80.50
114.02
144.11
172.21
200.72
232.32
269.48
313.77
365.14
420.97
475.47
520.22
546.39
547.99
524.94
483.77
435.23
389.75
353.03
324.24
297.85
267.53
229.98
186.15
139.78
94.55
52.22
12.50
-25.37
-60.84
-91.74
-115.08
-128.83
-133.19
-130.64
-124.81
-119.01
-115.16
-113.32
-112.21
-110.01
-105.37
-98.06
-89.27
-81.20
-76.27
-76.22
-81.47
-90.92
-102.44
-113.59
-122.43
-127.92
-129.99
-129.28
-126.66
-122.81
-118.09
-112.56
-106.13
-98.86
-90.92
-82.70
-74.64
-67.19
-60.72
-55.50
-51.70
-49.40
-48.61
-49.18
-50.77
-52.92
-55.08
-56.87
-58.30
-59.91
-62.68
-67.77
-75.93
-87.04
-99.77
-111.64
-119.68
-121.20
-114.60
-99.79
-78.15
-52.03
-24.10
3.23
28.07
49.19
66.09
78.91
88.34
95.41
101.14
106.15
110.51
113.81
115.49
115.20
113.09
109.74
105.98
102.73
100.79
100.81
103.15
107.77
114.15
121.24
127.64
131.94
133.24
131.54
127.80
123.68
120.93
120.60
122.62
125.81
128.46
129.12
127.14
122.79
116.86
110.19
103.41
97.09
92.07
89.50
90.57
95.90
105.14
116.89
129.33
140.92
150.96
159.64
167.57
175.02
181.37
185.01
183.79
175.89
160.61
138.95
113.46
87.52
64.33
46.06
33.44
26.05
22.82
22.59
24.21
26.34
27.26
25.08
18.38
6.88
-8.19
-24.49
-39.45
-51.39
-60.03
-66.39
-71.97
-77.90
-84.48
-91.34
-97.99
-104.40
-111.02
-118.58
-127.45
-137.33
-147.24
-155.79
-161.49
-162.98
-159.19
-149.48
-133.79
-112.74
-87.77
-60.85
-34.21
-9.73
11.49
29.45
45.29
60.80
77.98
98.32
122.47
149.95
179.16
207.41
231.16
246.58
250.34
240.58
217.57
183.87
143.48
100.50
57.89
16.85
-22.70
-61.28
-98.95
-135.07
-168.67
-198.98
-225.64
-248.61
-267.78
-282.94
-293.91
-301.05
-305.48
-308.93
-313.03
-318.53
-324.84
-330.17
-332.26
-329.30
-320.59
-306.59
-288.54
-267.56
-243.91
-216.71
-184.47
-146.15
-102.33
-55.57
-10.03
30.01
61.68
84.47
100.14
111.56
121.30
130.43
138.40
143.60
144.28
139.40
128.97
113.97
96.01
77.01
58.75
42.56
28.99
17.77
7.89
-1.89
-12.71
-25.22
-39.50
-55.04
-70.88
-85.78
-98.42
-107.69
-113.11
-115.06
-114.86
-114.48
-115.84
-120.15
-127.31
-135.89
-143.49
-147.41
-145.31
-135.84
-118.71
-94.62
-65.03
-31.72
3.39
38.47
71.87
102.18
128.31
149.55
165.53
176.34
182.50
184.77
184.11
181.36
177.18
171.96
165.90
159.20
152.11
145.03
138.48
132.99
128.86
126.08
124.20
122.39
119.64
114.97
107.76
97.78
85.31
70.92
55.23
38.87
22.25
5.63
-10.93
-27.60
-44.81
-63.03
-82.53
-102.92
-122.81
-139.88
-151.31
-154.65
-148.64
-133.75
-112.06
-86.59
-60.51
-36.33
-15.57
1.14
13.72
22.39
27.40
29.03
27.79
24.36
19.69
14.82
10.65
7.74
6.19
5.68
5.73
5.93
6.21
6.75
7.89
9.74
12.05
14.07
14.87
13.69
10.21
4.78
-1.79
-8.53
-14.69
-20.04
-24.89
-29.92
-35.94
-43.64
-53.35
-64.89
-77.34
-89.15
-98.23
-102.47
-100.27
-91.07
-75.58
-55.34
-32.48
-9.09
13.05
32.46
47.98
58.75
64.34
64.72
60.38
52.18
41.56
30.61
21.86
17.53
18.60
24.13
31.42
37.15
38.99
36.68
31.99
27.49
24.88
24.01
23.06
19.88
13.43
4.45
-5.02
-12.87
-18.26
-21.90
-25.84
-32.31
-42.78
-57.26
-74.23
-90.98
-104.36
-111.48
-110.45
-100.77
-83.54
-61.36
-37.74
-16.27
0.44
11.34
17.07
19.25
19.53
18.73
16.71
13.03
7.88
2.67
-0.11
2.06
10.54
24.76
42.37
60.08
74.93
85.05
89.86
89.97
86.80
82.23
77.88
74.50
71.18
65.44
54.14
35.27
9.47
-19.45
-45.64
-63.58
-70.49
-67.69
-60.01
-53.59
-53.16
-60.01
-71.73
-83.48
-90.19
-88.28
-76.58
-55.87
-28.04
4.61
39.59
73.98
104.33
127.34
141.07
146.01
145.03
142.02
140.02
139.83
139.82
137.16
129.28
115.13
95.37
71.91
47.13
23.26
2.08
-15.28
-28.38
-37.38
-42.80
-45.13
-44.57
-41.16
-35.22
-27.74
-20.41
-15.05
-12.79
-13.66
-16.74
-20.91
-25.60
-31.21
-38.79
-49.57
-64.38
-83.34
-105.76
-129.99
-153.39
-172.41
-183.25
-182.88
-170.28
-147.02
-116.87
-84.57
-54.13
-27.78
-5.92
11.95
26.22
36.46
41.71
41.23
35.34
25.71
14.90
5.51
-0.59
-2.70
-1.14
3.22
9.40
16.59
24.06
31.09
36.92
40.86
42.66
42.66
41.86
41.56
42.93
46.55
52.03
57.90
61.97
61.86
56.00
44.36
28.84
12.74
-0.54
-8.89
-12.48
-13.65
-15.62
-20.88
-29.89
-40.96
-51.09
-57.37
-58.12
-53.12
-43.26
-29.90
-14.34
2.24
18.78
34.16
47.37
57.76
65.39
71.09
76.10
81.63
88.37
96.16
104.22
111.57
117.43
121.59
124.32
126.19
127.67
128.88
129.28
127.77
122.87
113.30
98.52
79.13
56.93
34.40
13.84
-3.50
-17.76
-30.12
-42.05
-54.51
-67.56
-80.52
-92.63
-103.56
-113.79
-124.46
-136.97
-152.22
-169.97
-188.44
-204.37
-213.85
-213.34
-200.96
-177.18
-144.74
-107.79
-70.65
-36.72
-7.96
14.93
31.97
43.48
49.86
51.76
50.27
46.96
43.52
41.36
41.14
42.73
45.43
48.42
51.10
53.26
54.95
56.25
57.08
57.18
56.17
53.77
49.91
44.79
38.71
32.00
24.92
17.59
10.10
2.53
-5.01
-12.39
-19.51
-26.34
-33.06
-39.93
-47.42
-56.03
-66.18
-77.76
-89.84
-100.48
-107.00
-106.67
-97.69
-79.97
-55.34
-27.04
1.23
26.44
46.80
61.81
71.81
77.42
79.16
77.48
72.99
66.61
59.57
53.19
48.52
46.05
45.67
46.77
48.58
50.29
51.36
51.49
50.65
49.01
46.72
43.90
40.44
36.15
30.76
24.14
16.36
7.76
-1.13
-9.76
-17.74
-24.90
-31.48
-37.94
-44.97
-53.23
-63.15
-74.67
-86.93
-98.23
-106.20
-108.32
-102.64
-88.50
-66.91
-40.32
-11.97
15.01
38.31
56.78
70.19
78.89
83.33
83.92
81.06
75.40
67.91
59.81
52.37
46.63
43.20
42.17
43.24
45.82
49.16
52.47
54.91
55.81
54.67
51.36
46.06
39.23
31.43
23.12
14.57
5.83
-3.10
-12.23
-21.46
-30.54
-39.24
-47.42
-55.12
-62.59
-70.28
-78.77
-88.51
-99.57
-111.24
-121.89
-129.08
-130.21
-123.33
-107.99
-85.51
-58.59
-30.52
-4.13
18.68
37.08
50.95
60.47
65.86
67.48
65.94
62.15
57.32
52.64
49.06
47.12
46.95
48.31
50.79
53.87
56.95
59.48
60.94
60.91
59.16
55.70
50.76
44.67
37.76
30.24
22.24
13.74
4.83
-4.36
-13.62
-22.71
-31.44
-39.68
-47.46
-55.00
-62.78
-71.42
-81.41
-92.73
-104.38
-114.31
-119.77
-118.15
-107.81
-88.87
-63.23
-34.06
-4.91
21.28
42.71
58.82
69.93
76.78
80.13
80.59
78.76
75.32
71.09
66.85
63.24
60.57
58.81
57.69
56.94
56.37
55.92
55.54
55.07
54.18
52.44
49.45
45.09
39.47
32.96
25.94
18.69
11.26
3.56
-4.49
-12.89
-21.42
-29.73
-37.43
-44.35
-50.58
-56.55
-62.90
-70.38
-79.51
-90.30
-101.87
-112.40
-119.39
-120.25
-113.14
-97.62
-74.93
-47.72
-19.32
7.17
29.53
46.71
58.63
65.84
69.07
69.04
66.44
61.98
56.46
50.79
45.83
42.22
40.25
39.83
40.53
41.77
42.98
43.76
43.83
43.10
41.55
39.24
36.19
32.41
27.80
22.25
15.69
8.20
0.06
-8.26
-16.32
-23.80
-30.65
-37.14
-43.68
-50.73
-58.73
-67.99
-78.49
-89.68
-100.15
-107.76
-109.96
-104.67
-91.00
-69.78
-43.45
-15.34
11.24
33.87
51.36
63.54
70.93
74.24
74.16
71.33
66.47
60.39
54.00
48.15
43.45
40.22
38.41
37.75
37.77
38.03
38.12
37.70
36.57
34.62
31.87
28.38
24.18
19.28
13.56
6.94
-0.63
-8.99
-17.80
-26.55
-34.81
-42.34
-49.11
-55.47
-61.94
-69.21
-77.93
-88.39
-100.22
-112.10
-121.74
-126.32
-123.32
-111.40
-91.04
-64.46
-35.02
-6.21
19.18
39.56
54.56
64.55
70.30
72.65
72.33
70.08
66.61
62.67
58.85
55.59
53.01
51.06
49.56
48.35
47.41
46.79
46.51
46.37
45.89
44.45
41.51
36.92
30.98
24.34
17.66
11.32
5.20
-1.18
-8.36
-16.59
-25.60
-34.77
-43.34
-50.84
-57.26
-63.12
-69.29
-76.69
-86.01
-97.33
-109.89
-121.90
-130.81
-133.78
-128.62
-114.49
-92.34
-64.74
-35.12
-6.79
17.84
37.61
52.43
62.89
69.69
73.48
74.77
74.12
72.19
69.75
67.51
65.95
65.15
64.89
64.80
64.61
64.26
63.86
63.54
63.16
62.33
60.47
57.06
51.90
45.22
37.64
29.94
22.69
16.10
9.89
3.51
-3.57
-11.57
-20.26
-29.08
-37.30
-44.43
-50.40
-55.59
-60.79
-66.98
-75.02
-85.31
-97.39
-109.75
-119.89
-124.76
-121.70
-109.27
-87.91
-59.91
-28.90
1.25
27.34
47.50
61.26
69.15
72.18
71.41
67.76
62.03
55.04
47.63
40.59
34.40
29.15
24.53
20.04
15.30
10.27
5.14
-0.02
-5.61
-12.67
-22.64
-36.62
-54.74
-75.77
-97.40
-116.94
-132.26
-142.36
-147.48
-148.72
-147.49
-145.12
-142.64
-140.91
-140.62
-142.27
-145.89
-150.79
-155.60
-158.66
-158.60
-154.82
-147.60
-137.65
-125.40
-110.52
-91.94
-68.38
-39.16
-4.84
32.75
71.03
107.45
140.21
168.55
192.57
212.78
229.66
243.35
253.54
259.61
260.97
257.33
249.04
237.13
223.22
208.87
195.25
182.90
171.52
160.55
149.50
138.01
125.82
112.70
98.71
84.72
72.39
63.72
60.01
60.81
63.59
64.66
60.59
49.93
33.71
14.98
-2.63
-16.28
-24.85
-28.93
-30.33
-31.42
-34.36
-40.62
-50.37
-62.32
-73.86
-82.18
-85.16
-81.96
-73.39
-61.34
-48.12
-35.76
-25.62
-18.45
-14.52
-13.69
-15.50
-19.19
-23.70
-27.89
-30.88
-32.20
-31.99
-30.77
-29.08
-27.28
-25.34
-22.84
-19.35
-14.58
-8.67
-2.16
4.13
9.37
12.86
14.26
13.54
11.04
7.37
3.28
-0.56
-3.72
-6.10
-8.01
-10.08
-13.09
-17.87
-25.00
-34.58
-45.92
-57.56
-67.27
-72.69
-72.00
-64.52
-51.07
-33.62
-14.82
2.89
17.73
28.91
36.44
40.79
42.59
42.38
40.57
37.45
33.34
28.63
23.72
19.00
14.71
10.95
7.70
4.99
2.93
1.73
1.57
2.39
3.80
5.13
5.64
4.81
2.59
-0.62
-4.13
-7.34
-10.00
-12.40
-15.20
-19.16
-24.78
-32.04
-40.29
-48.32
-54.68
-57.93
-56.98
-51.36
-41.31
-27.67
-11.67
5.29
21.89
36.93
49.24
57.64
60.94
58.32
49.93
37.19
22.78
9.94
1.41
-1.54
0.57
5.84
11.97
17.26
21.15
23.94
26.23
28.20
29.44
29.18
26.83
22.37
16.33
9.63
3.10
-2.79
-8.01
-12.95
-18.18
-24.32
-31.83
-40.92
-51.34
-62.20
-72.01
-78.87
-80.91
-76.89
-66.56
-50.91
-31.85
-11.71
7.41
24.12
37.93
49.04
57.92
64.74
69.21
70.63
68.31
62.17
52.95
42.10
31.17
21.22
12.43
4.34
-3.69
-11.95
-20.14
-27.65
-33.96
-38.96
-42.95
-46.32
-49.17
-51.23
-51.90
-50.57
-46.95
-41.22
-33.99
-26.24
-19.19
-14.16
-12.43
-14.90
-21.56
-31.21
-41.37
-48.73
-50.08
-43.24
-27.71
-4.68
23.44
53.78
83.70
111.18
134.82
153.88
168.20
178.18
184.79
189.35
193.22
197.33
201.95
206.33
208.83
207.24
199.54
184.65
163.18
137.48
111.01
87.25
68.45
55.02
45.76
38.79
32.51
26.03
18.90
10.55
-0.17
-14.86
-35.00
-61.30
-93.69
-131.58
-174.26
-220.76
-269.11
-315.53
-354.34
-379.16
-385.02
-370.43
-338.33
-295.19
-248.77
-205.54
-169.10
-140.07
-117.26
-99.24
-85.34
-75.62
-70.02
-67.40
-65.22
-60.05
-48.89
-30.72
-7.29
17.19
37.37
48.69
48.89
38.57
20.78
0.10
-18.32
-29.52
-29.49
-16.15
9.72
43.99
79.78
109.28
126.12
127.23
113.22
87.33
53.58
15.26
-25.67
-68.11
-110.95
-152.45
-190.10
-220.90
-241.87
-250.49
-245.23
-226.27
-195.78
-157.84
-117.59
-79.88
-47.97
-23.05
-4.34
9.82
20.95
29.72
35.82
38.19
35.66
27.67
14.93
-0.05
-13.03
-18.94
-13.69
3.79
30.11
57.55
76.19
77.05
55.50
13.23
-41.96
-98.47
-144.32
-170.44
-172.54
-151.44
-111.94
-60.90
-5.48
48.10
95.00
131.95
157.32
171.49
176.90
177.77
178.93
184.13
194.50
208.01
220.23
226.32
223.05
210.08
189.90
166.49
143.53
122.98
104.84
87.65
69.58
49.37
26.95
3.35
-19.53
-39.54
-54.83
-64.28
-67.74
-65.89
-60.10
-51.94
-42.93
-34.34
-27.23
-22.49
-20.85
-22.73
-28.15
-36.54
-46.86
-57.81
-68.16
-77.07
-84.24
-89.99
-95.15
-100.80
-107.79
-116.23
-125.20
-132.61
-135.86
-132.56
-121.50
-103.08
-79.17
-52.41
-25.37
0.05
22.79
42.40
58.62
71.16
79.73
84.27
85.20
83.43
80.23
76.75
73.66
71.05
68.50
65.51
61.81
57.59
53.42
49.82
47.00
44.63
41.97
38.19
32.74
25.60
17.27
8.54
0.13
-7.55
-14.54
-21.30
-28.49
-36.76
-46.53
-57.77
-69.92
-81.72
-91.32
-96.58
-95.62
-87.49
-72.52
-52.36
-29.48
-6.43
14.80
33.13
48.22
60.11
68.92
74.67
77.41
77.41
75.25
71.83
68.13
64.96
62.78
61.65
61.27
61.10
60.58
59.30
57.11
54.11
50.60
46.89
43.24
39.64
35.87
31.52
26.22
19.72
12.10
3.72
-4.86
-13.09
-20.63
-27.43
-33.75
-40.06
-47.01
-55.16
-64.80
-75.67
-86.72
-96.06
-101.35
-100.47
-92.25
-76.99
-56.42
-33.15
-9.86
11.38
29.35
43.61
54.20
61.30
65.17
66.25
65.18
62.84
60.13
57.77
56.13
55.22
54.77
54.44
54.00
53.40
52.69
51.97
51.13
49.90
47.92
44.88
40.74
35.71
30.21
24.66
19.28
14.06
8.77
3.15
-2.95
-9.45
-16.08
-22.55
-28.65
-34.41
-40.11
-46.26
-53.45
-62.07
-72.01
-82.40
-91.58
-97.34
-97.60
-91.12
-77.94
-59.52
-38.22
-16.60
3.28
20.22
33.89
44.37
51.91
56.69
58.82
58.57
56.51
53.38
50.03
47.12
44.99
43.63
42.85
42.36
41.92
41.34
40.48
39.25
37.58
35.48
32.99
30.16
26.98
23.35
19.08
13.96
7.95
1.14
-6.17
-13.63
-20.87
-27.67
-33.93
-39.74
-45.39
-51.32
-58.13
-66.28
-75.83
-86.00
-95.14
-100.92
-101.08
-94.20
-80.34
-61.08
-38.98
-16.74
3.55
20.77
34.63
45.29
53.03
58.10
60.71
61.26
60.34
58.63
56.68
54.80
53.06
51.37
49.71
48.17
46.93
46.18
45.89
45.80
45.43
44.23
41.82
38.13
33.45
28.29
23.12
18.18
13.33
8.16
2.19
-4.87
-12.97
-21.69
-30.40
-38.52
-45.63
-51.65
-56.83
-61.74
-67.15
-73.67
-81.47
-89.90
-97.39
-101.78
-100.95
-93.55
-79.64
-60.68
-39.01
-17.17
2.86
19.97
33.79
44.47
52.31
57.61
60.66
61.81
61.49
60.24
58.51
56.62
54.70
52.76
50.81
48.90
47.20
45.84
44.90
44.17
43.24
41.58
38.73
34.58
29.38
23.77
18.37
13.64
9.55
5.69
1.41
-3.87
-10.37
-17.84
-25.68
-33.15
-39.69
-45.11
-49.70
-54.11
-59.23
-65.87
-74.44
-84.65
-95.30
-104.42
-109.74
-109.24
-101.90
-88.01
-69.09
-47.40
-25.27
-4.53
13.72
29.03
41.32
50.68
57.23
61.17
62.80
62.58
61.11
59.03
56.91
55.16
53.93
53.11
52.41
51.58
50.48
49.24
48.03
46.96
45.89
44.40
41.99
38.31
33.42
27.74
21.87
16.32
11.22
6.27
0.96
-5.17
-12.22
-19.88
-27.56
-34.63
-40.70
-45.81
-50.39
-55.13
-60.73
-67.72
-76.22
-85.78
-95.25
-102.91
-106.74
-105.04
-96.90
-82.67
-63.79
-42.46
-20.95
-1.05
16.18
30.39
41.57
49.84
55.27
58.03
58.43
57.04
54.62
51.86
49.33
47.27
45.70
44.47
43.46
42.59
41.81
41.07
40.19
38.90
36.92
34.04
30.24
25.69
20.65
15.34
9.90
4.29
-1.57
-7.78
-14.30
-20.97
-27.54
-33.78
-39.63
-45.18
-50.78
-56.89
-64.01
-72.42
-81.88
-91.38
-99.20
-103.25
-101.64
-93.45
-79.03
-59.98
-38.63
-17.32
2.12
18.73
32.25
42.92
51.06
56.92
60.68
62.46
62.50
61.18
59.01
56.51
54.08
51.86
49.82
47.83
45.84
43.99
42.44
41.32
40.48
39.47
37.71
34.70
30.33
24.91
19.06
13.39
8.28
3.65
-0.88
-5.82
-11.51
-17.95
-24.82
-31.59
-37.77
-43.10
-47.70
-52.05
-56.86
-62.89
-70.68
-80.26
-90.93
-101.24
-109.11
-112.38
-109.43
-99.72
-84.01
-64.16
-42.49
-21.20
-1.81
14.88
28.63
39.52
47.74
53.50
57.12
59.04
59.75
59.74
59.35
58.75
57.97
56.97
55.74
54.28
52.73
51.27
50.06
49.17
48.39
47.33
45.45
42.32
37.87
32.45
26.71
21.31
16.65
12.61
8.65
3.99
-1.95
-9.28
-17.56
-25.94
-33.58
-39.94
-45.03
-49.38
-53.82
-59.16
-65.99
-74.43
-84.09
-93.93
-102.31
-107.21
-106.71
-99.61
-85.90
-66.92
-45.02
-22.85
-2.60
14.44
27.96
38.23
45.78
51.04
54.26
55.68
55.65
54.67
53.28
51.96
50.84
49.89
48.90
47.77
46.63
45.80
45.60
46.14
47.16
47.98
47.88
46.25
42.93
38.15
32.46
26.43
20.50
14.82
9.27
3.60
-2.50
-9.16
-16.25
-23.39
-30.10
-35.93
-40.76
-44.87
-48.94
-53.87
-60.51
-69.13
-79.21
-89.34
-97.35
-100.94
-98.36
-88.94
-73.40
-53.62
-32.00
-10.89
8.01
23.77
36.19
45.43
51.83
55.71
57.43
57.43
56.30
54.71
53.23
52.25
51.75
51.45
50.92
49.87
48.32
46.64
45.27
44.48
44.10
43.51
41.94
38.80
33.99
27.99
21.65
15.79
10.81
6.62
2.61
-1.87
-7.29
-13.70
-20.68
-27.66
-34.04
-39.58
-44.33
-48.72
-53.33
-58.83
-65.78
-74.43
-84.45
-94.76
-103.52
-108.46
-107.56
-99.75
-85.34
-66.02
-44.29
-22.69
-3.05
13.71
27.50
38.57
47.22
53.55
57.61
59.63
60.01
59.42
58.50
57.71
57.24
57.00
56.81
56.54
56.14
55.68
55.24
54.80
54.26
53.43
52.06
49.98
47.10
43.45
39.20
34.61
29.93
25.33
20.73
15.80
10.12
3.35
-4.58
-13.32
-22.20
-30.45
-37.48
-43.09
-47.59
-51.70
-56.39
-62.54
-70.65
-80.59
-91.33
-101.11
-107.69
-109.05
-103.91
-92.24
-75.27
-55.08
-34.00
-13.99
3.72
18.66
30.87
40.61
48.11
53.57
57.17
59.19
59.93
59.73
58.83
57.40
55.55
53.43
51.21
49.11
47.33
45.98
44.95
43.98
42.74
40.86
38.17
34.64
30.46
25.87
21.08
16.24
11.30
6.12
0.56
-5.47
-11.89
-18.53
-25.10
-31.34
-37.13
-42.52
-47.84
-53.58
-60.31
-68.40
-77.82
-87.80
-96.82
-102.82
-103.69
-98.05
-85.71
-67.91
-46.92
-25.34
-5.35
11.80
25.81
36.90
45.37
51.38
54.80
55.62
54.09
50.90
47.01
43.34
40.52
38.70
37.68
37.05
36.46
35.75
34.94
34.06
33.12
32.00
30.46
28.29
25.30
21.39
16.56
10.89
4.59
-2.07
-8.77
-15.25
-21.45
-27.51
-33.68
-40.33
-47.84
-56.46
-66.23
-76.72
-86.87
-95.04
-99.25
-97.79
-89.79
-75.66
-56.99
-36.11
-15.39
3.38
19.26
32.03
41.93
49.27
54.28
57.10
57.87
56.91
54.67
51.78
48.78
46.06
43.77
41.87
40.29
39.03
38.09
37.43
36.74
35.53
33.30
29.76
25.02
19.51
13.75
8.11
2.63
-2.90
-8.76
-15.10
-21.84
-28.68
-35.26
-41.26
-46.52
-51.15
-55.54
-60.34
-66.30
-73.97
-83.34
-93.52
-102.73
-108.63
-109.01
-102.48
-89.09
-70.29
-48.51
-26.38
-5.94
11.63
26.02
37.45
46.30
52.86
57.37
60.04
61.21
61.30
60.71
59.72
58.44
56.90
55.12
53.19
51.32
49.73
48.56
47.77
47.07
46.00
44.07
40.94
36.61
31.45
26.00
20.78
16.06
11.76
7.44
2.57
-3.19
-9.90
-17.17
-24.42
-31.10
-36.96
-42.12
-47.12
-52.75
-59.79
-68.65
-79.07
-89.92
-99.30
-104.94
-104.81
-97.83
-84.24
-65.58
-44.24
-22.72
-3.05
13.68
27.26
38.04
46.61
53.42
58.71
62.51
64.90
66.06
66.28
65.92
65.17
64.10
62.58
60.54
58.03
55.36
52.95
51.21
50.19
49.65
48.91
47.25
44.18
39.57
33.85
27.69
21.77
16.53
11.96
7.68
3.14
-2.08
-8.12
-14.76
-21.57
-28.09
-34.02
-39.34
-44.27
-49.20
-54.59
-60.91
-68.43
-77.07
-86.17
-94.34
-99.70
-100.29
-94.79
-83.04
-66.22
-46.47
-26.20
-7.42
8.71
21.87
32.28
40.28
46.14
49.98
51.98
52.42
51.81
50.73
49.65
48.85
48.27
47.71
46.94
45.87
44.63
43.43
42.46
41.64
40.71
39.27
37.00
33.79
29.82
25.38
20.79
16.25
11.76
7.21
2.47
-2.54
-7.77
-13.04
-18.16
-23.01
-27.65
-32.39
-37.60
-43.71
-51.04
-59.61
-68.99
-78.11
-85.38
-88.94
-87.23
-79.55
-66.34
-49.17
-30.21
-11.58
5.18
19.32
30.70
39.48
45.81
49.79
51.56
51.39
49.78
47.39
44.90
42.78
41.31
40.49
40.15
40.07
40.05
40.00
39.82
39.43
38.69
37.37
35.26
32.29
28.54
24.24
19.73
15.20
10.69
6.03
0.94
-4.79
-11.19
-18.07
-25.02
-31.58
-37.46
-42.58
-47.18
-51.81
-57.21
-64.06
-72.61
-82.34
-91.78
-98.76
-101.00
-96.85
-86.00
-69.59
-49.84
-29.32
-10.10
6.60
20.48
31.77
40.77
47.63
52.38
55.05
55.94
55.60
54.76
54.05
53.77
53.87
54.01
53.83
53.11
51.88
50.42
49.04
47.94
47.06
46.07
44.50
41.95
38.25
33.55
28.24
22.81
17.60
12.73
8.05
3.30
-1.81
-7.44
-13.53
-19.87
-26.16
-32.10
-37.52
-42.42
-46.99
-51.56
-56.59
-62.57
-69.90
-78.61
-88.14
-97.12
-103.56
-105.36
-100.97
-90.09
-73.81
-54.33
-34.21
-15.56
0.48
13.71
24.56
33.53
40.93
46.76
50.93
53.45
54.56
54.74
54.47
54.17
53.94
53.70
53.25
52.46
51.36
50.16
49.14
48.46
48.06
47.64
46.73
44.89
41.88
37.72
32.76
27.46
22.24
17.36
12.80
8.29
3.48
-1.98
-8.24
-15.18
-22.37
-29.22
-35.19
-39.95
-43.64
-46.80
-50.31
-55.14
-61.98
-70.93
-81.23
-91.27
-98.87
-101.88
-98.82
-89.39
-74.52
-56.09
-36.33
-17.16
0.11
14.88
27.01
36.61
43.85
48.94
52.18
53.88
54.41
54.13
53.33
52.23
50.97
49.59
48.07
46.43
44.74
43.18
41.93
41.14
40.71
40.31
39.45
37.68
34.77
30.81
26.20
21.47
17.03
13.07
9.38
5.56
1.10
-4.28
-10.52
-17.20
-23.74
-29.62
-34.60
-38.81
-42.66
-46.75
-51.69
-58.01
-65.91
-75.10
-84.63
-92.93
-98.05
-98.22
-92.43
-80.81
-64.68
-46.09
-27.23
-9.82
5.17
17.44
27.11
34.38
39.40
42.29
43.20
42.50
40.69
38.41
36.21
34.49
33.41
32.98
33.04
33.38
33.78
33.99
33.82
33.09
31.67
29.51
26.64
23.17
19.22
14.87
10.16
5.13
-0.19
-5.72
-11.30
-16.73
-21.85
-26.60
-31.07
-35.56
-40.54
-46.47
-53.67
-61.97
-70.59
-78.12
-82.72
-82.72
-77.13
-66.05
-50.72
-33.06
-15.19
1.20
15.15
26.36
35.00
41.36
45.72
48.22
49.06
48.52
46.98
44.95
42.91
41.27
40.26
39.91
40.08
40.52
40.90
40.95
40.44
39.26
37.32
34.57
31.06
26.85
22.16
17.19
12.13
6.99
1.61
-4.22
-10.68
-17.70
-24.98
-32.07
-38.62
-44.49
-49.85
-55.12
-60.87
-67.61
-75.52
-84.16
-92.32
-98.16
-99.63
-95.24
-84.58
-68.63
-49.41
-29.31
-10.34
6.32
20.30
31.78
40.97
47.97
52.80
55.53
56.52
56.33
55.61
54.86
54.30
53.79
53.07
51.92
50.26
48.33
46.50
45.10
44.20
43.55
42.62
40.84
37.89
33.79
28.94
23.92
19.21
14.95
10.94
6.75
1.95
-3.64
-9.95
-16.61
-23.16
-29.19
-34.54
-39.31
-43.86
-48.79
-54.72
-62.16
-71.18
-81.18
-90.81
-98.12
-101.06
-98.10
-88.79
-73.90
-55.27
-35.19
-15.74
1.65
16.39
28.51
38.33
46.14
52.08
56.17
58.47
59.18
58.67
57.37
55.71
54.00
52.32
50.76
49.32
48.09
47.15
46.53
46.06
45.49
44.43
42.59
39.79
36.09
31.76
27.21
22.80
18.75
14.95
11.06
6.63
1.33
-4.85
-11.60
-18.33
-24.53
-29.96
-34.78
-39.56
-44.98
-51.67
-59.91
-69.37
-79.04
-87.35
-92.38
-92.46
-86.64
-75.05
-58.96
-40.38
-21.52
-4.16
10.61
22.49
31.67
38.52
43.34
46.31
47.60
47.50
46.45
45.00
43.63
42.68
42.16
41.93
41.70
41.32
40.74
40.07
39.32
38.39
37.00
34.88
31.88
28.11
23.91
19.63
15.43
11.19
6.54
1.12
-5.19
-12.15
-19.24
-25.88
-31.70
-36.68
-41.24
-46.03
-51.79
-59.03
-67.72
-77.16
-85.87
-91.87
-93.22
-88.60
-77.86
-62.11
-43.35
-23.89
-5.65
10.18
23.16
33.42
41.28
47.04
50.94
53.16
53.94
53.62
52.57
51.20
49.86
48.68
47.65
46.65
45.57
44.46
43.45
42.72
42.28
41.87
41.01
39.19
36.09
31.77
26.60
21.12
15.85
11.00
6.50
2.00
-2.91
-8.52
-14.82
-21.54
-28.22
-34.41
-39.88
-44.68
-49.14
-53.83
-59.39
-66.35
-74.77
-84.06
-92.79
-98.98
-100.59
-96.19
-85.53
-69.63
-50.50
-30.51
-11.65
4.84
18.50
29.53
38.36
45.35
50.68
54.36
56.40
56.97
56.46
55.36
54.15
53.13
52.31
51.51
50.52
49.22
47.69
46.17
44.87
43.81
42.74
41.22
38.79
35.18
30.49
25.16
19.79
14.95
10.92
7.54
4.26
0.44
-4.45
-10.52
-17.40
-24.44
-30.88
-36.21
-40.38
-43.79
-47.24
-51.63
-57.71
-65.70
-75.09
-84.57
-92.19
-95.92
-94.21
-86.58
-73.76
-57.45
-39.74
-22.44
-6.73
6.93
18.51
28.16
35.94
41.84
45.91
48.26
49.26
49.33
48.91
48.30
47.70
47.16
46.67
46.18
45.66
45.14
44.69
44.37
44.16
43.91
43.33
42.04
39.75
36.36
32.02
27.12
22.10
17.34
12.90
8.60
4.08
-1.00
-6.78
-13.18
-19.85
-26.36
-32.33
-37.56
-42.07
-46.18
-50.32
-55.03
-60.80
-67.85
-75.89
-83.98
-90.56
-93.77
-92.08
-84.74
-72.24
-56.13
-38.41
-20.99
-5.15
8.53
20.00
29.33
36.58
41.73
44.81
46.08
45.94
44.89
43.36
41.65
39.95
38.41
37.12
36.13
35.44
34.93
34.37
33.55
32.24
30.34
27.86
24.88
21.62
18.21
14.75
11.19
7.41
3.22
-1.52
-6.73
-12.21
-17.65
-22.74
-27.36
-31.60
-35.80
-40.43
-45.99
-52.70
-60.32
-68.01
-74.33
-77.58
-76.28
-69.67
-58.09
-42.92
-26.11
-9.66
4.98
17.14
26.76
34.16
39.67
43.42
45.40
45.65
44.36
42.02
39.29
36.79
34.94
33.90
33.45
33.22
32.75
31.71
29.96
27.56
24.68
21.52
18.25
14.95
11.61
8.17
4.49
0.46
-3.96
-8.73
-13.76
-18.88
-23.99
-29.08
-34.20
-39.53
-45.26
-51.65
-58.90
-67.01
-75.55
-83.49
-89.24
-91.02
-87.41
-77.94
-63.36
-45.44
-26.42
-8.30
7.56
20.65
31.03
38.99
44.80
48.61
50.57
50.88
49.95
48.27
46.33
44.43
42.71
41.12
39.58
38.06
36.62
35.40
34.43
33.57
32.51
30.90
28.48
25.28
21.60
17.82
14.20
10.72
7.06
2.80
-2.40
-8.58
-15.45
-22.50
-29.15
-35.05
-40.18
-44.85
-49.68
-55.36
-62.42
-71.03
-80.71
-90.28
-98.00
-101.96
-100.61
-93.29
-80.44
-63.51
-44.51
-25.44
-7.87
7.34
19.91
29.97
37.81
43.79
48.22
51.38
53.52
54.82
55.47
55.65
55.47
54.99
54.20
53.06
51.60
50.03
48.62
47.67
47.29
47.23
46.91
45.62
42.77
38.29
32.62
26.57
21.00
16.36
12.57
9.10
5.19
0.31
-5.67
-12.37
-19.18
-25.46
-30.90
-35.54
-39.79
-44.23
-49.51
-56.13
-64.25
-73.56
-83.02
-90.95
-95.41
-94.68
-87.97
-75.67
-59.30
-40.98
-22.75
-6.05
8.43
20.55
30.45
38.28
44.13
48.13
50.50
51.55
51.65
51.16
50.38
49.52
48.66
47.78
46.74
45.44
43.91
42.36
41.04
40.09
39.37
38.45
36.88
34.29
30.69
26.43
22.00
17.80
13.93
10.12
5.85
0.64
-5.75
-13.13
-20.99
-28.73
-35.93
-42.56
-49.03
-56.07
-64.40
-74.60
-86.94
-101.30
-117.16
-133.48
-148.79
-161.35
-169.60
-172.52
-170.11
-163.24
-153.36
-141.96
-129.98
-117.70
-104.94
-91.47
-77.37
-63.19
-49.73
-37.69
-27.40
-18.60
-10.61
-2.58
6.18
15.92
26.44
37.21
47.67
57.42
66.42
74.88
83.10
91.28
99.40
107.21
114.36
120.41
124.90
127.45
127.77
125.72
121.45
115.35
108.10
100.48
93.30
87.09
81.93
77.41
72.60
66.48
58.29
47.97
36.43
25.49
17.46
14.44
17.69
27.09
41.16
57.54
73.68
87.65
98.66
107.09
113.98
120.39
126.61
131.92
134.71
133.11
125.75
112.31
93.67
71.64
48.47
26.22
6.48
-9.69
-21.78
-29.71
-33.83
-34.96
-34.30
-33.15
-32.64
-33.34
-35.20
-37.69
-40.06
-41.78
-42.66
-42.90
-42.99
-43.43
-44.49
-46.14
-48.01
-49.50
-50.13
-49.71
-48.50
-47.18
-46.72
-47.97
-51.41
-56.79
-63.07
-68.59
-71.55
-70.57
-65.22
-56.17
-44.90
-33.18
-22.38
-13.15
-5.42
1.20
7.10
12.35
16.79
20.20
22.46
23.66
24.06
23.97
23.65
23.33
23.12
23.06
23.15
23.35
23.64
24.10
24.73
25.45
26.03
26.05
25.10
22.92
19.61
15.52
11.18
7.05
3.37
0.08
-3.12
-6.59
-10.58
-15.23
-20.38
-25.72
-30.87
-35.48
-39.46
-43.01
-46.59
-50.81
-56.25
-63.12
-71.17
-79.45
-86.50
-90.59
-90.19
-84.42
-73.39
-58.21
-40.64
-22.61
-5.73
9.03
21.36
31.34
39.25
45.37
49.90
53.02
54.92
55.83
55.99
55.65
55.03
54.26
53.41
52.52
51.56
50.48
49.26
47.96
46.62
45.29
43.91
42.26
40.08
37.13
33.36
28.97
24.35
19.91
15.92
12.34
8.86
4.97
0.22
-5.55
-12.07
-18.76
-24.94
-30.08
-34.12
-37.40
-40.61
-44.42
-49.36
-55.61
-63.10
-71.44
-79.89
-87.29
-92.13
-92.87
-88.46
-78.76
-64.69
-47.98
-30.59
-14.18
0.27
12.43
22.40
30.41
36.60
41.03
43.80
45.14
45.36
44.89
44.09
43.24
42.40
41.54
40.60
39.64
38.83
38.38
38.35
38.51
38.39
37.36
35.02
31.27
26.42
21.08
15.81
11.00
6.70
2.70
-1.36
-5.77
-10.60
-15.69
-20.71
-25.29
-29.21
-32.58
-35.77
-39.42
-44.13
-50.27
-57.65
-65.49
-72.41
-76.80
-77.24
-72.94
-64.06
-51.57
-37.00
-21.95
-7.60
5.30
16.47
25.81
33.14
38.31
41.17
41.86
40.78
38.65
36.16
33.84
31.98
30.62
29.64
28.95
28.48
28.13
27.75
27.11
26.00
24.29
22.01
19.36
16.51
13.55
10.41
6.85
2.63
-2.36
-8.00
-14.03
-20.05
-25.79
-31.13
-36.13
-41.08
-46.40
-52.55
-59.89
-68.41
-77.47
-85.71
-91.32
-92.48
-88.01
-77.89
-63.23
-46.02
-28.43
-12.21
1.71
13.16
22.43
29.91
35.80
40.12
42.77
43.77
43.30
41.83
39.92
38.13
36.83
36.14
35.98
36.14
36.37
36.43
36.08
35.07
33.19
30.34
26.57
22.15
17.43
12.70
8.02
3.25
-1.81
-7.29
-13.12
-19.08
-24.93
-30.53
-35.94
-41.36
-47.16
-53.74
-61.43
-70.38
-80.24
-90.00
-98.01
-102.33
-101.30
-94.19
-81.51
-64.84
-46.32
-28.04
-11.48
2.64
14.23
23.59
31.06
36.92
41.33
44.46
46.49
47.70
48.38
48.74
48.98
49.13
49.15
49.01
48.63
48.02
47.14
45.96
44.34
42.19
39.43
36.06
32.19
27.85
23.08
17.84
12.10
5.83
-0.83
-7.71
-14.54
-21.13
-27.37
-33.29
-39.02
-44.84
-51.18
-58.43
-66.90
-76.41
-86.03
-94.11
-98.57
-97.60
-90.31
-77.15
-59.76
-40.46
-21.43
-4.15
10.74
23.32
33.84
42.46
49.21
54.06
57.13
58.74
59.42
59.61
59.63
59.54
59.25
58.69
57.85
56.88
56.01
55.39
54.98
54.57
53.76
52.15
49.53
45.89
41.45
36.62
31.75
27.06
22.56
17.99
12.97
7.22
0.66
-6.46
-13.62
-20.30
-26.10
-31.04
-35.48
-40.06
-45.44
-52.07
-59.90
-68.26
-75.86
-80.98
-81.87
-77.30
-66.93
-51.49
-32.59
-12.26
7.61
25.62
41.08
53.92
64.45
73.10
80.20
86.05
90.88
94.97
98.66
102.31
106.18
110.35
114.73
119.17
123.60
128.09
132.72
137.54
142.41
147.04
151.16
154.57
157.32
159.59
161.56
163.16
163.92
162.77
158.18
148.55
132.78
110.96
84.49
55.90
27.96
2.71
-19.14
-38.26
-56.11
-74.24
-93.48
-113.74
-134.03
-152.77
-168.21
-178.82
-183.71
-182.70
-176.42
-166.03
-152.83
-137.91
-122.05
-105.78
-89.51
-73.78
-59.17
-46.21
-35.20
-26.19
-18.95
-13.14
-8.47
-4.71
-1.80
0.24
1.34
1.45
0.66
-0.72
-2.16
-3.02
-2.72
-1.09
1.57
4.52
6.87
7.96
7.54
5.78
3.02
-0.59
-5.30
-11.59
-20.00
-30.71
-43.48
-57.76
-72.86
-88.19
-103.21
-117.39
-130.21
-141.19
-150.09
-156.99
-162.15
-165.68
-167.27
-166.12
-161.26
-151.99
-138.30
-121.01
-101.46
-81.07
-60.95
-41.72
-23.60
-6.65
8.99
23.05
35.17
44.96
52.23
57.03
59.65
60.67
60.74
60.47
60.27
60.33
60.60
60.94
61.24
61.46
61.62
61.71
61.63
61.14
59.96
57.82
54.67
50.65
46.09
41.36
36.71
32.18
27.56
22.51
16.72
10.09
2.75
-4.88
-12.30
-19.08
-25.04
-30.26
-35.10
-40.03
-45.57
-52.13
-59.96
-68.91
-78.33
-86.90
-92.81
-94.20
-89.73
-79.19
-63.60
-44.98
-25.56
-7.18
9.19
23.31
35.39
45.64
54.06
60.53
64.94
67.40
68.27
68.07
67.27
66.23
65.12
63.91
62.54
60.98
59.27
57.59
56.13
55.05
54.30
53.62
52.60
50.88
48.25
44.78
40.75
36.58
32.57
28.83
25.19
21.34
16.98
11.90
6.09
-0.27
-6.91
-13.54
-19.84
-25.58
-30.63
-35.03
-39.03
-43.13
-47.95
-54.02
-61.60
-70.31
-79.17
-86.57
-90.72
-90.06
-83.82
-72.27
-56.67
-38.92
-20.94
-4.30
10.12
22.04
31.59
39.05
44.59
48.33
50.30
50.66
49.68
47.87
45.82
44.05
42.88
42.38
42.39
42.64
42.94
43.20
43.43
43.56
43.39
42.58
40.78
37.78
33.64
28.73
23.60
18.79
14.58
10.90
7.29
3.12
-2.10
-8.47
-15.59
-22.73
-29.18
-34.53
-38.84
-42.62
-46.63
-51.58
-57.92
-65.67
-74.39
-83.06
-90.23
-94.20
-93.50
-87.33
-75.87
-60.33
-42.51
-24.30
-7.19
8.00
21.01
31.84
40.53
47.05
51.36
53.59
54.12
53.50
52.38
51.27
50.39
49.79
49.39
49.09
48.90
48.97
49.38
50.24
51.45
52.76
53.72
53.88
52.88
50.67
47.54
44.03
40.78
38.17
36.20
34.48
32.39
29.37
25.18
20.00
14.34
8.83
4.08
0.42
-2.14
-3.97
-5.81
-8.59
-13.20
-20.06
-28.65
-37.35
-43.60
-44.78
-39.26
-27.34
-11.46
4.37
15.80
19.49
13.90
-0.45
-21.51
-46.40
-72.15
-96.16
-116.38
-131.49
-140.92
-144.89
-144.34
-140.55
-134.83
-128.22
-121.33
-114.35
-107.15
-99.47
-91.11
-81.98
-72.13
-61.75
-51.13
-40.61
-30.54
-21.20
-12.79
-5.40
0.96
6.34
10.81
14.33
16.82
18.16
18.43
18.08
17.93
19.07
22.51
28.85
38.12
49.78
62.97
76.82
90.70
104.27
117.55
130.81
144.43
158.78
173.85
189.07
203.15
214.36
220.93
221.55
215.83
204.29
188.17
169.07
148.54
127.86
107.95
89.32
72.12
56.17
41.12
26.62
12.46
-1.37
-14.74
-27.44
-39.31
-50.23
-60.07
-68.63
-75.67
-80.95
-84.38
-86.14
-86.61
-86.24
-85.49
-84.56
-83.55
-82.44
-81.29
-80.20
-79.39
-79.13
-79.62
-80.92
-82.89
-85.18
-87.30
-88.84
-89.61
-89.72
-89.61
-89.81
-90.78
-92.78
-95.88
-99.93
-104.53
-108.99
-112.27
-113.13
-110.42
-103.52
-92.61
-78.64
-63.04
-47.24
-32.28
-18.72
-6.71
3.87
13.07
20.94
27.41
32.35
35.71
37.59
38.32
38.43
38.45
38.72
39.24
39.75
39.85
39.29
38.12
36.66
35.25
34.06
32.96
31.56
29.43
26.32
22.31
17.80
13.30
9.22
5.71
2.59
-0.47
-3.81
-7.52
-11.42
-15.09
-18.10
-20.15
-21.16
-21.31
-20.99
-20.68
-20.84
-21.87
-23.96
-27.04
-30.65
-33.93
-35.80
-35.17
-31.36
-24.20
-14.25
-2.55
9.65
21.17
31.26
39.56
46.07
50.95
54.33
56.32
56.98
56.44
54.95
52.83
50.43
48.02
45.69
43.45
41.30
39.28
37.56
36.18
35.13
34.14
32.85
30.92
28.11
24.43
20.06
15.30
10.34
5.30
0.17
-5.10
-10.53
-16.11
-21.65
-27.02
-32.06
-36.76
-41.23
-45.68
-50.37
-55.53
-61.39
-68.03
-75.34
-82.79
-89.45
-94.04
-95.26
-92.19
-84.65
-73.34
-59.47
-44.52
-29.67
-15.62
-2.69
8.97
19.14
27.55
33.95
38.37
41.11
42.78
43.99
45.13
46.31
47.34
48.02
48.19
47.96
47.53
47.16
46.96
46.83
46.52
45.66
43.99
41.36
37.88
33.83
29.64
25.68
22.15
18.97
15.77
12.05
7.41
1.76
-4.62
-11.23
-17.55
-23.26
-28.38
-33.22
-38.29
-44.12
-51.17
-59.60
-69.12
-78.77
-87.02
-92.07
-92.35
-87.11
-76.70
-62.38
-45.86
-28.81
-12.41
2.61
15.88
27.16
36.29
43.16
47.90
50.79
52.25
52.71
52.52
52.00
51.41
50.94
50.72
50.68
50.73
50.77
50.81
50.98
51.36
51.87
52.18
51.78
50.19
47.21
43.02
38.15
33.20
28.63
24.47
20.42
15.97
10.69
4.46
-2.49
-9.69
-16.63
-22.95
-28.61
-33.82
-39.00
-44.63
-51.18
-58.96
-67.93
-77.50
-86.45
-93.04
-95.48
-92.51
-83.81
-70.23
-53.48
-35.58
-18.27
-2.61
11.02
22.66
32.44
40.42
46.52
50.64
52.85
53.44
52.94
51.93
50.87
50.02
49.40
48.91
48.45
48.05
47.79
47.73
47.78
47.65
46.93
45.25
42.43
38.53
33.85
28.78
23.65
18.69
13.94
9.28
4.49
-0.64
-6.18
-12.05
-17.97
-23.60
-28.59
-32.85
-36.57
-40.22
-44.43
-49.85
-56.78
-64.99
-73.57
-81.00
-85.58
-85.84
-81.11
-71.66
-58.57
-43.38
-27.54
-12.18
2.00
14.52
25.04
33.19
38.62
41.26
41.22
39.08
35.60
31.71
28.17
25.52
23.98
23.45
23.71
24.50
25.61
26.90
28.19
29.25
29.78
29.50
28.25
26.11
23.33
20.29
17.27
14.39
11.54
8.37
4.59
0.02
-5.18
-10.67
-15.99
-20.83
-25.25
-29.63
-34.60
-40.81
-48.61
-57.81
-67.60
-76.52
-82.78
-84.61
-80.86
-71.39
-57.23
-40.21
-22.49
-5.89
8.53
20.45
30.10
37.83
43.96
48.58
51.65
53.23
53.50
52.82
51.56
50.13
48.82
47.76
46.95
46.34
45.91
45.66
45.58
45.57
45.38
44.64
42.98
40.21
36.37
31.79
26.94
22.23
17.84
13.62
9.21
4.16
-1.79
-8.59
-15.90
-23.17
-29.86
-35.61
-40.38
-44.48
-48.52
-53.26
-59.42
-67.39
-76.92
-87.00
-95.89
-101.46
-101.88
-96.14
-84.42
-68.04
-48.99
-29.41
-10.98
5.28
18.97
30.12
38.97
45.76
50.71
54.02
55.91
56.65
56.58
56.13
55.65
55.39
55.38
55.44
55.35
54.95
54.23
53.30
52.24
51.00
49.41
47.24
44.37
40.87
36.94
32.80
28.56
24.25
19.79
15.11
10.16
4.84
-0.97
-7.37
-14.27
-21.37
-28.14
-34.04
-38.77
-42.52
-45.98
-50.14
-55.93
-63.84
-73.59
-84.08
-93.58
-100.07
-101.87
-98.00
-88.53
-74.45
-57.39
-39.13
-21.16
-4.49
10.35
23.13
33.82
42.44
49.03
53.66
56.48
57.72
57.73
56.96
55.84
54.74
53.83
53.02
52.03
50.63
48.80
46.78
44.98
43.76
43.18
42.95
42.57
41.49
39.39
36.27
32.39
28.16
23.95
19.98
16.24
12.54
8.57
4.03
-1.24
-7.19
-13.57
-20.01
-26.15
-31.78
-36.90
-41.73
-46.70
-52.33
-59.08
-67.15
-76.20
-85.21
-92.58
-96.45
-95.28
-88.35
-76.05
-59.79
-41.53
-23.26
-6.52
7.78
19.35
28.29
34.94
39.69
42.90
44.86
45.85
46.13
45.97
45.67
45.46
45.45
45.62
45.80
45.85
45.65
45.27
44.85
44.47
44.09
43.43
42.13
39.83
36.39
31.96
26.96
21.96
17.44
13.59
10.23
6.91
3.12
-1.46
-6.73
-12.24
-17.41
-21.76
-25.22
-28.12
-31.05
-34.66
-39.47
-45.72
-53.32
-61.79
-70.19
-77.11
-80.89
-80.06
-73.75
-62.09
-46.25
-28.06
-9.53
7.70
22.61
34.83
44.43
51.66
56.72
59.72
60.80
60.17
58.28
55.78
53.21
51.01
49.22
47.63
45.95
44.00
41.87
39.79
37.97
36.38
34.74
32.65
29.80
26.19
22.02
17.59
13.05
8.34
3.23
-2.51
-8.91
-15.72
-22.52
-28.82
-34.36
-39.11
-43.32
-47.45
-52.00
-57.46
-64.12
-71.87
-80.05
-87.38
-92.12
-92.51
-87.36
-76.53
-61.01
-42.75
-23.93
-6.35
8.90
21.52
31.65
39.54
45.33
49.03
50.70
50.63
49.36
47.57
45.86
44.59
43.79
43.22
42.59
41.75
40.73
39.76
39.09
38.71
38.35
37.49
35.63
32.50
28.24
23.37
18.51
14.08
10.15
6.41
2.31
-2.64
-8.60
-15.34
-22.35
-29.03
-34.93
-39.93
-44.27
-48.51
-53.39
-59.56
-67.39
-76.69
-86.60
-95.59
-101.70
-103.09
-98.53
-87.92
-72.30
-53.62
-34.14
-15.82
0.13
13.38
24.19
33.08
40.41
46.28
50.56
53.08
53.88
53.25
51.70
49.79
47.94
46.34
45.04
43.93
42.92
41.94
40.95
39.88
38.68
37.25
35.42
33.08
30.09
26.40
22.10
17.34
12.30
7.18
2.08
-2.93
-7.90
-12.91
-18.14
-23.74
-29.84
-36.42
-43.26
-50.12
-56.75
-63.15
-69.65
-76.87
-85.44
-95.60
-106.80
-117.64
-126.04
-129.88
-127.64
-118.95
-104.73
-86.99
-68.19
-50.70
-36.26
-25.74
-19.11
-15.49
-13.44
-11.13
-6.93
0.31
10.76
23.60
37.26
50.04
60.63
68.49
73.88
77.48
79.86
81.30
81.73
81.07
79.42
77.23
75.10
73.45
72.37
71.57
70.58
69.06
66.90
64.30
61.55
58.81
56.09
53.14
49.65
45.39
40.33
34.68
28.83
23.22
18.18
13.80
9.81
5.72
1.01
-4.63
-11.14
-18.06
-24.80
-30.79
-35.84
-40.13
-44.16
-48.58
-53.96
-60.70
-68.86
-78.07
-87.42
-95.42
-100.30
-100.45
-95.00
-84.08
-68.86
-51.10
-32.67
-15.05
0.89
14.79
26.62
36.35
43.92
49.23
52.29
53.28
52.62
50.86
48.59
46.31
44.30
42.62
41.16
39.78
38.39
36.91
35.29
33.37
30.97
27.86
23.86
18.90
12.98
6.20
-1.26
-9.20
-17.36
-25.48
-33.37
-40.99
-48.46
-56.01
-63.75
-71.55
-79.04
-85.72
-91.22
-95.49
-98.89
-102.09
-105.79
-110.54
-116.59
-123.66
-130.98
-137.20
-140.51
-139.00
-131.13
-116.31
-95.17
-69.52
-41.88
-14.77
9.83
30.88
48.16
62.02
73.01
81.63
88.26
93.19
96.69
99.05
100.55
101.37
101.67
101.49
100.88
99.92
98.71
97.26
95.53
93.28
90.19
85.91
80.25
73.27
65.36
57.09
49.05
41.64
34.97
28.82
22.82
16.64
10.09
3.26
-3.62
-10.33
-16.74
-22.94
-29.26
-36.13
-43.99
-53.06
-63.15
-73.47
-82.63
-88.87
-90.54
-86.66
-77.26
-63.45
-47.03
-29.94
-13.67
0.91
13.59
24.48
33.77
41.50
47.59
51.95
54.62
55.83
55.97
55.48
54.80
54.17
53.71
53.37
53.09
52.80
52.51
52.18
51.64
50.59
48.64
45.52
41.20
36.01
30.51
25.27
20.57
16.29
12.01
7.20
1.55
-4.91
-11.78
-18.54
-24.74
-30.18
-34.94
-39.33
-43.90
-49.31
-56.19
-64.86
-75.04
-85.59
-94.56
-99.64
-98.92
-91.58
-78.27
-60.88
-41.88
-23.55
-7.32
6.38
17.82
27.52
35.79
42.66
47.95
51.58
53.69
54.71
55.12
55.31
55.43
55.44
55.23
54.73
54.08
53.53
53.33
53.46
53.66
53.41
52.19
49.67
45.84
41.06
35.85
30.77
26.23
22.37
19.03
15.85
12.35
8.05
2.70
-3.64
-10.52
-17.33
-23.51
-28.76
-33.20
-37.26
-41.53
-46.36
-51.74
-57.13
-61.37
-62.86
-59.86
-50.87
-35.21
-13.28
13.34
42.33
71.22
98.10
121.91
142.45
159.98
174.78
186.85
195.91
201.67
204.06
203.47
200.49
195.56
188.53
178.52
164.25
144.67
119.61
90.05
57.93
25.46
-5.54
-33.92
-59.10
-80.76
-98.49
-112.02
-121.32
-126.95
-129.91
-131.41
-132.32
-133.02
-133.46
-133.47
-133.05
-132.42
-131.75
-131.01
-129.86
-127.82
-124.54
-120.10
-115.03
-110.21
-106.66
-105.35
-106.95
-111.61
-118.77
-126.99
-134.16
-137.87
-136.11
-127.87
-113.55
-94.90
-74.40
-54.58
-37.27
-23.27
-12.38
-3.69
3.83
11.00
18.08
24.79
30.38
33.94
34.70
32.35
27.32
20.83
14.75
11.07
11.41
16.41
25.49
37.01
48.76
58.79
65.99
70.55
73.75
77.49
83.55
93.11
106.49
123.31
142.64
163.35
184.12
203.50
219.93
231.86
238.02
237.58
230.28
216.32
196.37
171.43
142.67
111.30
78.17
43.47
6.62
-33.18
-76.13
-120.93
-164.43
-202.08
-229.33
-243.18
-243.14
-231.42
-212.01
-189.46
-167.45
-147.83
-130.36
-113.37
-95.00
-74.42
-52.57
-31.82
-14.84
-3.27
2.99
5.50
6.35
6.91
7.58
8.01
7.89
7.29
6.52
5.64
4.14
1.32
-3.25
-9.39
-16.58
-24.38
-32.78
-42.03
-52.10
-62.36
-71.59
-78.65
-82.88
-84.31
-83.22
-79.64
-73.25
-63.69
-51.16
-36.57
-21.14
-5.50
10.93
29.94
53.78
84.12
121.39
164.65
212.03
261.14
309.29
353.43
390.26
416.63
430.20
430.25
417.82
395.50
366.53
333.89
299.69
264.91
229.62
193.42
156.06
117.83
79.80
43.68
11.36
-15.65
-36.40
-50.61
-58.56
-61.25
-60.78
-60.18
-63.02
-72.31
-89.29
-112.85
-139.84
-166.23
-188.43
-204.25
-212.83
-214.15
-208.54
-196.63
-179.56
-159.33
-138.40
-119.11
-103.10
-91.02
-82.90
-78.60
-77.90
-80.49
-85.67
-92.19
-98.50
-103.32
-106.12
-107.24
-107.48
-107.62
-107.91
-108.12
-107.89
-107.08
-105.97
-105.17
-105.30
-106.67
-109.25
-112.67
-116.38
-119.78
-122.44
-124.32
-125.84
-127.81
-131.04
-135.90
-142.07
-148.63
-154.50
-159.07
-162.47
-165.48
-169.11
-174.09
-180.59
-188.06
-195.41
-201.09
-203.46
-201.21
-193.66
-180.92
-163.71
-142.96
-119.43
-93.81
-66.88
-39.92
-14.57
7.67
26.06
40.92
53.35
64.51
74.92
84.28
91.82
96.98
99.84
101.09
101.65
102.13
102.58
102.59
101.58
99.10
95.08
89.76
83.47
76.55
69.15
61.30
52.98
44.29
35.52
27.13
19.54
12.88
6.82
0.53
-7.07
-17.01
-29.75
-44.94
-61.26
-76.60
-88.53
-94.91
-94.42
-86.87
-73.23
-55.27
-35.15
-14.94
3.71
19.76
32.87
43.17
51.17
57.39
62.25
66.03
68.90
71.05
72.76
74.28
75.78
77.22
78.37
79.03
79.16
78.95
78.73
78.77
79.12
79.53
79.61
78.89
77.00
73.79
69.27
63.76
57.75
51.81
46.39
41.69
37.52
33.42
28.74
22.81
15.05
5.04
-7.36
-21.64
-36.49
-49.82
-59.18
-62.55
-59.05
-49.12
-34.27
-16.37
2.98
22.74
42.16
60.37
76.12
87.84
94.20
94.64
89.77
81.23
71.19
61.76
54.33
49.34
46.34
44.43
42.80
41.06
39.34
38.01
37.23
36.79
36.11
34.57
31.88
28.26
24.32
20.78
18.04
16.02
14.40
12.79
11.02
9.22
7.64
6.33
5.05
3.25
0.25
-4.51
-11.16
-19.32
-28.07
-36.04
-41.65
-43.40
-40.29
-32.08
-19.45
-3.79
13.20
29.95
45.41
59.06
70.81
80.73
88.79
94.74
98.19
98.76
96.22
90.71
82.87
73.70
64.47
56.37
50.26
46.46
44.77
44.60
45.19
45.75
45.50
43.70
39.65
32.75
22.61
9.11
-7.54
-26.74
-47.67
-69.25
-90.21
-109.16
-124.72
-135.72
-141.34
-141.28
-135.70
-125.17
-110.56
-93.01
-73.86
-54.64
-36.92
-22.06
-11.05
-4.20
-1.18
-1.11
-2.91
-5.62
-8.64
-11.96
-16.21
-22.49
-31.82
-44.58
-59.80
-75.08
-87.09
-92.58
-89.68
-78.58
-61.71
-42.92
-26.38
-15.37
-11.71
-15.73
-26.73
-43.76
-65.89
-92.19
-121.27
-151.01
-178.65
-201.42
-217.36
-226.01
-228.37
-226.14
-220.74
-212.63
-201.24
-185.53
-164.65
-138.29
-106.48
-69.28
-26.71
20.82
71.88
123.56
171.63
211.49
239.55
254.44
257.50
252.35
243.69
235.89
232.01
233.47
240.23
251.19
264.66
278.52
290.40
297.94
299.28
293.52
280.97
262.97
241.31
217.64
192.92
167.39
140.92
113.42
85.32
57.60
31.57
8.38
-11.49
-28.61
-44.50
-61.12
-80.04
-101.55
-124.19
-144.99
-160.36
-167.28
-164.34
-152.09
-132.75
-109.56
-85.85
-64.55
-47.70
-36.50
-31.14
-30.93
-34.34
-39.32
-43.79
-46.12
-45.64
-42.61
-38.07
-33.37
-29.70
-27.63
-26.97
-26.89
-26.33
-24.44
-20.95
-16.29
-11.39
-7.40
-5.34
-5.81
-8.94
-14.39
-21.52
-29.61
-38.09
-46.70
-55.46
-64.58
-73.97
-83.07
-90.73
-95.53
-96.28
-92.54
-84.82
-74.29
-62.40
-50.30
-38.69
-27.78
-17.71
-8.64
-0.87
5.28
9.65
12.42
13.96
14.72
15.05
15.10
14.87
14.33
13.45
12.32
11.14
10.11
9.31
8.70
7.99
6.78
4.67
1.41
-3.01
-8.33
-14.05
-19.70
-24.94
-29.75
-34.42
-39.44
-45.33
-52.34
-60.30
-68.41
-75.38
-79.60
-79.61
-74.54
-64.43
-50.26
-33.64
-16.40
-0.03
14.50
26.76
36.59
43.91
48.65
50.75
50.45
48.26
44.95
41.31
37.92
35.00
32.42
29.94
27.43
24.99
22.93
21.58
21.01
20.90
20.62
19.47
17.08
13.55
9.37
5.22
1.55
-1.62
-4.75
-8.49
-13.51
-20.19
-28.54
-38.10
-47.84
-56.30
-61.74
-62.66
-58.20
-48.52
-34.71
-18.43
-1.38
15.15
30.43
44.14
56.10
65.94
73.17
77.33
78.28
76.48
72.93
68.95
65.74
63.97
63.54
63.64
63.15
61.20
57.49
52.36
46.48
40.47
34.52
28.38
21.60
13.86
5.27
-3.75
-12.56
-20.71
-27.96
-34.39
-40.26
-45.93
-51.79
-58.27
-65.72
-74.16
-83.03
-91.14
-96.79
-98.25
-94.39
-85.00
-70.97
-53.91
-35.65
-17.77
-1.29
13.23
25.59
35.70
43.56
49.19
52.83
54.89
55.84
56.15
56.09
55.74
55.10
54.12
52.91
51.64
50.52
49.67
49.03
48.42
47.62
46.52
45.11
43.49
41.71
39.74
37.42
34.55
31.06
27.09
22.99
19.24
16.20
13.98
12.41
11.06
9.34
6.71
2.87
-2.00
-7.13
-11.16
-12.39
-9.21
-0.59
13.52
32.13
53.35
74.99
94.93
111.58
123.88
131.22
133.30
130.02
121.70
109.11
93.48
76.29
58.84
41.85
25.39
9.18
-6.90
-22.29
-35.61
-45.06
-49.09
-47.21
-40.56
-31.73
-24.12
-20.70
-22.97
-30.31
-40.11
-48.78
-52.93
-50.48
-41.05
-25.76
-6.66
13.72
32.80
48.14
57.85
61.08
58.46
52.00
44.13
36.72
30.15
23.77
17.42
13.11
15.31
29.30
58.26
100.72
150.27
197.86
235.41
258.95
269.34
270.57
266.74
259.92
249.88
235.83
218.53
201.30
188.96
185.47
191.57
203.99
216.60
222.88
218.60
203.11
179.16
151.13
122.89
96.46
71.85
47.91
23.50
-1.64
-26.99
-51.60
-74.77
-96.37
-116.76
-136.52
-156.03
-175.38
-194.42
-213.12
-231.90
-251.59
-272.99
-296.09
-319.35
-339.64
-352.87
-355.42
-345.44
-323.70
-293.31
-258.61
-223.83
-191.97
-164.62
-142.14
-124.29
-110.57
-100.38
-92.99
-87.68
-83.97
-81.86
-81.80
-84.19
-88.80
-94.41
-98.99
-100.36
-97.17
-89.46
-78.68
-67.09
-56.76
-48.88
-43.40
-39.32
-35.42
-30.89
-25.54
-19.74
-14.04
-8.91
-4.59
-1.12
1.65
4.29
7.87
14.16
25.22
42.68
66.87
96.40
128.33
159.04
185.31
205.20
218.25
225.00
226.22
222.40
213.67
200.15
182.49
162.38
142.48
125.83
114.94
110.98
113.22
119.17
125.33
128.29
125.76
117.13
103.48
87.05
70.40
55.58
43.49
33.58
23.88
11.59
-5.99
-30.03
-59.17
-89.24
-114.14
-127.71
-125.69
-107.26
-75.50
-36.68
1.43
31.43
47.90
48.29
32.98
4.77
-32.14
-72.97
-113.15
-148.66
-176.25
-193.70
-200.08
-196.20
-184.60
-169.08
-153.64
-141.31
-133.31
-129.04
-126.75
-124.70
-122.11
-119.51
-118.30
-119.76
-124.08
-130.02
-135.35
-137.58
-134.54
-124.42
-105.39
-75.62
-33.95
18.60
77.81
136.28
185.05
216.38
226.09
214.57
186.00
146.15
100.40
52.68
5.66
-38.47
-77.40
-108.88
-131.34
-144.42
-148.96
-146.46
-138.46
-126.09
-110.27
-92.20
-73.91
-58.39
-49.08
-49.01
-59.53
-79.60
-105.58
-132.11
-153.47
-165.32
-166.03
-157.15
-142.85
-128.32
-117.94
-113.75
-114.97
-118.60
-120.87
-118.81
-111.25
-99.03
-84.27
-69.30
-55.86
-44.75
-36.00
-29.24
-23.94
-19.57
-15.62
-11.70
-7.70
-3.96
-1.17
-0.15
-1.47
-5.13
-10.36
-15.77
-19.60
-20.19
-16.36
-7.86
4.65
19.71
35.47
50.24
62.79
72.57
79.60
84.27
87.05
88.44
88.83
88.49
87.48
85.58
82.40
77.59
71.11
63.42
55.39
48.00
41.92
37.19
33.25
29.26
24.55
18.88
12.55
5.96
-0.66
-7.51
-15.12
-23.93
-34.05
-44.99
-55.87
-65.73
-73.93
-80.32
-85.31
-89.67
-94.20
-99.39
-105.02
-110.02
-112.60
-110.71
-102.63
-87.65
-66.33
-40.41
-12.44
14.95
39.58
60.00
75.55
86.17
92.19
94.30
93.34
90.27
85.94
81.02
75.82
70.43
64.88
59.20
53.58
48.29
43.60
39.60
36.33
33.68
31.57
29.82
28.10
25.92
22.71
18.14
12.29
5.67
-0.96
-7.02
-12.21
-16.60
-20.45
-24.05
-27.46
-30.65
-33.54
-36.15
-38.71
-41.55
-44.96
-48.98
-53.22
-57.00
-59.69
-61.09
-61.77
-62.92
-66.00
-72.14
-81.84
-94.92
-110.80
-128.69
-147.61
-166.31
-183.24
-196.74
-205.63
-209.84
-210.58
-210.02
-210.30
-212.67
-217.02
-222.14
-226.42
-228.83
-229.43
-229.42
-230.56
-234.16
-240.27
-247.35
-252.68
-253.36
-247.44
-234.63
-216.19
-194.32
-171.19
-148.33
-126.53
-106.08
-87.10
-69.75
-54.04
-39.50
-25.23
-10.13
6.69
25.57
46.18
67.66
88.91
108.92
127.07
143.11
157.02
168.75
177.78
183.10
183.39
177.69
166.21
150.63
133.98
119.79
111.05
109.45
115.04
126.70
142.78
161.81
182.87
205.64
230.37
257.65
287.94
321.12
355.94
389.81
419.25
440.87
452.61
454.48
448.57
437.93
425.43
412.76
400.32
387.79
374.85
361.68
348.90
337.45
328.31
322.49
320.69
322.84
327.50
331.64
331.27
322.68
303.76
274.76
237.93
196.44
153.35
111.06
71.23
35.03
2.95
-25.66
-52.94
-82.25
-116.88
-158.31
-205.08
-252.82
-295.76
-328.85
-349.37
-357.41
-355.13
-345.42
-331.02
-314.20
-296.78
-279.85
-263.32
-245.54
-223.60
-194.91
-158.91
-118.28
-78.42
-45.29
-22.83
-11.19
-6.87
-4.52
0.78
11.99
29.79
53.34
81.11
111.38
142.10
170.81
194.67
211.04
218.23
215.96
205.33
188.18
166.26
140.72
112.14
81.19
49.29
18.99
-6.38
-23.79
-31.84
-31.75
-27.19
-23.14
-24.07
-32.36
-47.75
-67.90
-89.70
-110.57
-129.02
-144.56
-156.92
-165.55
-169.61
-168.53
-162.72
-153.79
-144.09
-135.63
-129.04
-123.14
-115.45
-103.45
-85.76
-63.04
-37.90
-14.05
4.88
16.49
20.11
16.84
8.93
-1.06
-11.02
-19.71
-26.75
-32.19
-36.04
-37.96
-37.40
-34.20
-29.14
-23.93
-20.82
-21.53
-26.57
-34.89
-44.53
-53.41
-60.17
-64.59
-67.35
-69.53
-72.05
-75.38
-79.51
-84.22
-89.23
-94.26
-98.83
-102.16
-103.42
-102.13
-98.67
-94.31
-90.67
-88.87
-88.58
-87.91
-83.92
-73.93
-56.62
-32.63
-4.38
24.87
51.90
74.34
90.81
100.87
104.64
102.61
95.53
84.58
71.50
58.48
47.77
40.79
37.58
36.60
35.35
31.60
24.33
14.24
3.09
-7.42
-16.58
-24.82
-33.06
-41.73
-50.18
-56.99
-60.64
-60.45
-56.98
-51.94
-47.53
-45.89
-48.58
-56.30
-68.61
-83.86
-99.09
-110.48
-114.10
-107.03
-88.28
-59.26
-23.41
14.81
51.11
82.22
106.28
122.57
131.14
132.49
127.60
118.03
105.90
93.47
82.41
73.30
65.54
58.03
49.96
41.67
34.66
30.84
31.52
36.58
44.39
52.41
58.36
61.06
60.65
58.18
54.81
51.14
47.10
42.21
36.16
29.19
22.09
15.92
11.51
9.02
7.96
7.34
6.12
3.58
-0.34
-5.01
-9.17
-11.31
-10.10
-4.82
4.29
15.98
28.33
39.24
47.07
51.18
52.08
51.05
49.40
47.72
45.63
42.05
35.92
26.96
15.92
4.33
-5.99
-13.21
-15.73
-12.28
-2.48
12.67
30.53
47.50
60.39
67.91
71.26
73.35
76.97
83.04
89.93
94.40
93.31
85.30
71.34
54.21
37.19
23.06
13.63
9.74
11.52
18.29
28.53
39.91
49.60
55.01
54.60
48.34
37.41
23.73
9.19
-4.65
-16.42
-24.70
-28.15
-25.92
-18.33
-7.24
4.24
12.91
16.44
14.41
8.95
4.32
6.08
19.52
48.04
91.77
146.97
206.48
261.34
303.05
325.66
327.04
309.04
276.48
235.63
192.58
152.07
116.88
87.76
63.89
43.51
24.55
5.18
-15.82
-38.92
-63.67
-88.79
-112.57
-133.40
-150.07
-162.42
-171.69
-180.32
-191.28
-206.88
-227.60
-251.53
-274.94
-293.72
-304.99
-307.99
-303.79
-294.19
-280.53
-263.18
-242.00
-217.40
-191.03
-165.71
-144.54
-129.63
-121.30
-117.94
-116.78
-114.89
-110.17
-101.82
-90.32
-76.89
-62.81
-48.93
-35.55
-22.60
-10.06
1.75
12.23
20.76
26.98
31.01
33.29
34.22
33.83
31.67
27.07
19.57
9.41
-2.36
-14.17
-24.51
-32.48
-38.13
-42.40
-46.76
-52.60
-60.62
-70.43
-80.42
-88.20
-91.17
-87.48
-76.59
-59.49
-38.27
-15.48
6.56
26.17
42.22
53.97
60.78
62.21
58.28
49.73
38.17
25.82
14.97
7.51
4.42
5.75
10.80
18.53
27.86
37.76
47.28
55.50
61.51
64.62
64.57
61.50
55.99
48.84
40.85
32.69
24.89
17.68
11.07
4.79
-1.64
-8.78
-17.05
-26.72
-37.89
-50.49
-64.28
-78.51
-91.75
-101.83
-106.30
-103.10
-91.40
-72.03
-47.33
-20.47
5.51
28.41
47.14
61.49
71.72
78.11
80.89
80.39
77.13
72.08
66.41
61.28
57.44
55.07
53.81
53.05
52.33
51.54
50.93
50.81
51.26
51.89
51.92
50.44
46.80
40.87
33.13
24.38
15.46
6.95
-0.95
-8.36
-15.61
-23.09
-31.26
-40.58
-51.35
-63.38
-75.74
-86.62
-93.70
-94.69
-88.16
-74.04
-53.68
-29.41
-3.90
20.51
42.09
59.77
72.98
81.53
85.53
85.44
82.12
76.72
70.52
64.57
59.48
55.30
51.68
48.13
44.38
40.59
37.31
35.12
34.28
34.52
34.96
34.50
32.14
27.48
20.72
12.57
3.91
-4.55
-12.45
-19.88
-27.22
-35.06
-43.95
-54.10
-65.12
-75.77
-84.05
-87.62
-84.55
-73.98
-56.52
-34.09
-9.32
15.11
37.09
55.26
68.92
77.84
82.14
82.22
78.87
73.17
66.35
59.46
53.23
47.96
43.56
39.83
36.69
34.22
32.62
31.97
32.01
32.11
31.41
29.19
25.18
19.62
13.16
6.53
0.23
-5.64
-11.39
-17.56
-24.78
-33.48
-43.74
-54.90
-65.50
-73.44
-76.34
-72.40
-60.99
-42.94
-20.36
4.02
27.59
48.37
65.11
77.27
84.67
87.46
86.15
81.67
75.37
68.74
62.97
58.63
55.57
53.07
50.31
46.80
42.65
38.43
34.82
32.15
30.19
28.11
24.76
18.99
10.00
-2.62
-18.73
-37.75
-58.58
-79.69
-99.42
-116.36
-129.77
-139.61
-146.35
-150.36
-151.39
-148.46
-140.26
-125.93
-105.73
-81.32
-55.34
-30.67
-9.56
6.83
18.45
25.97
30.34
32.47
33.07
32.85
32.44
32.44
33.23
34.86
37.02
39.10
40.55
41.09
40.90
40.41
40.15
40.34
40.82
41.08
40.53
38.86
36.14
32.84
29.51
26.55
23.91
21.08
17.23
11.47
3.18
-7.60
-19.91
-31.84
-40.81
-44.30
-40.60
-29.40
-12.03
9.01
30.80
50.75
67.19
79.50
87.79
92.57
94.40
93.72
90.88
86.25
80.41
74.23
68.89
65.66
65.46
68.53
74.21
81.05
87.24
91.04
91.26
87.52
80.27
70.64
60.14
50.23
42.06
36.11
32.25
29.75
27.55
24.56
20.01
13.69
6.14
-1.34
-6.97
-8.98
-6.22
1.54
13.39
27.60
42.11
55.01
64.87
70.81
72.53
70.17
64.31
55.88
45.95
35.54
25.39
15.79
6.67
-2.19
-10.97
-19.61
-27.83
-35.17
-41.17
-45.57
-48.47
-50.31
-51.82
-53.80
-56.86
-61.32
-67.08
-73.71
-80.62
-87.14
-92.74
-97.01
-99.81
-101.27
-101.97
-102.74
-104.56
-108.07
-113.10
-118.44
-121.95
-121.30
-114.63
-101.30
-82.10
-58.97
-34.26
-10.13
11.80
30.61
45.75
56.90
63.90
66.88
66.40
63.39
59.04
54.40
50.23
46.78
43.98
41.55
39.23
36.93
34.74
32.87
31.48
30.61
30.06
29.43
28.21
25.98
22.60
18.28
13.55
8.95
4.83
1.02
-3.14
-8.54
-16.00
-25.88
-37.72
-50.28
-61.64
-69.59
-72.14
-68.05
-57.18
-40.62
-20.36
1.12
21.51
39.08
52.82
62.44
68.05
69.98
68.69
64.83
59.21
52.79
46.50
41.01
36.63
33.24
30.51
28.04
25.60
23.20
20.98
19.16
17.86
16.94
15.89
13.89
9.94
3.20
-6.68
-19.30
-33.64
-48.34
-62.18
-74.38
-84.77
-93.53
-101.06
-107.75
-114.03
-120.30
-126.72
-132.94
-137.76
-139.24
-135.21
-124.09
-105.68
-81.39
-53.94
-26.44
-1.59
19.03
34.99
46.62
54.49
59.07
60.58
59.25
55.46
49.96
43.73
37.78
32.83
29.23
26.89
25.46
24.51
23.60
22.43
20.75
18.41
15.27
11.29
6.50
0.99
-5.11
-11.65
-18.47
-25.41
-32.31
-38.99
-45.26
-51.03
-56.29
-61.23
-66.25
-71.87
-78.55
-86.36
-94.72
-102.30
-107.13
-107.08
-100.45
-86.58
-66.10
-40.84
-13.28
14.04
39.09
60.62
78.10
91.53
101.06
106.87
109.13
108.05
104.06
97.88
90.55
83.15
76.54
71.19
67.07
63.80
60.89
57.98
54.88
51.54
47.97
44.07
39.64
34.42
28.17
20.82
12.48
3.50
-5.60
-14.29
-22.19
-29.27
-35.83
-42.42
-49.56
-57.67
-66.89
-77.12
-87.94
-98.48
-107.36
-112.70
-112.54
-105.42
-90.91
-69.94
-44.67
-17.92
7.57
29.72
47.40
60.29
68.66
72.99
73.79
71.68
67.41
61.95
56.37
51.59
48.06
45.65
43.73
41.58
38.84
35.72
32.93
31.32
31.28
32.54
34.11
34.71
33.23
29.19
22.81
14.95
6.65
-1.20
-8.21
-14.48
-20.57
-27.18
-34.96
-44.32
-55.28
-67.41
-79.65
-90.39
-97.52
-99.00
-93.34
-80.27
-60.94
-37.72
-13.57
8.87
27.77
42.47
53.10
60.23
64.41
66.01
65.30
62.63
58.60
53.97
49.51
45.83
43.21
41.69
41.01
40.83
40.73
40.33
39.35
37.60
35.10
31.92
28.10
23.60
18.25
11.87
4.38
-4.09
-13.19
-22.47
-31.47
-39.90
-47.73
-55.11
-62.46
-70.26
-79.03
-89.03
-100.04
-111.03
-120.19
-125.17
-123.75
-114.59
-97.69
-74.54
-47.64
-19.85
6.34
29.18
47.75
61.76
71.36
76.97
79.21
78.85
76.78
73.90
70.96
68.50
66.78
65.74
65.16
64.77
64.35
63.83
63.20
62.44
61.40
59.84
57.45
54.03
49.57
44.24
38.32
32.01
25.35
18.21
10.39
1.83
-7.28
-16.47
-25.09
-32.53
-38.61
-43.68
-48.70
-54.91
-63.23
-73.61
-84.62
-93.52
-96.96
-92.12
-77.84
-55.14
-27.06
2.28
28.98
50.56
66.52
78.44
89.22
102.12
119.64
142.66
170.01
198.78
225.08
245.24
256.83
259.19
253.38
241.45
225.45
206.65
185.27
160.62
131.58
97.37
58.03
14.80
-29.93
-73.15
-111.93
-144.29
-169.56
-188.39
-202.06
-211.83
-218.40
-221.97
-222.58
-220.64
-217.13
-213.34
-210.43
-208.92
-208.61
-208.72
-208.24
-206.12
-201.22
-192.42
-178.68
-159.26
-134.22
-104.58
-72.37
-40.19
-10.70
14.07
33.06
46.24
54.45
58.85
60.67
60.85
60.10
58.89
57.59
56.54
56.02
56.19
57.10
58.62
60.47
62.29
63.66
64.17
63.51
61.53
58.33
54.14
49.31
44.14
38.79
33.20
27.20
20.63
13.49
6.01
-1.43
-8.42
-14.73
-20.41
-25.81
-31.53
-38.18
-46.36
-56.17
-67.10
-77.80
-86.15
-89.81
-86.80
-76.27
-58.84
-36.57
-12.24
11.26
31.74
47.97
59.64
67.00
70.58
71.00
68.86
64.93
59.95
54.63
49.54
45.00
41.13
37.91
35.38
33.59
32.60
32.38
32.68
33.13
33.20
32.47
30.74
28.09
24.75
21.02
17.06
12.85
8.23
2.97
-3.04
-9.74
-16.81
-23.86
-30.51
-36.51
-41.91
-47.00
-52.36
-58.62
-66.25
-75.21
-84.60
-92.64
-96.93
-95.25
-86.22
-70.01
-48.30
-23.88
0.29
21.82
39.37
52.57
61.65
67.05
69.11
68.17
64.61
59.08
52.53
46.02
40.54
36.70
34.63
34.01
34.24
34.68
34.92
34.77
34.26
33.51
32.57
31.35
29.64
27.12
23.50
18.58
12.33
4.94
-3.16
-11.41
-19.24
-26.17
-32.08
-37.08
-41.61
-46.26
-51.62
-58.12
-65.74
-73.84
-81.05
-85.48
-85.20
-78.81
-66.05
-47.92
-26.46
-4.20
16.63
34.44
48.45
58.47
64.57
66.89
65.67
61.37
54.84
47.22
39.77
33.49
28.85
25.73
23.55
21.65
19.47
16.93
14.29
12.05
10.53
9.58
8.59
6.60
2.74
-3.34
-11.38
-20.48
-29.57
-37.75
-44.59
-50.22
-55.22
-60.33
-66.29
-73.59
-82.23
-91.49
-99.87
-105.19
-105.17
-98.09
-83.50
-62.51
-37.55
-11.69
12.19
32.09
47.11
57.30
63.17
65.37
64.43
60.87
55.30
48.63
41.95
36.38
32.72
31.22
31.54
32.94
34.60
35.93
36.70
36.95
36.79
36.12
34.54
31.47
26.41
19.20
10.22
0.41
-9.09
-17.28
-23.65
-28.42
-32.37
-36.61
-42.21
-49.85
-59.61
-70.85
-82.13
-91.44
-96.44
-95.09
-86.34
-70.55
-49.59
-26.25
-3.54
16.26
31.95
43.42
51.18
55.80
57.66
56.92
53.80
48.77
42.61
36.24
30.48
25.81
22.36
19.91
18.13
16.72
15.55
14.62
13.94
13.41
12.68
11.21
8.41
3.84
-2.54
-10.34
-18.78
-26.97
-34.21
-40.25
-45.29
-49.98
-55.13
-61.44
-69.36
-78.84
-89.23
-99.18
-106.80
-109.94
-106.69
-96.01
-78.21
-54.98
-29.10
-3.65
18.75
36.53
49.31
57.67
62.57
64.88
65.08
63.41
59.99
55.14
49.45
43.64
38.29
33.63
29.52
25.64
21.78
17.96
14.46
11.59
9.50
8.10
7.26
6.99
7.59
9.57
13.36
18.88
25.39
31.48
35.40
35.62
31.23
22.19
9.35
-6.00
-22.48
-39.15
-55.51
-71.30
-85.91
-97.92
-105.18
-105.30
-96.68
-79.37
-55.28
-27.61
0.22
25.68
47.56
65.70
80.33
91.38
98.28
100.37
97.34
89.67
78.60
65.73
52.56
40.21
29.32
20.23
13.04
7.82
4.53
3.02
3.10
4.46
6.75
9.44
11.89
13.28
12.90
10.31
5.59
-0.74
-7.79
-14.64
-20.66
-25.63
-29.75
-33.52
-37.56
-42.48
-48.80
-56.73
-65.96
-75.40
-83.20
-87.05
-84.93
-75.75
-59.86
-39.01
-15.85
6.94
27.23
43.92
56.74
65.96
71.96
75.07
75.45
73.36
69.23
63.81
58.12
53.17
49.68
47.85
47.37
47.60
47.87
47.75
47.09
45.97
44.47
42.55
39.98
36.44
31.64
25.40
17.77
8.98
-0.55
-10.32
-19.88
-28.95
-37.53
-45.86
-54.28
-63.01
-72.16
-81.65
-91.45
-101.62
-112.29
-123.27
-133.75
-142.17
-146.51
-144.93
-136.52
-121.63
-101.80
-79.24
-56.25
-34.91
-17.11
-4.68
0.82
-1.43
-10.79
-24.77
-39.46
-50.85
-56.44
-56.30
-53.01
-50.25
-50.81
-55.23
-61.62
-66.69
-67.58
-62.97
-53.53
-41.11
-27.86
-15.40
-4.67
3.83
9.87
13.39
14.68
14.36
13.24
11.99
11.05
10.74
11.40
13.74
18.56
26.50
37.39
50.13
62.87
73.56
80.82
84.35
85.06
84.52
84.38
85.76
89.20
94.80
102.66
112.98
125.96
141.39
158.57
176.35
193.51
208.72
220.47
226.78
225.48
214.90
194.87
167.49
136.79
107.50
83.45
66.42
56.01
50.51
47.99
47.04
46.81
46.63
45.61
42.73
37.27
29.25
19.56
9.70
1.39
-4.12
-6.34
-5.68
-3.11
0.29
3.93
7.89
12.84
19.49
27.89
37.06
45.17
50.09
50.13
44.56
33.59
18.04
-0.97
-22.25
-44.33
-65.35
-83.15
-95.73
-102.00
-102.19
-97.78
-90.86
-83.27
-75.98
-68.95
-61.59
-53.34
-44.15
-34.67
-26.13
-20.02
-17.74
-20.10
-26.92
-36.84
-47.48
-56.03
-60.21
-58.94
-52.60
-42.67
-31.08
-19.46
-8.93
-0.10
6.65
11.00
12.81
12.22
9.71
6.01
1.84
-2.34
-6.33
-10.22
-14.18
-18.27
-22.51
-26.81
-31.06
-35.14
-39.08
-43.04
-47.37
-52.50
-58.59
-65.29
-71.51
-75.64
-75.94
-71.21
-61.26
-47.10
-30.61
-13.94
1.18
13.78
23.66
31.07
36.29
39.41
40.39
39.31
36.57
32.89
29.19
26.19
24.25
23.29
22.96
22.86
22.76
22.57
22.25
21.74
20.88
19.44
17.29
14.40
10.81
6.61
1.88
-3.35
-9.00
-14.92
-20.88
-26.62
-31.96
-36.88
-41.51
-46.12
-51.12
-56.88
-63.75
-71.77
-80.45
-88.77
-95.15
-97.83
-95.46
-87.52
-74.64
-58.30
-40.44
-22.85
-6.82
7.03
18.57
27.93
35.27
40.71
44.31
46.19
46.57
45.79
44.35
42.71
41.27
40.17
39.35
38.55
37.54
36.20
34.52
32.56
30.30
27.62
24.34
20.35
15.72
10.67
5.44
0.13
-5.36
-11.22
-17.62
-24.53
-31.64
-38.57
-45.04
-51.04
-56.95
-63.25
-70.38
-78.41
-86.86
-94.69
-100.44
-102.49
-99.51
-90.83
-76.72
-58.38
-37.60
-16.30
3.97
22.29
38.26
51.83
63.01
71.77
78.09
82.16
84.49
85.90
87.32
89.49
92.76
96.81
100.79
103.56
104.06
101.66
96.24
88.08
77.75
65.95
53.59
41.86
32.19
26.05
24.44
27.52
34.38
43.14
51.49
57.08
58.18
53.94
44.81
32.71
20.83
13.03
12.56
20.86
36.77
56.65
75.57
89.00
94.46
92.21
84.99
76.92
72.01
73.04
80.95
94.87
112.73
131.99
150.35
166.10
178.19
185.90
188.68
186.07
177.99
165.05
148.74
131.17
114.63
100.95
90.97
84.38
79.68
74.57
66.48
53.15
33.19
6.46
-25.86
-61.55
-97.70
-131.38
-160.00
-181.75
-195.74
-202.10
-201.98
-197.28
-190.34
-183.47
-178.44
-176.20
-176.70
-179.13
-182.24
-184.91
-186.51
-187.14
-187.56
-188.86
-191.84
-196.57
-202.05
-206.23
-206.51
-200.57
-187.17
-166.72
-141.20
-113.51
-86.56
-62.48
-42.17
-25.53
-11.90
-0.70
8.35
15.23
19.82
22.27
23.06
23.01
22.97
23.60
25.18
27.64
30.70
34.12
37.81
41.69
45.60
49.02
51.18
51.20
48.53
43.23
36.00
28.01
20.38
13.74
8.04
2.67
-3.24
-10.33
-18.76
-28.13
-37.71
-46.70
-54.53
-61.02
-66.39
-71.18
-76.20
-82.34
-90.33
-100.31
-111.52
-122.10
-129.42
-130.77
-124.35
-109.99
-89.28
-65.16
-40.92
-19.32
-2.01
10.57
18.74
23.25
24.80
24.00
21.36
17.47
12.98
8.59
4.95
2.52
1.51
1.78
3.02
4.81
6.77
8.60
10.08
10.87
10.51
8.36
3.84
-3.40
-13.26
-25.12
-37.97
-50.69
-62.35
-72.58
-81.56
-89.90
-98.41
-107.72
-118.09
-129.50
-141.65
-154.23
-166.92
-179.37
-191.18
-202.13
-212.38
-222.56
-233.46
-245.23
-256.56
-264.50
-265.00
-254.33
-230.59
-194.67
-150.07
-101.81
-55.13
-14.29
17.86
40.16
53.40
60.35
65.55
74.16
90.29
115.26
146.94
180.39
209.84
230.72
241.03
241.56
235.09
225.09
214.75
206.22
200.26
196.30
192.66
187.13
177.89
164.16
146.47
126.25
105.11
84.22
64.16
45.31
28.29
14.22
4.29
-0.77
-1.37
0.97
3.93
5.15
2.90
-3.46
-13.50
-25.88
-38.64
-49.58
-56.70
-58.62
-54.96
-46.41
-34.49
-21.04
-7.65
4.62
15.24
24.04
30.93
35.82
38.77
40.06
40.34
40.46
41.14
42.75
45.09
47.63
49.71
50.95
51.40
51.44
51.63
52.34
53.57
54.96
55.96
56.03
54.83
52.21
48.18
42.82
36.27
28.75
20.53
12.03
3.64
-4.33
-11.78
-18.93
-26.23
-34.23
-43.31
-53.36
-63.57
-72.44
-78.04
-78.61
-73.07
-61.48
-45.12
-26.08
-6.76
10.81
25.36
36.49
44.52
50.12
53.94
56.37
57.56
57.48
56.12
53.64
50.37
46.78
43.31
40.22
37.53
35.07
32.58
29.84
26.73
23.26
19.43
15.29
10.74
5.72
0.16
-5.97
-12.61
-19.65
-26.87
-34.03
-40.82
-47.05
-52.71
-58.09
-63.70
-70.16
-77.89
-86.87
-96.52
-105.61
-112.43
-115.13
-112.20
-102.95
-87.79
-68.25
-46.54
-24.97
-5.31
11.46
25.12
35.90
44.17
50.20
54.25
56.62
57.71
57.98
57.80
57.38
56.79
56.04
55.22
54.47
53.95
53.72
53.68
53.63
53.33
52.65
51.49
49.83
47.60
44.67
40.77
35.72
29.42
21.96
13.60
4.76
-4.12
-12.63
-20.48
-27.62
-34.29
-41.04
-48.57
-57.46
-67.84
-79.00
-89.29
-96.44
-98.18
-93.02
-80.82
-62.87
-41.55
-19.55
0.82
18.13
31.92
42.46
50.30
55.87
59.39
60.92
60.54
58.60
55.75
52.80
50.53
49.39
49.44
50.39
51.80
53.19
54.20
54.50
53.83
51.96
48.69
43.99
38.02
31.08
23.58
15.87
8.22
0.80
-6.27
-12.89
-18.97
-24.58
-29.94
-35.52
-41.91
-49.65
-58.91
-69.21
-79.23
-86.96
-90.14
-86.93
-76.60
-59.84
-38.67
-15.88
5.82
24.50
39.30
50.29
58.03
63.24
66.53
68.35
69.05
68.93
68.24
67.13
65.69
64.03
62.27
60.63
59.37
58.72
58.71
59.15
59.56
59.35
57.97
55.07
50.64
44.97
38.56
31.88
25.27
18.77
12.21
5.31
-2.10
-9.99
-18.04
-25.79
-32.81
-38.95
-44.39
-49.73
-55.75
-63.27
-72.73
-83.83
-95.38
-105.27
-110.93
-110.09
-101.53
-85.64
-64.33
-40.41
-16.70
4.72
22.84
37.54
49.21
58.28
65.05
69.73
72.49
73.68
73.73
73.11
72.21
71.28
70.38
69.45
68.36
66.98
65.27
63.31
61.25
59.24
57.33
55.40
53.22
50.47
46.92
42.50
37.35
31.77
26.12
20.61
15.35
10.22
4.97
-0.68
-6.94
-13.83
-21.16
-28.54
-35.56
-41.88
-47.39
-52.23
-56.78
-61.59
-67.29
-74.44
-83.27
-93.38
-103.45
-111.36
-114.56
-110.95
-99.66
-81.48
-58.71
-34.41
-11.42
8.35
24.18
36.30
45.35
51.96
56.58
59.50
60.97
61.31
60.87
60.00
58.93
57.81
56.73
55.77
55.05
54.72
54.82
55.28
55.83
56.04
55.48
53.82
50.97
47.14
42.69
38.00
33.28
28.59
23.80
18.79
13.60
8.42
3.53
-0.86
-4.74
-8.41
-12.31
-16.84
-22.17
-28.17
-34.41
-40.46
-45.96
-50.81
-55.24
-59.66
-64.64
-70.79
-78.48
-87.56
-97.10
-105.32
-109.89
-108.64
-100.30
-85.04
-64.61
-41.70
-19.15
0.87
17.25
29.92
39.37
46.23
51.05
54.14
55.78
56.28
55.99
55.23
54.22
53.06
51.78
50.40
49.10
48.15
47.83
48.30
49.40
50.69
51.55
51.45
50.12
47.70
44.56
41.15
37.75
34.42
31.03
27.34
23.21
18.62
13.72
8.72
3.81
-1.00
-5.84
-10.98
-16.64
-22.91
-29.53
-36.05
-41.94
-46.86
-50.83
-54.28
-57.88
-62.39
-68.45
-76.28
-85.53
-95.11
-103.20
-107.67
-106.60
-98.93
-84.90
-66.08
-44.84
-23.68
-4.56
11.40
23.94
33.26
39.77
43.88
45.98
46.51
45.95
44.74
43.30
41.88
40.69
39.84
39.45
39.57
40.18
41.09
42.04
42.78
43.10
42.92
42.16
40.73
38.50
35.38
31.33
26.53
21.35
16.19
11.42
7.22
3.53
0.10
-3.44
-7.42
-12.06
-17.31
-22.92
-28.50
-33.67
-38.33
-42.62
-46.98
-51.91
-57.84
-64.96
-73.13
-81.73
-89.67
-95.42
-97.34
-94.06
-84.99
-70.59
-52.36
-32.41
-12.84
4.71
19.38
30.93
39.57
45.57
49.19
50.67
50.34
48.72
46.43
44.16
42.40
41.36
40.99
41.05
41.26
41.44
41.51
41.42
41.11
40.48
39.36
37.66
35.35
32.50
29.17
25.43
21.32
16.89
12.28
7.66
3.21
-0.98
-5.03
-9.18
-13.76
-18.96
-24.75
-30.80
-36.62
-41.74
-45.90
-49.17
-51.98
-55.00
-59.02
-64.73
-72.36
-81.46
-90.76
-98.24
-101.65
-99.23
-90.24
-75.39
-56.60
-36.35
-16.96
-0.02
13.88
24.80
33.16
39.40
43.80
46.55
47.90
48.17
47.72
46.88
45.89
44.88
43.99
43.31
43.00
43.14
43.72
44.62
45.62
46.40
46.67
46.26
45.07
43.13
40.59
37.59
34.30
30.87
27.39
24.02
20.85
17.96
15.26
12.50
9.31
5.32
0.45
-5.16
-10.97
-16.42
-21.03
-24.62
-27.26
-29.31
-31.26
-33.64
-37.00
-41.51
-46.78
-51.70
-54.37
-52.72
-45.07
-30.81
-10.66
13.51
39.36
64.81
88.49
109.88
128.95
145.74
160.00
171.21
178.68
181.98
181.22
176.98
170.08
161.03
149.58
134.61
114.62
88.43
56.17
19.57
-18.30
-53.90
-84.44
-108.71
-127.18
-141.53
-153.74
-165.23
-176.47
-187.03
-196.07
-202.81
-206.91
-208.39
-207.52
-204.57
-199.50
-192.01
-181.73
-168.39
-151.98
-132.73
-111.00
-87.18
-61.93
-36.33
-11.93
9.65
27.60
42.80
58.23
78.23
106.82
145.64
192.92
243.94
293.04
335.90
370.70
397.58
416.97
428.12
428.87
417.02
392.14
356.60
315.07
272.43
231.80
193.42
155.36
115.56
73.87
33.15
-1.38
-23.89
-30.30
-20.08
3.21
32.86
61.08
81.43
90.46
88.09
76.63
59.22
38.46
15.85
-7.90
-32.21
-56.17
-78.74
-99.25
-118.09
-136.95
-158.54
-185.66
-220.03
-261.15
-305.85
-348.68
-383.54
-405.72
-413.64
-409.32
-397.39
-383.02
-369.87
-359.09
-349.53
-338.86
-324.84
-306.14
-282.38
-253.83
-221.17
-185.32
-147.58
-109.50
-72.66
-38.41
-7.73
18.76
40.75
58.36
72.24
83.50
93.44
103.02
112.34
120.55
126.39
128.93
128.39
126.21
124.60
125.63
130.50
139.25
150.92
163.79
175.28
182.00
180.12
166.38
139.62
101.96
58.59
16.32
-18.88
-44.07
-60.14
-71.07
-82.03
-97.28
-119.02
-146.94
-178.58
-210.14
-237.47
-257.20
-267.65
-269.17
-263.78
-253.97
-241.56
-227.06
-209.49
-187.11
-158.36
-122.88
-82.14
-39.32
1.40
36.08
62.27
79.64
89.70
94.93
97.45
98.42
98.31
97.65
97.64
99.76
104.72
111.62
117.91
120.77
119.00
113.96
108.97
107.32
110.15
115.58
119.65
118.49
110.33
96.22
79.06
61.85
46.02
31.09
15.53
-1.76
-20.40
-38.47
-53.57
-64.13
-70.44
-74.53
-79.18
-86.68
-97.48
-109.87
-120.41
-124.93
-119.94
-103.69
-76.65
-41.52
-2.46
36.01
70.09
97.69
118.69
134.39
146.76
157.38
166.90
174.95
180.68
183.38
182.98
180.33
177.12
175.54
177.73
184.93
196.75
210.64
222.33
226.81
220.09
200.46
169.25
130.22
88.11
47.12
9.93
-22.26
-49.21
-70.79
-86.74
-96.98
-102.18
-104.08
-105.17
-107.97
-113.99
-123.31
-134.70
-146.41
-156.97
-165.58
-171.90
-175.36
-174.86
-168.79
-155.77
-135.50
-109.19
-79.29
-48.61
-19.33
7.69
32.78
56.70
79.79
101.46
120.24
134.39
142.54
144.13
139.58
129.97
116.74
101.30
84.80
68.07
51.61
35.83
21.07
7.77
-3.69
-13.01
-20.19
-25.60
-29.87
-33.72
-37.62
-41.56
-45.18
-48.04
-49.92
-50.95
-51.45
-51.74
-51.89
-51.87
-51.74
-51.96
-53.47
-57.37
-64.31
-74.10
-85.39
-95.97
-103.41
-105.68
-101.77
-91.85
-77.32
-60.46
-43.94
-30.08
-20.25
-14.52
-11.79
-10.47
-9.24
-7.67
-6.26
-5.95
-7.45
-10.73
-14.92
-18.77
-21.23
-22.04
-21.77
-21.63
-22.86
-26.27
-32.03
-39.75
-48.87
-58.77
-68.72
-77.56
-83.50
-84.41
-78.68
-66.39
-49.86
-33.40
-21.81
-18.48
-24.17
-37.22
-54.89
-75.11
-97.52
-123.15
-153.05
-186.78
-221.72
-253.52
-277.42
-289.75
-288.94
-275.64
-252.11
-221.42
-186.58
-150.01
-113.47
-78.11
-44.76
-14.27
12.58
35.23
53.63
68.37
80.41
90.61
99.36
106.54
111.99
116.16
120.44
126.82
137.05
151.82
170.15
189.74
207.82
222.14
231.75
237.21
239.94
241.48
242.74
243.51
242.58
238.21
228.71
213.06
191.41
165.11
136.47
108.22
83.04
63.15
49.95
43.80
43.84
48.09
53.78
58.10
59.01
55.69
48.75
39.78
30.51
22.20
15.26
9.42
4.22
-0.51
-4.47
-6.95
-7.14
-4.46
1.18
9.31
18.91
28.58
36.64
41.41
41.39
35.60
23.97
7.60
-11.22
-29.50
-44.38
-54.11
-58.71
-59.96
-60.52
-62.80
-67.84
-75.07
-82.75
-88.91
-92.24
-92.65
-91.23
-89.85
-90.49
-94.62
-102.68
-113.88
-126.32
-137.63
-145.94
-150.66
-152.65
-153.72
-155.68
-159.42
-164.49
-169.43
-172.39
-171.79
-166.59
-156.34
-140.97
-120.84
-96.60
-69.35
-40.49
-11.58
15.96
40.92
62.51
80.36
94.50
105.39
113.69
120.00
124.52
127.06
127.28
124.99
120.46
114.50
108.04
101.73
95.59
89.11
81.59
72.69
62.71
52.57
43.52
36.62
32.34
30.40
29.87
29.53
28.27
25.59
21.70
17.44
13.89
11.85
11.61
12.77
14.54
16.01
16.61
16.18
14.92
13.32
11.96
11.49
12.56
15.70
21.23
29.02
38.49
48.59
58.11
65.94
71.42
74.48
75.64
75.84
76.00
76.83
78.53
80.97
83.71
86.29
88.21
88.82
87.12
81.83
71.72
56.13
35.41
10.83
-15.73
-42.44
-67.75
-90.38
-109.18
-122.96
-130.81
-132.49
-128.77
-121.37
-112.37
-103.70
-96.56
-91.51
-88.64
-87.84
-88.68
-90.26
-91.06
-89.24
-83.23
-72.47
-57.71
-40.92
-24.59
-10.84
-0.70
6.20
11.34
16.59
23.51
32.82
44.36
57.27
70.37
82.63
93.40
102.65
110.85
118.84
127.39
136.84
146.81
156.10
163.26
167.22
167.94
166.74
165.76
167.01
171.29
177.49
182.80
183.63
176.88
160.93
135.88
103.15
64.64
22.03
-23.51
-71.20
-120.49
-170.94
-222.22
-273.98
-325.67
-376.12
-423.35
-464.59
-496.65
-516.39
-521.32
-510.04
-482.60
-440.85
-388.36
-330.03
-271.33
-217.39
-172.10
-137.63
-114.14
-99.94
-91.83
-85.73
-77.53
-64.18
-44.49
-19.48
8.26
35.81
61.08
83.56
104.24
124.83
146.72
170.28
194.76
218.77
240.87
259.98
275.39
286.32
291.39
288.61
275.88
251.78
216.42
171.53
119.89
64.46
7.83
-47.68
-99.32
-143.16
-174.15
-187.31
-179.79
-152.81
-112.09
-66.56
-25.79
2.98
16.21
14.03
-1.29
-26.91
-59.97
-97.06
-133.10
-161.21
-174.30
-167.92
-142.59
-104.31
-62.17
-24.26
5.78
29.51
51.43
75.53
102.54
129.79
153.31
170.60
182.03
189.98
196.33
200.28
197.84
183.25
151.62
101.32
35.12
-40.03
-114.91
-180.50
-230.57
-263.11
-280.52
-287.76
-289.68
-288.78
-284.88
-276.70
-263.99
-248.71
-234.12
-222.81
-214.76
-207.05
-195.45
-176.71
-150.11
-117.42
-81.49
-44.80
-8.60
26.90
62.04
96.97
131.63
165.67
198.56
229.51
257.62
282.02
301.81
315.88
322.48
319.58
305.73
281.22
248.68
212.52
177.40
146.59
121.10
100.04
81.90
65.80
52.02
41.73
36.03
35.31
38.86
45.04
51.49
55.59
54.79
47.03
31.26
7.46
-23.52
-60.28
-100.98
-142.99
-182.49
-214.46
-233.64
-235.98
-220.15
-188.07
-144.08
-93.25
-39.32
15.74
70.83
123.75
170.11
204.02
220.56
218.64
202.21
179.11
157.83
144.17
139.28
140.49
143.52
145.15
144.51
142.52
140.51
138.80
136.46
131.94
124.36
114.21
103.52
95.20
91.83
94.59
102.62
113.30
123.11
128.95
129.16
123.99
115.29
105.48
96.41
88.50
80.57
70.43
55.92
35.98
11.52
-14.47
-37.41
-52.36
-55.46
-45.20
-23.08
6.58
37.77
64.54
82.53
90.08
88.14
79.30
66.34
50.84
32.63
10.44
-16.77
-48.33
-81.29
-110.90
-132.47
-142.95
-142.19
-132.64
-118.09
-102.05
-86.75
-73.01
-60.93
-50.81
-43.65
-41.02
-44.35
-54.21
-69.90
-89.53
-110.36
-129.44
-144.20
-152.69
-154.03
-148.42
-137.19
-122.49
-106.70
-91.79
-78.73
-67.58
-57.83
-49.03
-40.97
-33.58
-26.48
-18.71
-9.00
3.50
18.47
34.21
48.04
57.45
61.07
59.32
54.26
48.74
45.44
45.97
50.49
57.91
66.40
74.13
79.72
82.48
82.50
80.50
77.73
75.65
75.41
77.18
79.78
80.88
77.78
68.49
52.60
31.45
7.64
-15.80
-36.23
-51.95
-62.44
-68.72
-73.48
-80.75
-94.99
-119.32
-153.96
-195.55
-237.92
-274.00
-298.17
-307.55
-302.26
-284.32
-256.34
-220.71
-179.60
-135.53
-91.72
-51.94
-19.52
3.70
18.07
25.81
29.94
32.99
36.06
38.85
40.43
40.28
39.02
38.32
40.10
45.52
54.36
65.06
75.36
83.24
87.62
88.60
87.22
84.89
82.64
80.65
78.06
73.21
64.31
50.00
29.92
4.76
-23.92
-54.09
-83.70
-111.05
-135.04
-155.26
-171.82
-184.91
-194.27
-198.92
-197.32
-188.10
-170.83
-146.49
-117.17
-85.42
-53.29
-21.98
8.03
36.25
61.70
82.69
97.36
104.62
104.85
100.09
93.38
87.71
84.86
84.87
86.23
86.77
84.75
79.63
72.20
63.99
56.52
50.54
45.89
41.70
36.98
31.02
23.71
15.50
7.13
-0.59
-7.14
-12.34
-16.53
-20.33
-24.67
-30.50
-38.44
-48.55
-60.08
-71.58
-81.20
-87.13
-87.97
-83.08
-72.63
-57.55
-39.30
-19.59
-0.10
17.76
33.11
45.52
55.04
61.97
66.69
69.59
71.03
71.45
71.36
71.31
71.68
72.53
73.67
74.68
75.18
74.96
74.03
72.48
70.45
67.92
64.86
61.30
57.34
53.27
49.29
45.49
41.71
37.67
33.09
27.89
22.22
16.32
10.36
4.24
-2.40
-10.09
-19.14
-29.39
-39.95
-49.24
-55.41
-56.79
-52.49
-42.76
-28.82
-12.53
4.24
20.11
34.37
46.83
57.51
66.35
73.10
77.49
79.49
79.42
77.97
75.89
73.78
71.86
69.95
67.66
64.66
60.91
56.74
52.71
49.43
47.16
45.71
44.55
42.95
40.47
37.08
33.18
29.30
25.84
22.79
19.79
16.34
12.06
6.91
1.22
-4.55
-9.92
-14.60
-18.60
-22.25
-26.14
-30.95
-37.15
-44.80
-53.29
-61.35
-67.29
-69.49
-66.94
-59.48
-47.85
-33.43
-17.79
-2.33
11.99
24.60
35.29
43.98
50.66
55.22
57.57
57.72
55.99
53.16
50.47
49.35
50.80
54.99
61.03
67.19
71.59
72.87
70.51
64.76
56.33
45.96
34.49
22.79
11.97
3.06
-3.45
-7.87
-11.39
-15.53
-21.55
-29.90
-40.14
-51.19
-61.80
-70.89
-77.82
-82.51
-85.41
-87.56
-90.31
-95.10
-102.84
-113.44
-125.64
-137.20
-145.56
-148.78
-146.27
-138.99
-128.87
-117.84
-106.79
-95.33
-82.23
-66.43
-47.91
-28.00
-8.82
7.52
19.69
27.27
30.57
30.36
27.71
24.08
21.35
21.30
25.04
32.38
41.76
50.91
57.80
61.35
61.65
59.55
55.87
51.08
45.15
38.02
29.97
21.62
13.73
6.64
0.13
-6.53
-14.11
-23.01
-32.98
-43.34
-53.22
-62.08
-69.92
-77.32
-85.18
-94.40
-105.41
-117.72
-129.82
-139.42
-144.07
-141.98
-132.58
-116.82
-96.68
-74.58
-52.63
-32.19
-13.95
1.82
14.92
25.10
32.19
36.25
37.80
37.74
37.19
37.13
38.08
39.99
42.34
44.41
45.86
47.07
49.20
53.79
62.25
75.12
91.85
110.96
130.52
148.84
164.96
178.79
191.04
202.79
214.92
227.51
239.65
249.52
255.16
255.26
249.74
239.87
227.91
216.31
207.12
201.49
199.39
199.54
199.58
196.61
188.10
172.88
151.78
127.32
102.75
80.69
62.27
47.07
33.70
20.49
5.96
-11.22
-32.31
-58.20
-88.83
-122.58
-156.11
-185.01
-204.93
-212.92
-208.22
-192.52
-169.40
-143.44
-119.09
-99.61
-86.53
-79.46
-76.60
-75.53
-74.12
-70.97
-65.62
-58.29
-49.62
-40.70
-33.11
-28.79
-29.33
-35.15
-44.84
-55.51
-63.94
-68.27
-68.99
-68.68
-70.63
-76.96
-87.69
-100.83
-113.66
-124.10
-131.31
-135.35
-136.27
-133.54
-126.20
-113.72
-96.79
-77.54
-58.91
-43.42
-32.29
-25.06
-20.18
-16.02
-11.66
-7.21
-3.36
-0.87
0.06
-0.27
-1.29
-2.54
-3.86
-5.18
-6.39
-7.23
-7.54
-7.43
-7.34
-7.77
-8.86
-10.32
-11.49
-11.81
-11.16
-9.98
-8.99
-8.83
-9.84
-11.97
-15.02
-18.77
-23.03
-27.54
-32.07
-36.42
-40.70
-45.31
-50.74
-57.24
-64.38
-71.01
-75.49
-76.21
-72.20
-63.41
-50.76
-35.72
-19.94
-4.72
9.11
21.21
31.46
39.84
46.23
50.43
52.31
51.84
49.23
44.86
39.26
33.15
27.30
22.56
19.75
19.55
22.30
27.88
35.66
44.57
53.33
60.71
65.80
68.21
68.10
65.90
62.15
57.15
51.03
43.80
35.61
26.80
17.89
9.29
0.96
-7.53
-16.78
-27.11
-38.13
-48.72
-57.23
-62.00
-61.90
-56.68
-47.08
-34.63
-21.19
-8.51
2.31
10.98
17.79
23.25
27.59
30.62
31.86
31.00
28.22
24.07
19.05
13.58
8.44
5.18
6.16
13.52
27.84
47.08
66.72
81.39
87.08
82.76
70.45
53.91
36.67
20.71
6.41
-6.69
-18.85
-29.77
-38.81
-45.67
-50.73
-55.00
-59.84
-66.37
-75.03
-85.09
-94.86
-102.01
-104.40
-100.79
-91.37
-77.61
-61.68
-45.62
-30.58
-16.84
-4.10
7.99
19.33
29.39
37.55
43.53
47.66
50.72
53.59
56.82
60.40
63.88
66.64
68.27
68.75
68.43
67.83
67.32
67.01
66.72
66.10
64.75
62.37
58.75
53.81
47.63
40.44
32.60
24.56
16.71
9.37
2.62
-3.67
-9.89
-16.59
-24.30
-33.34
-43.55
-54.02
-63.25
-69.41
-70.99
-67.22
-58.46
-45.91
-31.30
-16.30
-2.17
10.35
20.94
29.55
36.25
41.08
44.16
45.60
45.47
43.90
41.09
37.31
33.00
28.66
24.75
21.63
19.43
18.16
17.70
17.89
18.48
19.18
19.58
19.21
17.67
14.70
10.37
5.05
-0.74
-6.51
-12.07
-17.63
-23.65
-30.70
-39.14
-49.01
-59.94
-71.24
-81.88
-90.57
-95.93
-96.72
-92.14
-82.10
-67.28
-49.01
-28.80
-8.09
11.99
30.63
47.29
61.63
73.30
81.93
87.13
88.69
86.94
83.01
78.87
76.83
78.75
85.22
95.22
106.48
116.33
122.67
124.50
121.99
116.14
108.34
100.00
92.45
86.82
83.81
83.71
86.16
90.49
95.88
101.78
108.04
114.87
122.44
130.47
137.86
142.61
142.19
134.25
117.32
91.44
58.27
20.75
-17.53
-52.98
-82.61
-104.43
-117.66
-122.72
-121.11
-115.01
-106.78
-98.46
-91.43
-86.27
-82.94
-80.92
-79.53
-78.17
-76.59
-74.95
-73.83
-73.90
-75.52
-78.48
-81.97
-84.83
-86.08
-85.31
-82.75
-79.20
-75.72
-73.33
-72.85
-74.71
-78.95
-85.08
-92.16
-99.10
-105.00
-109.48
-112.84
-115.77
-118.98
-122.73
-126.76
-130.38
-132.80
-133.51
-132.36
-129.67
-126.03
-122.24
-119.18
-117.58
-117.73
-119.24
-120.95
-121.10
-117.88
-110.00
-97.12
-79.95
-59.90
-38.66
-17.68
2.04
19.91
35.66
49.11
60.07
68.40
74.05
77.15
78.17
77.73
76.55
75.26
74.24
73.60
73.27
73.07
72.91
72.75
72.55
72.28
71.69
70.50
68.33
64.92
60.21
54.42
47.98
41.43
35.27
29.94
25.70
22.67
20.75
19.53
18.38
16.72
14.71
13.84
17.21
29.06
53.55
93.07
146.98
211.27
279.27
343.34
396.53
433.83
452.83
453.61
438.38
410.86
375.61
337.08
298.93
263.37
231.19
202.15
175.62
151.08
128.29
107.27
87.78
69.28
50.89
31.25
8.79
-17.95
-49.32
-83.46
-115.99
-140.85
-152.52
-148.68
-131.83
-109.02
-89.67
-82.17
-91.01
-115.43
-150.17
-187.51
-219.83
-241.54
-249.90
-245.16
-230.06
-209.31
-188.82
-174.56
-171.03
-179.90
-199.27
-223.84
-247.09
-263.61
-271.27
-271.79
-269.28
-267.88
-269.64
-273.89
-277.89
-278.29
-272.08
-257.22
-232.94
-199.84
-160.20
-117.78
-76.92
-41.08
-11.66
12.16
32.44
50.99
68.20
83.15
94.36
100.93
103.12
102.24
100.01
97.97
97.03
97.40
98.48
99.11
97.80
93.23
84.70
72.36
56.88
39.23
20.16
0.31
-19.45
-37.85
-53.61
-66.02
-75.20
-81.92
-86.93
-90.43
-92.01
-91.35
-88.92
-86.04
-84.36
-84.58
-85.57
-84.59
-78.81
-67.09
-50.93
-33.85
-19.47
-9.78
-4.32
-0.87
3.44
11.04
23.83
43.36
70.76
106.24
147.73
190.28
226.82
250.44
257.03
246.76
223.74
193.80
162.01
131.29
102.36
74.73
47.95
22.56
-0.05
-18.32
-31.39
-39.63
-44.42
-47.36
-49.26
-49.48
-46.00
-36.18
-17.90
9.16
42.84
78.61
110.64
133.51
143.84
141.55
129.55
112.27
93.39
74.10
52.86
27.05
-4.54
-39.89
-74.09
-101.59
-119.03
-126.85
-128.74
-129.26
-131.33
-135.13
-138.58
-138.73
-133.07
-120.14
-99.61
-72.19
-39.84
-5.75
26.04
51.74
68.95
77.21
77.80
72.82
64.25
53.78
43.05
33.99
28.56
28.03
32.25
39.39
46.76
51.96
53.71
52.18
48.43
43.74
39.03
34.57
30.21
25.52
19.98
13.14
4.67
-5.50
-17.30
-30.43
-44.48
-58.91
-73.01
-85.76
-95.83
-101.87
-102.84
-98.49
-89.58
-77.84
-65.61
-55.14
-47.94
-44.40
-43.72
-44.52
-45.45
-45.78
-45.53
-45.00
-44.28
-43.02
-40.59
-36.69
-31.70
-26.65
-22.61
-20.06
-18.66
-17.69
-16.79
-16.61
-18.66
-24.57
-34.82
-48.11
-61.39
-71.03
-74.24
-70.14
-60.03
-46.75
-33.57
-23.25
-17.61
-17.38
-22.44
-31.83
-43.83
-56.01
-65.62
-70.24
-68.48
-60.47
-47.84
-33.15
-19.10
-7.61
0.58
5.89
9.54
12.87
16.85
21.83
27.51
33.24
38.29
42.06
44.19
44.59
43.44
41.23
38.65
36.48
35.34
35.53
36.87
38.86
40.80
42.05
42.13
40.75
37.81
33.46
28.01
22.00
15.99
10.48
5.68
1.49
-2.44
-6.65
-11.59
-17.49
-24.22
-31.10
-37.01
-40.55
-40.50
-36.17
-27.70
-16.02
-2.46
11.77
25.93
39.85
53.62
67.31
80.68
93.24
104.45
113.94
121.70
128.05
133.59
139.07
145.18
152.36
160.55
168.97
176.22
180.48
180.12
174.13
162.53
146.24
126.76
105.72
84.43
63.82
44.40
26.44
10.05
-4.84
-18.38
-30.80
-42.24
-52.69
-61.96
-69.83
-76.20
-81.22
-85.25
-88.83
-92.56
-97.00
-102.53
-109.12
-116.14
-122.30
-125.88
-125.23
-119.44
-108.68
-94.32
-78.37
-62.88
-49.30
-38.19
-29.32
-22.05
-15.72
-10.00
-4.99
-0.99
1.65
2.87
2.97
2.48
2.02
1.96
2.34
2.91
3.41
3.78
4.21
5.06
6.59
8.82
11.40
13.80
15.50
16.22
15.99
15.14
14.12
13.33
12.95
12.84
12.62
11.84
10.18
7.60
4.32
0.78
-2.75
-6.13
-9.48
-13.05
-17.05
-21.62
-26.83
-32.75
-39.47
-46.96
-54.81
-62.15
-67.67
-69.99
-68.03
-61.41
-50.54
-36.53
-20.85
-4.94
10.08
23.47
34.85
44.02
50.85
55.29
57.43
57.61
56.43
54.69
53.21
52.56
52.94
54.14
55.59
56.65
56.82
55.90
54.01
51.48
48.62
45.61
42.43
38.97
35.11
30.90
26.53
22.29
18.42
14.98
11.79
8.42
4.41
-0.57
-6.44
-12.72
-18.66
-23.57
-27.15
-29.63
-31.72
-34.20
-37.68
-42.32
-48.00
-54.42
-61.15
-67.59
-72.76
-75.27
-73.63
-66.76
-54.61
-38.34
-20.05
-2.20
13.18
24.86
32.45
36.20
36.75
34.94
31.75
28.25
25.34
23.58
23.01
23.23
23.69
23.94
23.91
23.82
24.00
24.59
25.45
26.20
26.35
25.57
23.75
21.05
17.81
14.44
11.20
8.27
5.61
3.09
0.48
-2.49
-6.03
-10.20
-14.89
-19.85
-24.71
-29.21
-33.28
-37.06
-40.94
-45.39
-50.68
-56.71
-62.80
-67.77
-70.18
-68.85
-63.21
-53.64
-41.27
-27.69
-14.47
-2.77
6.83
14.14
19.27
22.41
23.80
23.72
22.43
20.16
17.07
13.39
9.56
6.50
5.52
8.01
14.85
25.86
39.72
54.26
67.22
77.02
83.09
85.73
85.69
83.60
79.78
74.36
67.52
59.70
51.50
43.47
35.87
28.50
20.91
12.56
3.13
-7.33
-18.47
-29.64
-40.04
-48.79
-55.03
-58.05
-57.45
-53.25
-45.97
-36.53
-26.02
-15.45
-5.58
3.12
10.29
15.69
19.10
20.44
19.91
17.93
15.05
11.75
8.28
4.75
1.18
-2.32
-5.52
-8.09
-9.78
-10.51
-10.37
-9.55
-8.33
-6.96
-5.79
-5.21
-5.59
-7.18
-9.91
-13.33
-16.81
-19.76
-21.96
-23.60
-25.13
-27.00
-29.57
-33.01
-37.41
-42.90
-49.36
-56.25
-62.37
-66.03
-65.65
-60.40
-50.62
-37.74
-23.67
-10.05
2.19
12.76
21.73
29.10
34.67
38.31
40.14
40.66
40.59
40.53
40.64
40.74
40.48
39.63
38.31
36.90
35.85
35.43
35.56
35.75
35.40
33.99
31.37
27.81
23.86
20.10
16.83
13.99
11.23
8.16
4.63
0.68
-3.44
-7.54
-11.62
-15.84
-20.43
-25.52
-31.23
-37.56
-44.49
-51.77
-58.89
-64.87
-68.40
-68.21
-63.44
-54.10
-41.12
-26.18
-11.14
2.45
13.67
22.32
28.66
33.21
36.48
38.83
40.45
41.38
41.55
40.78
38.98
36.15
32.49
28.51
24.82
22.02
20.50
20.33
21.22
22.63
23.94
24.64
24.43
23.29
21.42
19.09
16.51
13.73
10.63
7.05
2.90
-1.82
-6.96
-12.26
-17.45
-22.27
-26.53
-30.15
-33.24
-36.12
-39.34
-43.48
-48.86
-55.25
-61.73
-66.80
-68.83
-66.53
-59.44
-48.08
-33.79
-18.33
-3.37
9.87
