1719941553.00
64.000000
-0.00
-0.00
-0.00
-0.00
-0.00
-0.00
-0.00
-0.00
-0.00
-0.00
0.00
0.01
0.01
-0.00
-0.03
-0.05
-0.05
0.00
0.13
0.36
0.66
1.01
1.37
1.72
2.06
2.40
2.79
3.24
3.80
4.44
5.10
5.74
6.33
6.90
7.50
8.22
9.09
10.23
11.55
12.94
14.29
15.54
16.74
18.05
19.69
21.79
24.59
27.90
31.44
34.93
38.20
41.35
44.69
48.68
53.66
60.00
67.36
75.21
82.97
90.28
97.24
104.37
112.44
122.02
133.69
146.97
161.06
175.06
188.41
201.17
214.05
228.45
243.16
260.50
281.05
304.89
330.75
355.67
375.35
385.23
382.09
365.19
336.98
301.26
262.21
222.83
184.51
147.45
111.63
77.49
45.93
18.02
-6.19
-27.49
-47.16
-66.31
-85.33
-103.78
-120.69
-135.20
-146.98
-156.60
-165.34
-174.73
-185.84
-198.91
-213.20
-227.48
-240.54
-251.69
-261.18
-269.94
-279.23
-290.23
-303.82
-320.35
-339.31
-359.16
-377.23
-390.17
-394.85
-389.44
-374.11
-351.04
-323.54
-294.85
-267.11
-241.03
-216.38
-192.69
-169.86
-148.23
-128.28
-110.27
-94.01
-79.05
-64.95
-51.53
-38.93
-27.51
-17.62
-9.34
-2.41
3.67
9.55
15.68
22.14
28.50
33.90
37.37
38.24
36.50
32.95
28.94
25.87
24.64
25.30
27.16
29.12
30.22
30.07
28.84
27.06
25.28
23.76
22.50
21.31
20.07
18.80
17.65
16.80
16.36
16.25
16.26
16.09
15.50
14.43
13.11
11.96
11.39
11.59
12.38
13.30
13.90
14.12
14.29
15.06
16.91
19.84
23.31
26.47
28.70
29.89
30.43
30.93
31.84
33.13
34.45
35.33
35.49
34.98
34.10
33.22
32.57
32.17
31.84
31.34
30.52
29.38
28.14
27.14
26.75
27.20
28.36
29.66
30.08
28.36
23.37
14.59
2.33
-12.20
-27.23
-40.96
-52.07
-59.99
-64.87
-67.34
-68.05
-67.58
-66.30
-64.47
-62.35
-60.19
-58.14
-56.18
-54.17
-51.88
-49.12
-45.86
-42.21
-38.38
-34.62
-31.12
-27.98
-25.20
-22.72
-20.41
-18.14
-15.84
-13.49
-11.17
-8.99
-7.04
-5.30
-3.70
-2.13
-0.49
1.21
2.89
4.41
5.72
6.78
7.63
8.36
9.00
9.61
10.21
10.80
11.39
11.95
12.41
12.73
12.86
12.83
12.76
12.78
13.03
13.53
14.21
14.94
15.54
15.94
16.08
16.02
15.83
15.58
15.29
14.98
14.65
14.29
13.96
13.67
13.44
13.23
12.99
12.65
12.19
11.65
11.12
10.68
10.35
10.10
9.82
9.42
8.90
8.36
7.93
7.72
7.72
7.79
7.81
7.66
7.36
6.98
6.63
6.40
6.28
6.25
6.23
6.21
6.16
6.12
6.09
6.07
6.01
5.89
5.67
5.37
5.03
4.72
4.47
4.31
4.21
4.16
4.11
4.05
3.97
3.86
3.71
3.49
3.24
2.99
2.82
2.77
2.80
2.86
2.84
2.69
2.42
2.12
1.86
1.73
1.77
1.96
2.26
2.60
2.94
3.26
3.56
3.83
4.04
4.16
4.14
3.92
3.54
3.05
2.55
2.14
1.87
1.76
1.81
2.01
2.31
2.61
2.84
2.91
2.85
2.74
2.71
2.85
3.15
3.49
3.72
3.70
3.43
2.99
2.47
1.97
1.51
1.10
0.75
0.48
0.34
0.32
0.38
0.43
0.42
0.32
0.24
0.28
0.51
0.91
1.32
1.57
1.51
1.17
0.65
0.19
-0.06
0.01
0.37
0.90
1.47
1.96
2.30
2.47
2.50
2.43
2.31
2.16
2.03
1.92
1.85
1.81
1.80
1.80
1.81
1.81
1.83
1.90
2.05
2.25
2.45
2.56
2.51
2.33
2.09
1.91
1.85
1.90
2.00
2.04
1.98
1.86
1.73
1.66
1.64
1.65
1.63
1.54
1.40
1.23
1.05
0.86
0.61
0.30
-0.04
-0.34
-0.52
-0.56
-0.50
-0.40
-0.36
-0.40
-0.52
-0.65
-0.74
-0.75
-0.66
-0.50
-0.27
-0.03
0.22
0.47
0.71
0.93
1.11
1.20
1.18
1.04
0.86
0.72
0.71
0.86
1.11
1.38
1.54
1.56
1.44
1.24
1.06
0.97
1.01
1.14
1.30
1.39
1.33
1.11
0.76
0.38
0.05
-0.15
-0.20
-0.11
0.11
0.44
0.87
1.33
1.73
1.95
1.92
1.66
1.24
0.82
0.51
0.37
0.39
0.50
0.61
0.65
0.60
0.47
0.32
0.19
0.11
0.08
0.08
0.08
0.05
0.01
-0.05
-0.07
-0.05
0.02
0.11
0.21
0.29
0.36
0.41
0.48
0.58
0.69
0.79
0.85
0.84
0.77
0.67
0.61
0.66
0.86
1.17
1.55
1.87
2.05
2.05
1.90
1.71
1.55
1.49
1.50
1.52
1.48
1.34
1.08
0.75
0.39
0.07
-0.17
-0.28
-0.26
-0.14
-0.00
0.07
0.01
-0.18
-0.46
-0.75
-0.98
-1.10
-1.11
-1.04
-0.89
-0.71
-0.50
-0.29
-0.10
0.05
0.14
0.16
0.10
0.01
-0.07
-0.07
0.01
0.13
0.19
0.14
-0.05
-0.29
-0.48
-0.52
-0.38
-0.12
0.18
0.43
0.63
0.76
0.87
0.95
0.98
0.95
0.91
0.89
0.98
1.17
1.41
1.57
1.55
1.32
0.94
0.54
0.24
0.08
0.02
-0.05
-0.18
-0.37
-0.58
-0.74
-0.86
-0.96
-1.09
-1.24
-1.34
-1.29
-1.04
-0.62
-0.14
0.28
0.51
0.56
0.45
0.28
0.10
-0.06
-0.18
-0.24
-0.22
-0.10
0.09
0.27
0.35
0.30
0.16
0.05
0.11
0.42
0.94
1.52
1.98
2.15
1.98
1.55
1.01
0.52
0.22
0.14
0.25
0.47
0.69
0.82
0.83
0.71
0.51
0.27
0.05
-0.09
-0.12
-0.05
0.09
0.21
0.22
0.05
-0.30
-0.77
-1.24
-1.58
-1.70
-1.61
-1.38
-1.12
-0.89
-0.69
-0.46
-0.14
0.27
0.70
1.05
1.23
1.23
1.10
0.94
0.87
0.92
1.09
1.30
1.47
1.54
1.49
1.34
1.11
0.87
0.65
0.46
0.29
0.10
-0.11
-0.32
-0.42
-0.35
-0.05
0.40
0.84
1.11
1.06
0.71
0.19
-0.32
-0.67
-0.81
-0.81
-0.79
-0.82
-0.91
-0.98
-0.98
-0.87
-0.72
-0.62
-0.65
-0.81
-1.00
-1.12
-1.08
-0.89
-0.64
-0.46
-0.40
-0.44
-0.47
-0.40
-0.18
0.15
0.51
0.83
1.08
1.28
1.45
1.57
1.64
1.63
1.56
1.46
1.41
1.41
1.46
1.50
1.45
1.26
0.91
0.49
0.09
-0.19
-0.31
-0.29
-0.24
-0.26
-0.43
-0.71
-1.02
-1.23
-1.27
-1.20
-1.10
-1.08
-1.19
-1.39
-1.55
-1.57
-1.40
-1.08
-0.73
-0.46
-0.35
-0.40
-0.54
-0.66
-0.68
-0.57
-0.36
-0.13
0.06
0.21
0.33
0.45
0.55
0.61
0.56
0.40
0.18
0.02
0.04
0.28
0.66
1.06
1.33
1.43
1.42
1.39
1.39
1.40
1.36
1.22
1.03
0.88
0.87
1.01
1.19
1.28
1.16
0.82
0.37
-0.03
-0.25
-0.27
-0.16
-0.05
-0.02
-0.13
-0.34
-0.57
-0.74
-0.81
-0.76
-0.61
-0.43
-0.28
-0.20
-0.21
-0.31
-0.46
-0.62
-0.77
-0.87
-0.89
-0.81
-0.62
-0.35
-0.08
0.08
0.03
-0.25
-0.67
-1.06
-1.23
-1.09
-0.67
-0.11
0.40
0.72
0.78
0.63
0.33
-0.05
-0.42
-0.72
-0.84
-0.71
-0.28
0.43
1.27
2.02
2.48
2.55
2.27
1.81
1.38
1.11
1.02
0.97
0.86
0.60
0.24
-0.11
-0.37
-0.49
-0.51
-0.49
-0.49
-0.49
-0.46
-0.40
-0.30
-0.19
-0.11
-0.07
-0.09
-0.19
-0.39
-0.68
-0.99
-1.19
-1.15
-0.82
-0.29
0.27
0.65
0.74
0.56
0.27
0.04
-0.00
0.17
0.50
0.86
1.15
1.32
1.35
1.26
1.07
0.85
0.64
0.47
0.33
0.20
0.03
-0.15
-0.30
-0.36
-0.31
-0.20
-0.10
-0.05
-0.04
-0.04
0.04
0.20
0.41
0.58
0.62
0.50
0.27
0.04
-0.10
-0.09
0.09
0.34
0.61
0.81
0.92
0.96
1.01
1.14
1.41
1.79
2.18
2.45
2.47
2.17
1.58
0.76
-0.17
-1.12
-2.02
-2.80
-3.38
-3.69
-3.66
-3.31
-2.76
-2.17
-1.67
-1.34
-1.12
-0.93
-0.69
-0.39
-0.10
0.11
0.20
0.17
0.07
-0.03
-0.09
-0.10
-0.06
0.02
0.12
0.20
0.24
0.25
0.26
0.36
0.58
0.88
1.19
1.41
1.49
1.42
1.29
1.15
1.04
0.90
0.67
0.30
-0.20
-0.77
-1.31
-1.74
-2.04
-2.21
-2.29
-2.32
-2.29
-2.20
-2.02
-1.75
-1.40
-1.00
-0.61
-0.27
-0.01
0.16
0.28
0.39
0.54
0.76
1.04
1.36
1.66
1.87
1.96
1.93
1.80
1.61
1.43
1.29
1.23
1.24
1.31
1.40
1.49
1.57
1.66
1.80
2.01
2.29
2.58
2.81
2.81
2.48
1.74
0.63
-0.65
-1.87
-2.78
-3.22
-3.22
-2.89
-2.38
-1.80
-1.20
-0.62
-0.13
0.13
0.03
-0.50
-1.36
-2.30
-3.04
-3.35
-3.19
-2.68
-2.05
-1.46
-1.01
-0.66
-0.33
0.00
0.33
0.57
0.62
0.47
0.18
-0.14
-0.35
-0.39
-0.25
-0.02
0.20
0.33
0.32
0.23
0.13
0.07
0.11
0.25
0.44
0.66
0.86
1.02
1.12
1.13
1.02
0.79
0.47
0.15
-0.10
-0.25
-0.31
-0.35
-0.44
-0.57
-0.72
-0.79
-0.75
-0.57
-0.25
0.17
0.66
1.13
1.51
1.71
1.68
1.40
0.90
0.27
-0.39
-0.98
-1.40
-1.64
-1.73
-1.76
-1.83
-2.00
-2.28
-2.62
-2.93
-3.17
-3.37
-3.61
-3.95
-4.40
-4.90
-5.38
-5.80
-6.20
-6.68
-7.31
-8.12
-9.06
-10.03
-10.93
-11.73
-12.51
-13.36
-14.41
-15.75
-17.42
-19.34
-21.41
-23.44
-25.25
-26.68
-27.64
-28.14
-28.24
-28.10
-27.91
-27.87
-28.16
-28.90
-30.19
-32.08
-34.69
-38.22
-42.74
-48.01
-53.25
-57.20
-58.44
-55.97
-49.80
-41.14
-32.06
-24.77
-20.79
-20.37
-22.51
-25.48
-27.74
-28.71
-29.00
-30.19
-34.09
-41.93
-53.67
-67.78
-81.16
-89.66
-88.92
-75.72
-49.47
-12.93
28.07
66.33
95.71
113.08
119.00
116.79
110.52
103.25
96.17
89.10
81.48
73.31
65.22
58.12
52.86
50.10
50.44
54.47
62.56
74.31
88.32
102.50
114.59
122.94
126.92
126.74
122.99
116.14
106.29
93.45
77.94
60.74
43.47
27.94
15.58
6.85
1.06
-3.40
-8.38
-15.12
-23.73
-33.09
-41.41
-47.09
-49.53
-49.31
-47.76
-46.19
-45.23
-44.65
-43.74
-41.90
-39.16
-36.15
-33.74
-32.39
-31.83
-31.16
-29.34
-25.81
-20.81
-15.30
-10.42
-7.01
-5.19
-4.46
-4.00
-3.14
-1.59
0.48
2.61
4.32
5.27
5.39
4.82
3.92
3.09
2.72
3.04
4.08
5.67
7.57
9.63
11.88
14.53
17.77
21.61
25.91
30.40
34.90
39.40
43.95
48.45
52.52
55.59
57.26
57.67
57.70
58.69
61.83
67.54
75.10
83.00
89.58
93.85
95.90
96.73
97.72
100.04
104.42
111.15
120.33
131.66
144.08
155.45
162.65
162.30
151.97
130.95
100.31
62.16
18.72
-28.04
-76.03
-122.28
-162.67
-192.72
-209.09
-211.16
-201.46
-184.74
-166.07
-149.07
-135.13
-123.86
-114.17
-105.35
-97.38
-90.61
-85.13
-80.45
-75.67
-69.94
-62.98
-55.21
-47.64
-41.32
-36.86
-34.19
-32.68
-31.45
-29.77
-27.33
-24.29
-21.11
-18.25
-16.02
-14.41
-13.19
-12.00
-10.53
-8.61
-6.33
-3.95
-1.82
-0.28
0.49
0.56
0.18
-0.28
-0.51
-0.38
-0.00
0.40
0.61
0.53
0.26
0.01
0.01
0.34
0.95
1.69
2.40
3.00
3.48
3.88
4.19
4.35
4.29
3.95
3.32
2.47
1.46
0.38
-0.67
-1.57
-2.17
-2.35
-2.06
-1.42
-0.59
0.23
0.91
1.45
1.99
2.65
3.51
4.45
5.20
5.41
4.78
3.18
0.79
-2.00
-4.69
-6.81
-8.11
-8.56
-8.34
-7.69
-6.85
-5.97
-5.13
-4.40
-3.81
-3.42
-3.24
-3.26
-3.33
-3.28
-2.97
-2.39
-1.68
-1.11
-0.92
-1.20
-1.82
-2.46
-2.84
-2.78
-2.34
-1.71
-1.09
-0.63
-0.37
-0.29
-0.35
-0.51
-0.76
-1.03
-1.24
-1.31
-1.17
-0.86
-0.45
-0.00
0.44
0.83
1.15
1.34
1.32
1.07
0.60
0.03
-0.47
-0.75
-0.79
-0.63
-0.41
-0.27
-0.26
-0.33
-0.38
-0.35
-0.21
-0.02
0.13
0.16
0.06
-0.13
-0.31
-0.42
-0.44
-0.37
-0.26
-0.17
-0.11
-0.07
-0.01
0.09
0.21
0.32
0.34
0.26
0.12
0.01
0.04
0.24
0.55
0.81
0.87
0.66
0.25
-0.21
-0.53
-0.63
-0.52
-0.32
-0.14
-0.04
0.02
0.09
0.20
0.29
0.28
0.10
-0.25
-0.66
-0.97
-1.04
-0.83
-0.44
-0.04
0.20
0.21
0.02
-0.24
-0.45
-0.54
-0.55
-0.56
-0.63
-0.74
-0.81
-0.75
-0.53
-0.19
0.18
0.48
0.67
0.78
0.85
0.92
0.97
0.99
0.89
0.64
0.27
-0.16
-0.53
-0.74
-0.75
-0.60
-0.38
-0.21
-0.17
-0.25
-0.38
-0.48
-0.51
-0.47
-0.34
-0.16
0.07
0.31
0.50
0.56
0.47
0.23
-0.09
-0.41
-0.62
-0.70
-0.64
-0.49
-0.31
-0.17
-0.11
-0.16
-0.30
-0.47
-0.60
-0.60
-0.43
-0.11
0.31
0.76
1.17
1.50
1.70
1.75
1.62
1.33
0.91
0.44
-0.01
-0.38
-0.64
-0.79
-0.85
-0.83
-0.76
-0.66
-0.56
-0.48
-0.40
-0.31
-0.18
-0.02
0.13
0.24
0.25
0.17
0.01
-0.18
-0.37
-0.55
-0.71
-0.82
-0.86
-0.81
-0.69
-0.55
-0.44
-0.39
-0.36
-0.30
-0.15
0.09
0.36
0.59
0.70
0.70
0.67
0.68
0.76
0.89
1.00
0.99
0.84
0.59
0.32
0.10
-0.03
-0.09
-0.12
-0.18
-0.25
-0.31
-0.29
-0.17
0.05
0.30
0.52
0.69
0.79
0.81
0.76
0.62
0.38
0.04
-0.37
-0.73
-0.96
-0.95
-0.73
-0.38
-0.04
0.14
0.11
-0.07
-0.30
-0.44
-0.42
-0.25
-0.02
0.17
0.24
0.17
0.02
-0.15
-0.25
-0.23
-0.09
0.15
0.42
0.67
0.88
1.06
1.23
1.38
1.48
1.45
1.27
0.94
0.53
0.13
-0.20
-0.45
-0.61
-0.70
-0.68
-0.59
-0.42
-0.25
-0.14
-0.13
-0.19
-0.26
-0.28
-0.24
-0.21
-0.21
-0.28
-0.39
-0.46
-0.40
-0.21
0.07
0.36
0.54
0.55
0.38
0.08
-0.27
-0.58
-0.77
-0.78
-0.59
-0.22
0.26
0.75
1.12
1.27
1.19
0.92
0.57
0.28
0.13
0.14
0.26
0.42
0.55
0.61
0.62
0.58
0.53
0.45
0.37
0.30
0.25
0.21
0.15
0.02
-0.21
-0.52
-0.81
-1.01
-1.05
-0.94
-0.74
-0.54
-0.40
-0.33
-0.35
-0.44
-0.59
-0.77
-0.91
-0.95
-0.87
-0.69
-0.46
-0.23
0.02
0.32
0.68
1.06
1.34
1.40
1.18
0.77
0.30
-0.08
-0.29
-0.37
-0.40
-0.44
-0.53
-0.63
-0.69
-0.66
-0.52
-0.29
-0.05
0.10
0.11
-0.04
-0.29
-0.49
-0.49
-0.23
0.24
0.74
1.08
1.11
0.84
0.40
-0.00
-0.24
-0.27
-0.17
-0.03
0.05
0.06
0.04
0.02
0.01
-0.04
-0.19
-0.44
-0.74
-0.99
-1.11
-1.05
-0.85
-0.62
-0.49
-0.55
-0.83
-1.25
-1.62
-1.76
-1.56
-1.01
-0.28
0.42
0.89
1.07
1.01
0.86
0.78
0.86
1.11
1.47
1.89
2.33
2.75
3.11
3.36
3.44
3.31
2.98
2.49
1.90
1.29
0.69
0.11
-0.40
-0.85
-1.20
-1.39
-1.38
-1.17
-0.80
-0.39
-0.08
0.03
-0.08
-0.34
-0.62
-0.78
-0.78
-0.68
-0.59
-0.64
-0.83
-1.11
-1.33
-1.34
-1.12
-0.76
-0.40
-0.21
-0.26
-0.52
-0.86
-1.11
-1.18
-1.06
-0.81
-0.52
-0.27
-0.09
0.02
0.07
0.06
-0.02
-0.13
-0.24
-0.26
-0.14
0.13
0.50
0.85
1.04
0.99
0.68
0.24
-0.15
-0.31
-0.16
0.24
0.73
1.07
1.10
0.81
0.32
-0.16
-0.48
-0.59
-0.51
-0.36
-0.17
0.03
0.23
0.38
0.41
0.25
-0.07
-0.44
-0.68
-0.62
-0.26
0.29
0.84
1.20
1.30
1.18
0.93
0.62
0.30
-0.05
-0.41
-0.72
-0.88
-0.81
-0.52
-0.11
0.26
0.48
0.49
0.40
0.36
0.47
0.75
1.12
1.41
1.49
1.33
0.99
0.62
0.33
0.22
0.32
0.54
0.76
0.82
0.63
0.17
-0.48
-1.17
-1.76
-2.15
-2.33
-2.35
-2.25
-2.09
-1.86
-1.57
-1.25
-0.93
-0.67
-0.50
-0.41
-0.36
-0.26
-0.06
0.29
0.72
1.12
1.36
1.36
1.09
0.66
0.19
-0.16
-0.31
-0.23
-0.02
0.22
0.39
0.45
0.41
0.34
0.26
0.20
0.14
0.07
-0.01
-0.09
-0.13
-0.15
-0.16
-0.19
-0.23
-0.23
-0.13
0.07
0.34
0.57
0.67
0.59
0.36
0.08
-0.12
-0.19
-0.12
0.04
0.20
0.30
0.30
0.25
0.21
0.25
0.37
0.54
0.70
0.77
0.75
0.64
0.49
0.33
0.19
0.06
-0.07
-0.19
-0.28
-0.28
-0.16
0.07
0.36
0.61
0.74
0.73
0.65
0.61
0.67
0.84
1.01
1.03
0.83
0.44
0.00
-0.32
-0.42
-0.32
-0.13
-0.01
-0.01
-0.14
-0.31
-0.45
-0.52
-0.58
-0.67
-0.77
-0.86
-0.83
-0.64
-0.36
-0.11
-0.02
-0.20
-0.61
-1.10
-1.54
-1.80
-1.84
-1.67
-1.34
-0.88
-0.31
0.29
0.82
1.16
1.18
0.88
0.32
-0.29
-0.76
-0.94
-0.77
-0.35
0.18
0.66
0.97
1.06
0.97
0.76
0.51
0.29
0.17
0.17
0.29
0.47
0.63
0.67
0.55
0.34
0.13
0.03
0.06
0.19
0.31
0.30
0.14
-0.14
-0.42
-0.61
-0.66
-0.61
-0.52
-0.45
-0.45
-0.50
-0.55
-0.56
-0.50
-0.36
-0.14
0.12
0.39
0.61
0.72
0.68
0.52
0.29
0.08
-0.05
-0.09
-0.07
-0.03
-0.03
-0.08
-0.15
-0.18
-0.13
0.03
0.26
0.51
0.71
0.78
0.68
0.40
0.01
-0.38
-0.63
-0.63
-0.38
0.02
0.39
0.56
0.46
0.14
-0.22
-0.45
-0.49
-0.36
-0.21
-0.16
-0.24
-0.43
-0.63
-0.80
-0.89
-0.90
-0.84
-0.72
-0.55
-0.32
-0.07
0.19
0.41
0.58
0.68
0.72
0.71
0.68
0.64
0.62
0.62
0.65
0.72
0.85
1.04
1.22
1.34
1.34
1.20
0.99
0.81
0.75
0.81
0.91
0.93
0.81
0.52
0.14
-0.22
-0.48
-0.62
-0.66
-0.68
-0.74
-0.87
-1.04
-1.15
-1.15
-1.02
-0.81
-0.64
-0.61
-0.74
-0.94
-1.05
-0.99
-0.75
-0.43
-0.16
0.01
0.11
0.20
0.31
0.41
0.42
0.27
0.04
-0.17
-0.21
-0.05
0.24
0.54
0.72
0.74
0.63
0.44
0.24
0.06
-0.07
-0.11
-0.08
-0.01
0.06
0.07
0.00
-0.11
-0.20
-0.23
-0.21
-0.16
-0.10
0.00
0.20
0.52
0.94
1.35
1.63
1.67
1.47
1.10
0.65
0.23
-0.10
-0.34
-0.49
-0.57
-0.57
-0.51
-0.38
-0.21
-0.03
0.10
0.14
0.05
-0.16
-0.41
-0.58
-0.59
-0.40
-0.08
0.23
0.40
0.35
0.15
-0.07
-0.19
-0.15
-0.02
0.09
0.08
-0.08
-0.31
-0.52
-0.66
-0.74
-0.80
-0.84
-0.85
-0.74
-0.48
-0.09
0.34
0.70
0.93
1.00
0.92
0.72
0.40
-0.02
-0.49
-0.89
-1.11
-1.08
-0.82
-0.44
-0.09
0.11
0.12
-0.01
-0.17
-0.26
-0.22
-0.06
0.14
0.33
0.45
0.50
0.51
0.52
0.59
0.72
0.87
0.97
0.96
0.84
0.63
0.44
0.35
0.41
0.57
0.75
0.84
0.81
0.66
0.45
0.23
0.04
-0.13
-0.29
-0.40
-0.45
-0.41
-0.29
-0.16
-0.06
-0.02
-0.04
-0.10
-0.16
-0.16
-0.09
0.04
0.20
0.35
0.43
0.41
0.31
0.18
0.09
0.10
0.19
0.32
0.41
0.39
0.22
-0.09
-0.47
-0.83
-1.11
-1.27
-1.33
-1.35
-1.38
-1.44
-1.50
-1.51
-1.41
-1.18
-0.83
-0.40
0.03
0.43
0.77
1.04
1.24
1.38
1.46
1.47
1.39
1.22
1.01
0.79
0.63
0.51
0.44
0.36
0.27
0.16
0.07
0.04
0.08
0.17
0.23
0.19
-0.00
-0.31
-0.64
-0.87
-0.89
-0.68
-0.33
0.02
0.23
0.21
-0.04
-0.42
-0.84
-1.18
-1.39
-1.41
-1.27
-0.98
-0.60
-0.19
0.19
0.48
0.66
0.71
0.61
0.37
0.05
-0.28
-0.48
-0.42
-0.06
0.53
1.16
1.63
1.83
1.77
1.56
1.32
1.12
0.92
0.65
0.26
-0.19
-0.60
-0.83
-0.87
-0.75
-0.60
-0.56
-0.69
-0.96
-1.28
-1.51
-1.57
-1.42
-1.09
-0.68
-0.30
-0.05
-0.00
-0.15
-0.42
-0.69
-0.79
-0.66
-0.27
0.23
0.70
0.96
0.96
0.77
0.50
0.28
0.16
0.12
0.09
0.05
-0.02
-0.05
-0.02
0.08
0.20
0.27
0.23
0.07
-0.12
-0.24
-0.23
-0.08
0.12
0.30
0.40
0.47
0.57
0.81
1.18
1.60
1.90
1.95
1.70
1.23
0.68
0.21
-0.10
-0.26
-0.29
-0.27
-0.24
-0.22
-0.23
-0.27
-0.32
-0.40
-0.47
-0.51
-0.51
-0.46
-0.41
-0.40
-0.43
-0.49
-0.51
-0.45
-0.34
-0.20
-0.12
-0.10
-0.12
-0.13
-0.08
0.05
0.21
0.30
0.25
0.07
-0.19
-0.41
-0.50
-0.43
-0.24
-0.03
0.12
0.20
0.21
0.22
0.28
0.38
0.50
0.62
0.69
0.71
0.68
0.61
0.50
0.36
0.22
0.12
0.06
0.05
0.06
0.06
0.05
0.02
-0.02
-0.10
-0.25
-0.48
-0.76
-0.99
-1.11
-1.08
-0.95
-0.80
-0.72
-0.70
-0.68
-0.54
-0.26
0.12
0.47
0.67
0.66
0.50
0.34
0.31
0.48
0.79
1.08
1.22
1.18
1.00
0.82
0.77
0.88
1.10
1.34
1.49
1.47
1.28
0.93
0.45
-0.08
-0.59
-0.97
-1.15
-1.15
-1.02
-0.90
-0.87
-0.96
-1.15
-1.36
-1.57
-1.75
-1.91
-2.03
-2.05
-1.95
-1.75
-1.54
-1.41
-1.43
-1.57
-1.70
-1.66
-1.38
-0.94
-0.52
-0.33
-0.47
-0.88
-1.38
-1.77
-1.96
-1.99
-1.98
-2.05
-2.27
-2.65
-3.14
-3.74
-4.42
-5.11
-5.66
-5.86
-5.50
-4.47
-2.79
-0.65
1.69
3.89
5.63
6.67
6.89
6.34
5.22
3.82
2.39
1.03
-0.28
-1.68
-3.18
-4.68
-5.92
-6.62
-6.60
-5.93
-4.86
-3.76
-2.96
-2.72
-3.13
-4.24
-6.03
-8.42
-11.15
-13.72
-15.44
-15.62
-13.92
-10.56
-6.31
-2.15
1.24
3.82
6.16
9.02
12.81
17.21
21.26
23.79
24.00
21.74
17.57
12.43
7.30
3.01
0.14
-0.97
-0.25
2.03
5.27
8.71
11.61
13.46
14.07
13.55
12.16
10.24
8.09
6.00
4.14
2.63
1.48
0.63
-0.03
-0.56
-1.02
-1.40
-1.68
-1.82
-1.76
-1.51
-1.11
-0.69
-0.42
-0.36
-0.45
-0.45
-0.09
0.87
2.44
4.41
6.46
8.24
9.51
10.17
10.19
9.57
8.34
6.57
4.47
2.33
0.49
-0.80
-1.50
-1.75
-1.82
-1.96
-2.33
-2.90
-3.58
-4.22
-4.71
-5.02
-5.17
-5.19
-5.12
-4.99
-4.82
-4.66
-4.57
-4.63
-4.85
-5.23
-5.66
-6.01
-6.16
-6.00
-5.54
-4.82
-3.98
-3.19
-2.56
-2.19
-2.05
-2.07
-2.12
-2.09
-1.94
-1.71
-1.47
-1.34
-1.35
-1.48
-1.59
-1.58
-1.35
-0.93
-0.42
0.03
0.26
0.22
-0.10
-0.59
-1.09
-1.46
-1.56
-1.39
-1.02
-0.63
-0.41
-0.48
-0.81
-1.26
-1.63
-1.77
-1.67
-1.40
-1.10
-0.84
-0.60
-0.31
0.10
0.65
1.24
1.75
2.04
2.04
1.79
1.40
1.00
0.71
0.54
0.46
0.40
0.30
0.17
0.01
-0.15
-0.30
-0.46
-0.63
-0.77
-0.88
-0.95
-1.02
-1.13
-1.30
-1.48
-1.59
-1.54
-1.32
-0.95
-0.55
-0.18
0.14
0.42
0.70
0.96
1.17
1.28
1.29
1.24
1.20
1.19
1.21
1.19
1.06
0.82
0.51
0.22
0.05
0.01
0.08
0.16
0.18
0.11
0.00
-0.09
-0.11
-0.03
0.11
0.24
0.30
0.27
0.18
0.06
-0.02
-0.02
0.05
0.18
0.32
0.39
0.30
-0.00
-0.50
-1.08
-1.56
-1.78
-1.69
-1.34
-0.88
-0.47
-0.20
-0.09
-0.09
-0.14
-0.17
-0.15
-0.04
0.16
0.46
0.81
1.14
1.38
1.48
1.42
1.19
0.82
0.36
-0.10
-0.45
-0.59
-0.50
-0.22
0.13
0.46
0.68
0.76
0.71
0.53
0.27
-0.05
-0.36
-0.58
-0.65
-0.54
-0.31
-0.03
0.21
0.37
0.44
0.44
0.40
0.31
0.15
-0.04
-0.25
-0.40
-0.47
-0.43
-0.31
-0.15
0.01
0.16
0.28
0.36
0.39
0.37
0.27
0.10
-0.15
-0.44
-0.73
-0.98
-1.14
-1.22
-1.24
-1.24
-1.27
-1.32
-1.35
-1.28
-1.08
-0.79
-0.45
-0.14
0.12
0.36
0.62
0.92
1.23
1.45
1.54
1.50
1.39
1.30
1.30
1.37
1.43
1.40
1.26
1.05
0.83
0.65
0.49
0.31
0.06
-0.24
-0.51
-0.68
-0.67
-0.49
-0.21
0.05
0.18
0.13
-0.07
-0.34
-0.57
-0.70
-0.72
-0.66
-0.58
-0.54
-0.52
-0.52
-0.48
-0.41
-0.34
-0.35
-0.49
-0.74
-1.06
-1.31
-1.39
-1.27
-0.97
-0.59
-0.25
-0.00
0.13
0.17
0.16
0.14
0.11
0.06
0.02
0.03
0.14
0.36
0.65
0.91
1.02
0.88
0.49
-0.05
-0.58
-0.91
-0.93
-0.60
-0.03
0.62
1.18
1.55
1.67
1.59
1.36
1.07
0.76
0.45
0.17
-0.08
-0.23
-0.23
-0.05
0.26
0.57
0.78
0.79
0.62
0.36
0.13
0.01
-0.00
0.00
-0.09
-0.36
-0.77
-1.19
-1.46
-1.44
-1.14
-0.64
-0.12
0.29
0.51
0.57
0.52
0.39
0.15
-0.22
-0.72
-1.21
-1.49
-1.41
-0.96
-0.29
0.34
0.72
0.80
0.64
0.37
0.11
-0.09
-0.24
-0.31
-0.28
-0.11
0.17
0.51
0.76
0.83
0.70
0.44
0.15
-0.08
-0.19
-0.19
-0.10
0.03
0.16
0.24
0.24
0.13
-0.05
-0.26
-0.44
-0.55
-0.56
-0.43
-0.16
0.25
0.73
1.16
1.43
1.45
1.22
0.84
0.43
0.12
-0.03
-0.02
0.10
0.28
0.50
0.70
0.84
0.85
0.73
0.49
0.22
0.01
-0.07
-0.01
0.17
0.38
0.52
0.54
0.43
0.25
0.09
0.01
0.03
0.09
0.11
0.03
-0.14
-0.30
-0.37
-0.30
-0.16
-0.06
-0.10
-0.26
-0.47
-0.57
-0.52
-0.32
-0.10
0.06
0.11
0.08
0.03
-0.03
-0.12
-0.29
-0.57
-0.91
-1.17
-1.25
-1.10
-0.76
-0.35
-0.01
0.17
0.17
0.10
0.05
0.11
0.27
0.45
0.51
0.41
0.16
-0.16
-0.44
-0.62
-0.70
-0.70
-0.62
-0.47
-0.24
0.04
0.32
0.54
0.66
0.65
0.55
0.39
0.20
-0.01
-0.22
-0.38
-0.43
-0.29
0.01
0.39
0.70
0.82
0.68
0.33
-0.11
-0.46
-0.63
-0.59
-0.39
-0.15
0.08
0.29
0.47
0.63
0.71
0.64
0.36
-0.12
-0.69
-1.17
-1.40
-1.34
-1.01
-0.55
-0.10
0.23
0.43
0.53
0.57
0.59
0.60
0.58
0.54
0.49
0.43
0.37
0.33
0.31
0.35
0.45
0.64
0.87
1.08
1.18
1.13
0.94
0.69
0.45
0.29
0.20
0.15
0.08
-0.04
-0.21
-0.42
-0.61
-0.75
-0.83
-0.87
-0.90
-0.95
-1.06
-1.20
-1.33
-1.40
-1.37
-1.21
-0.91
-0.49
0.01
0.55
1.05
1.44
1.66
1.66
1.47
1.11
0.67
0.23
-0.14
-0.41
-0.56
-0.61
-0.59
-0.51
-0.41
-0.29
-0.18
-0.07
0.02
0.09
0.15
0.19
0.23
0.26
0.28
0.27
0.20
0.07
-0.11
-0.28
-0.39
-0.38
-0.24
-0.02
0.19
0.33
0.34
0.28
0.20
0.18
0.25
0.41
0.61
0.80
0.90
0.85
0.63
0.28
-0.08
-0.36
-0.48
-0.43
-0.30
-0.18
-0.15
-0.18
-0.22
-0.17
0.01
0.24
0.47
0.59
0.59
0.49
0.37
0.28
0.23
0.18
0.07
-0.11
-0.33
-0.52
-0.57
-0.45
-0.20
0.08
0.26
0.31
0.24
0.14
0.09
0.13
0.24
0.34
0.37
0.28
0.13
-0.02
-0.06
0.04
0.23
0.43
0.54
0.49
0.29
-0.01
-0.34
-0.66
-0.93
-1.14
-1.29
-1.33
-1.24
-1.04
-0.79
-0.57
-0.43
-0.39
-0.43
-0.50
-0.52
-0.45
-0.29
-0.07
0.17
0.35
0.41
0.33
0.14
-0.09
-0.30
-0.42
-0.46
-0.43
-0.37
-0.30
-0.20
-0.05
0.18
0.48
0.81
1.10
1.26
1.25
1.07
0.78
0.50
0.33
0.32
0.44
0.58
0.66
0.61
0.46
0.31
0.25
0.33
0.52
0.71
0.79
0.68
0.42
0.08
-0.22
-0.39
-0.46
-0.48
-0.51
-0.58
-0.63
-0.62
-0.52
-0.38
-0.24
-0.17
-0.17
-0.19
-0.18
-0.08
0.11
0.35
0.55
0.63
0.57
0.37
0.12
-0.09
-0.21
-0.20
-0.11
0.03
0.19
0.36
0.55
0.73
0.82
0.78
0.58
0.28
-0.05
-0.32
-0.51
-0.65
-0.78
-0.89
-0.97
-0.97
-0.86
-0.70
-0.54
-0.44
-0.44
-0.51
-0.59
-0.62
-0.52
-0.31
-0.01
0.30
0.53
0.61
0.53
0.33
0.10
-0.09
-0.19
-0.22
-0.18
-0.12
-0.05
0.02
0.07
0.09
0.05
-0.08
-0.31
-0.59
-0.88
-1.10
-1.18
-1.09
-0.87
-0.54
-0.18
0.15
0.42
0.59
0.69
0.72
0.67
0.52
0.28
0.02
-0.15
-0.15
0.04
0.34
0.61
0.74
0.68
0.53
0.41
0.45
0.66
0.94
1.13
1.12
0.86
0.47
0.12
-0.06
0.02
0.30
0.66
0.94
1.01
0.86
0.53
0.10
-0.32
-0.67
-0.92
-1.06
-1.05
-0.85
-0.48
-0.00
0.46
0.79
0.91
0.83
0.62
0.38
0.15
-0.05
-0.23
-0.38
-0.47
-0.46
-0.32
-0.10
0.12
0.25
0.25
0.15
0.01
-0.08
-0.09
0.01
0.18
0.33
0.40
0.34
0.16
-0.10
-0.36
-0.57
-0.71
-0.76
-0.74
-0.67
-0.58
-0.50
-0.46
-0.51
-0.61
-0.71
-0.71
-0.55
-0.23
0.15
0.44
0.54
0.44
0.25
0.10
0.06
0.13
0.21
0.20
0.08
-0.09
-0.19
-0.14
0.06
0.34
0.57
0.67
0.65
0.58
0.56
0.65
0.83
1.03
1.15
1.12
0.92
0.57
0.17
-0.21
-0.48
-0.60
-0.58
-0.46
-0.29
-0.13
-0.00
0.07
0.06
-0.03
-0.21
-0.44
-0.64
-0.76
-0.76
-0.63
-0.44
-0.25
-0.11
0.00
0.11
0.25
0.41
0.56
0.66
0.68
0.61
0.50
0.38
0.27
0.15
-0.01
-0.22
-0.47
-0.69
-0.79
-0.70
-0.42
-0.02
0.41
0.73
0.86
0.80
0.60
0.37
0.17
0.06
0.01
-0.03
-0.12
-0.27
-0.45
-0.60
-0.65
-0.56
-0.37
-0.13
0.09
0.22
0.24
0.18
0.10
0.08
0.14
0.25
0.34
0.34
0.22
0.01
-0.19
-0.29
-0.23
-0.05
0.16
0.28
0.24
0.08
-0.07
-0.09
0.10
0.44
0.82
1.06
1.06
0.80
0.40
0.01
-0.24
-0.28
-0.16
0.06
0.33
0.63
0.96
1.31
1.63
1.83
1.87
1.76
1.61
1.56
1.70
2.03
2.42
2.72
2.81
2.74
2.70
2.93
3.55
4.48
5.43
6.05
6.15
5.77
5.26
5.02
5.35
6.28
7.54
8.69
9.37
9.42
8.99
8.39
8.02
8.20
9.10
10.67
12.64
14.49
15.51
14.95
12.27
7.45
1.07
-5.81
-11.92
-16.29
-18.49
-18.72
-17.56
-15.70
-13.64
-11.62
-9.78
-8.21
-7.04
-6.38
-6.23
-6.44
-6.70
-6.71
-6.23
-5.26
-3.92
-2.50
-1.29
-0.50
-0.20
-0.32
-0.68
-1.07
-1.31
-1.29
-0.99
-0.44
0.28
1.16
2.23
3.59
5.37
7.60
10.17
12.77
14.99
16.49
17.14
17.14
17.00
17.30
18.45
20.54
23.25
26.03
28.35
29.91
30.79
31.41
32.32
34.04
36.90
41.00
46.20
51.95
57.22
60.50
60.09
54.75
44.25
29.74
13.56
-1.61
-13.70
-21.99
-27.13
-30.56
-33.59
-36.74
-39.69
-41.73
-42.38
-41.80
-40.62
-39.53
-38.82
-38.21
-37.14
-35.19
-32.47
-29.62
-27.45
-26.57
-26.97
-28.08
-29.06
-29.13
-27.90
-25.48
-22.31
-18.99
-16.02
-13.65
-11.89
-10.51
-9.29
-8.05
-6.80
-5.60
-4.49
-3.48
-2.47
-1.33
-0.00
1.48
2.98
4.34
5.47
6.37
7.17
7.99
8.87
9.64
9.93
9.36
7.68
5.04
1.99
-0.65
-2.12
-2.00
-0.39
2.18
4.95
7.27
8.79
9.47
9.50
9.12
8.53
7.84
7.20
6.75
6.50
6.22
5.33
3.10
-1.00
-6.85
-13.52
-19.48
-23.20
-23.76
-21.28
-16.78
-11.71
-7.28
-4.12
-2.26
-1.41
-1.27
-1.72
-2.69
-4.07
-5.54
-6.67
-7.09
-6.63
-5.52
-4.18
-3.15
-2.77
-3.11
-3.95
-4.89
-5.52
-5.62
-5.16
-4.37
-3.54
-2.96
-2.76
-2.90
-3.18
-3.40
-3.35
-2.98
-2.33
-1.53
-0.74
-0.07
0.41
0.72
0.90
1.03
1.17
1.34
1.53
1.72
1.88
2.00
2.07
2.07
1.98
1.77
1.43
1.01
0.62
0.40
0.39
0.58
0.83
1.00
0.97
0.73
0.37
-0.00
-0.31
-0.52
-0.65
-0.68
-0.59
-0.34
0.05
0.49
0.88
1.09
1.10
0.99
0.90
0.94
1.14
1.40
1.60
1.59
1.34
0.91
0.43
0.03
-0.19
-0.19
-0.01
0.28
0.56
0.75
0.79
0.66
0.45
0.26
0.19
0.31
0.57
0.87
1.07
1.07
0.86
0.49
0.08
-0.28
-0.56
-0.77
-0.94
-1.10
-1.24
-1.35
-1.44
-1.53
-1.64
-1.76
-1.86
-1.93
-1.94
-1.85
-1.69
-1.44
-1.09
-0.67
-0.22
0.19
0.49
0.65
0.70
0.69
0.67
0.66
0.66
0.64
0.60
0.53
0.42
0.26
0.06
-0.16
-0.35
-0.45
-0.46
-0.38
-0.26
-0.14
-0.05
0.02
0.09
0.16
0.21
0.18
0.04
-0.20
-0.51
-0.78
-0.93
-0.88
-0.64
-0.26
0.12
0.36
0.43
0.32
0.16
0.06
0.11
0.32
0.60
0.85
0.95
0.87
0.64
0.36
0.12
0.02
0.05
0.18
0.33
0.44
0.49
0.50
0.49
0.44
0.31
0.10
-0.19
-0.49
-0.70
-0.77
-0.71
-0.55
-0.36
-0.21
-0.12
-0.15
-0.28
-0.48
-0.68
-0.76
-0.65
-0.38
-0.07
0.15
0.20
0.10
0.02
0.10
0.39
0.77
1.06
1.07
0.78
0.36
0.01
-0.09
0.10
0.47
0.84
1.05
1.08
0.95
0.77
0.62
0.51
0.42
0.32
0.20
0.09
0.07
0.14
0.29
0.43
0.46
0.32
0.06
-0.21
-0.32
-0.18
0.20
0.67
1.05
1.16
0.95
0.48
-0.10
-0.61
-0.92
-1.00
-0.91
-0.74
-0.58
-0.48
-0.45
-0.46
-0.49
-0.55
-0.64
-0.76
-0.85
-0.88
-0.80
-0.65
-0.51
-0.48
-0.58
-0.73
-0.83
-0.77
-0.55
-0.24
0.02
0.13
0.05
-0.14
-0.34
-0.46
-0.47
-0.42
-0.39
-0.42
-0.50
-0.57
-0.56
-0.44
-0.23
0.02
0.26
0.42
0.48
0.43
0.29
0.09
-0.07
-0.13
-0.08
0.02
0.10
0.09
0.02
-0.00
0.12
0.43
0.84
1.21
1.42
1.43
1.29
1.10
0.91
0.73
0.52
0.27
0.02
-0.19
-0.31
-0.37
-0.41
-0.48
-0.58
-0.68
-0.72
-0.69
-0.61
-0.51
-0.40
-0.26
-0.06
0.20
0.49
0.72
0.80
0.71
0.45
0.12
-0.20
-0.43
-0.57
-0.66
-0.72
-0.78
-0.77
-0.62
-0.30
0.14
0.56
0.82
0.82
0.61
0.31
0.10
0.05
0.11
0.19
0.18
0.08
-0.03
-0.02
0.17
0.49
0.82
1.03
1.04
0.86
0.58
0.31
0.11
-0.00
-0.04
-0.03
-0.01
0.00
-0.01
-0.04
-0.09
-0.13
-0.14
-0.09
-0.01
0.07
0.10
0.02
-0.11
-0.21
-0.20
-0.01
0.31
0.64
0.85
0.89
0.79
0.70
0.71
0.86
1.05
1.11
0.94
0.51
-0.04
-0.59
-1.01
-1.27
-1.43
-1.53
-1.58
-1.55
-1.39
-1.10
-0.77
-0.47
-0.29
-0.25
-0.32
-0.44
-0.57
-0.70
-0.81
-0.88
-0.86
-0.70
-0.39
0.03
0.46
0.76
0.85
0.72
0.45
0.17
0.02
0.08
0.34
0.68
0.98
1.09
0.99
0.73
0.40
0.12
-0.07
-0.17
-0.23
-0.28
-0.33
-0.36
-0.37
-0.39
-0.44
-0.55
-0.66
-0.70
-0.59
-0.31
0.05
0.38
0.56
0.56
0.41
0.20
0.02
-0.05
0.02
0.22
0.53
0.90
1.25
1.50
1.53
1.30
0.85
0.28
-0.26
-0.64
-0.77
-0.63
-0.27
0.17
0.57
0.77
0.73
0.47
0.14
-0.10
-0.14
0.03
0.28
0.45
0.42
0.20
-0.15
-0.46
-0.63
-0.66
-0.63
-0.62
-0.69
-0.80
-0.88
-0.86
-0.74
-0.59
-0.49
-0.50
-0.61
-0.74
-0.81
-0.78
-0.66
-0.53
-0.44
-0.39
-0.38
-0.34
-0.26
-0.15
-0.05
0.02
0.05
0.08
0.14
0.27
0.43
0.59
0.69
0.72
0.71
0.69
0.71
0.78
0.87
0.90
0.83
0.61
0.27
-0.17
-0.65
-1.12
-1.51
-1.77
-1.90
-1.89
-1.76
-1.55
-1.31
-1.06
-0.80
-0.54
-0.28
-0.05
0.15
0.27
0.32
0.31
0.29
0.33
0.50
0.84
1.31
1.79
2.16
2.31
2.23
1.99
1.73
1.56
1.48
1.44
1.33
1.11
0.83
0.64
0.66
0.89
1.21
1.40
1.31
0.90
0.32
-0.26
-0.69
-0.93
-1.02
-1.04
-1.04
-0.97
-0.82
-0.58
-0.32
-0.10
0.03
0.04
-0.03
-0.14
-0.27
-0.39
-0.47
-0.46
-0.33
-0.09
0.17
0.37
0.44
0.36
0.15
-0.10
-0.31
-0.43
-0.40
-0.26
-0.07
0.06
0.02
-0.21
-0.55
-0.83
-0.89
-0.62
-0.11
0.45
0.86
1.00
0.88
0.61
0.30
0.06
-0.10
-0.15
-0.10
0.06
0.28
0.49
0.58
0.51
0.30
0.08
-0.03
0.01
0.14
0.26
0.29
0.24
0.21
0.28
0.45
0.67
0.81
0.81
0.68
0.53
0.44
0.46
0.55
0.62
0.59
0.41
0.15
-0.13
-0.36
-0.52
-0.65
-0.76
-0.86
-0.87
-0.73
-0.44
-0.07
0.22
0.30
0.08
-0.36
-0.86
-1.23
-1.33
-1.12
-0.71
-0.27
0.03
0.09
-0.11
-0.45
-0.77
-0.93
-0.84
-0.54
-0.13
0.26
0.53
0.64
0.62
0.55
0.48
0.47
0.49
0.52
0.50
0.41
0.26
0.12
0.03
0.02
0.06
0.10
0.07
-0.02
-0.16
-0.28
-0.39
-0.47
-0.55
-0.63
-0.73
-0.80
-0.81
-0.78
-0.69
-0.56
-0.41
-0.22
-0.00
0.23
0.44
0.57
0.61
0.54
0.37
0.12
-0.17
-0.43
-0.58
-0.56
-0.38
-0.09
0.21
0.45
0.60
0.68
0.73
0.80
0.87
0.88
0.78
0.55
0.25
-0.01
-0.11
0.02
0.34
0.76
1.08
1.17
1.00
0.64
0.25
-0.04
-0.18
-0.25
-0.32
-0.45
-0.57
-0.60
-0.51
-0.33
-0.20
-0.21
-0.42
-0.75
-1.07
-1.28
-1.34
-1.29
-1.19
-1.04
-0.83
-0.54
-0.17
0.20
0.50
0.67
0.73
0.75
0.80
0.93
1.09
1.24
1.29
1.23
1.06
0.84
0.63
0.46
0.36
0.33
0.32
0.29
0.19
-0.00
-0.29
-0.61
-0.91
-1.13
-1.22
-1.16
-0.96
-0.66
-0.32
-0.00
0.22
0.30
0.25
0.14
0.06
0.10
0.26
0.47
0.63
0.64
0.50
0.24
-0.02
-0.23
-0.34
-0.37
-0.34
-0.27
-0.17
-0.05
0.09
0.23
0.33
0.40
0.43
0.42
0.41
0.39
0.39
0.42
0.51
0.65
0.82
0.92
0.91
0.77
0.57
0.41
0.37
0.45
0.57
0.61
0.49
0.21
-0.14
-0.46
-0.66
-0.73
-0.71
-0.66
-0.64
-0.69
-0.82
-1.00
-1.20
-1.31
-1.28
-1.05
-0.65
-0.20
0.15
0.29
0.21
-0.01
-0.21
-0.27
-0.13
0.17
0.52
0.78
0.89
0.82
0.62
0.37
0.14
-0.03
-0.09
-0.06
0.06
0.21
0.38
0.56
0.75
0.97
1.20
1.37
1.40
1.24
0.96
0.64
0.42
0.36
0.41
0.41
0.21
-0.25
-0.88
-1.51
-1.94
-2.11
-2.07
-1.95
-1.87
-1.86
-1.86
-1.77
-1.52
-1.11
-0.63
-0.20
0.10
0.25
0.31
0.35
0.41
0.50
0.61
0.70
0.76
0.76
0.70
0.57
0.40
0.22
0.07
-0.02
-0.04
0.04
0.21
0.46
0.75
0.99
1.08
0.93
0.53
-0.04
-0.62
-1.07
-1.29
-1.28
-1.14
-0.97
-0.85
-0.80
-0.76
-0.65
-0.41
-0.04
0.38
0.71
0.85
0.76
0.50
0.19
-0.02
-0.05
0.08
0.29
0.48
0.59
0.64
0.72
0.89
1.20
1.57
1.87
1.97
1.77
1.31
0.70
0.11
-0.33
-0.55
-0.55
-0.38
-0.11
0.18
0.42
0.55
0.52
0.34
0.09
-0.14
-0.26
-0.27
-0.21
-0.16
-0.17
-0.21
-0.24
-0.24
-0.19
-0.18
-0.21
-0.30
-0.42
-0.52
-0.62
-0.71
-0.84
-0.97
-1.05
-1.06
-0.97
-0.86
-0.79
-0.80
-0.85
-0.81
-0.63
-0.28
0.11
0.41
0.50
0.40
0.23
0.13
0.17
0.30
0.37
0.28
0.01
-0.32
-0.56
-0.59
-0.43
-0.19
0.02
0.12
0.15
0.23
0.42
0.70
0.98
1.14
1.10
0.89
0.62
0.41
0.34
0.40
0.53
0.66
0.74
0.78
0.83
0.90
0.97
1.00
0.93
0.76
0.53
0.32
0.20
0.20
0.27
0.36
0.42
0.41
0.35
0.29
0.26
0.28
0.35
0.43
0.48
0.46
0.34
0.14
-0.11
-0.34
-0.49
-0.50
-0.37
-0.19
-0.07
-0.13
-0.43
-0.90
-1.42
-1.80
-1.91
-1.72
-1.30
-0.76
-0.25
0.16
0.40
0.43
0.27
-0.09
-0.58
-1.08
-1.45
-1.57
-1.40
-0.99
-0.49
-0.05
0.21
0.27
0.19
0.07
-0.00
-0.00
0.07
0.20
0.39
0.64
0.96
1.30
1.61
1.82
1.88
1.78
1.57
1.29
0.98
0.68
0.41
0.20
0.13
0.21
0.41
0.66
0.84
0.88
0.76
0.52
0.24
0.00
-0.18
-0.32
-0.46
-0.62
-0.78
-0.92
-1.03
-1.11
-1.19
-1.28
-1.40
-1.50
-1.57
-1.58
-1.50
-1.36
-1.18
-1.01
-0.88
-0.77
-0.66
-0.47
-0.17
0.25
0.75
1.25
1.69
2.00
2.20
2.26
2.22
2.06
1.78
1.39
0.91
0.40
-0.08
-0.43
-0.60
-0.60
-0.47
-0.34
-0.31
-0.43
-0.66
-0.90
-1.00
-0.89
-0.61
-0.28
-0.05
-0.03
-0.22
-0.52
-0.79
-0.89
-0.78
-0.47
-0.06
0.35
0.65
0.76
0.68
0.45
0.16
-0.08
-0.20
-0.21
-0.12
0.06
0.32
0.66
1.03
1.31
1.38
1.13
0.62
-0.01
-0.50
-0.70
-0.55
-0.16
0.30
0.66
0.81
0.74
0.47
0.07
-0.38
-0.77
-1.02
-1.06
-0.95
-0.76
-0.58
-0.46
-0.39
-0.30
-0.12
0.19
0.56
0.91
1.12
1.11
0.85
0.43
-0.04
-0.44
-0.68
-0.74
-0.65
-0.49
-0.32
-0.18
-0.07
-0.03
-0.06
-0.16
-0.27
-0.32
-0.24
-0.06
0.14
0.19
0.01
-0.36
-0.77
-1.04
-1.03
-0.78
-0.43
-0.15
-0.01
-0.01
-0.03
0.03
0.17
0.34
0.46
0.47
0.41
0.34
0.33
0.41
0.57
0.75
0.88
0.89
0.78
0.55
0.26
-0.01
-0.23
-0.35
-0.40
-0.42
-0.46
-0.54
-0.64
-0.69
-0.64
-0.42
-0.07
0.36
0.78
1.12
1.35
1.44
1.41
1.26
1.00
0.68
0.35
0.09
-0.03
-0.01
0.08
0.13
0.04
-0.19
-0.52
-0.81
-0.97
-0.94
-0.78
-0.56
-0.40
-0.34
-0.37
-0.41
-0.39
-0.27
-0.07
0.15
0.28
0.28
0.15
-0.06
-0.25
-0.33
-0.27
-0.08
0.17
0.39
0.51
0.50
0.41
0.30
0.24
0.26
0.34
0.41
0.38
0.22
-0.04
-0.35
-0.61
-0.75
-0.77
-0.70
-0.62
-0.57
-0.55
-0.55
-0.52
-0.45
-0.39
-0.37
-0.45
-0.59
-0.74
-0.78
-0.63
-0.27
0.25
0.83
1.36
1.73
1.93
1.95
1.85
1.73
1.62
1.59
1.62
1.66
1.68
1.57
1.32
0.92
0.44
-0.04
-0.44
-0.69
-0.77
-0.66
-0.39
-0.05
0.27
0.48
0.53
0.41
0.19
-0.05
-0.25
-0.37
-0.45
-0.51
-0.59
-0.65
-0.67
-0.62
-0.51
-0.39
-0.29
-0.26
-0.32
-0.43
-0.57
-0.67
-0.67
-0.54
-0.28
0.05
0.36
0.53
0.51
0.31
-0.01
-0.33
-0.58
-0.73
-0.83
-0.94
-1.09
-1.26
-1.39
-1.39
-1.25
-0.99
-0.67
-0.39
-0.17
-0.04
0.05
0.13
0.21
0.30
0.35
0.34
0.26
0.13
0.01
-0.04
0.01
0.14
0.31
0.46
0.56
0.63
0.73
0.86
1.01
1.12
1.16
1.12
1.05
1.00
0.97
0.94
0.83
0.60
0.28
-0.06
-0.30
-0.39
-0.30
-0.12
0.08
0.18
0.15
0.02
-0.13
-0.24
-0.27
-0.24
-0.22
-0.25
-0.33
-0.42
-0.49
-0.52
-0.55
-0.62
-0.77
-0.97
-1.12
-1.12
-0.89
-0.46
0.09
0.60
0.93
1.00
0.81
0.46
0.12
-0.11
-0.18
-0.16
-0.15
-0.25
-0.43
-0.61
-0.69
-0.64
-0.50
-0.40
-0.39
-0.47
-0.56
-0.59
-0.52
-0.39
-0.27
-0.19
-0.11
0.06
0.37
0.76
1.08
1.17
0.95
0.48
-0.07
-0.49
-0.67
-0.62
-0.44
-0.22
-0.03
0.17
0.41
0.70
0.95
1.06
0.97
0.69
0.35
0.07
-0.06
-0.03
0.10
0.28
0.43
0.53
0.56
0.51
0.41
0.27
0.17
0.17
0.27
0.47
0.70
0.93
1.14
1.33
1.50
1.62
1.63
1.51
1.26
0.95
0.68
0.50
0.39
0.31
0.19
0.02
-0.16
-0.28
-0.30
-0.20
-0.06
0.08
0.17
0.22
0.23
0.20
0.12
-0.06
-0.33
-0.67
-1.01
-1.26
-1.37
-1.34
-1.22
-1.11
-1.11
-1.22
-1.42
-1.58
-1.59
-1.40
-1.08
-0.75
-0.58
-0.63
-0.87
-1.16
-1.34
-1.30
-0.99
-0.48
0.07
0.53
0.78
0.78
0.60
0.37
0.21
0.18
0.26
0.41
0.53
0.60
0.61
0.60
0.55
0.44
0.24
-0.06
-0.36
-0.55
-0.54
-0.34
-0.05
0.15
0.13
-0.09
-0.40
-0.64
-0.66
-0.42
0.02
0.57
1.10
1.54
1.81
1.84
1.62
1.18
0.64
0.14
-0.21
-0.38
-0.38
-0.29
-0.17
-0.07
-0.02
-0.01
-0.05
-0.12
-0.19
-0.18
-0.04
0.23
0.56
0.87
1.03
1.02
0.86
0.65
0.47
0.34
0.22
0.02
-0.31
-0.75
-1.15
-1.36
-1.28
-0.92
-0.43
0.02
0.33
0.48
0.56
0.64
0.75
0.84
0.84
0.70
0.45
0.18
-0.02
-0.11
-0.10
-0.01
0.10
0.21
0.32
0.44
0.57
0.71
0.85
0.94
0.96
0.86
0.61
0.23
-0.26
-0.79
-1.30
-1.71
-1.96
-2.01
-1.84
-1.51
-1.05
-0.57
-0.15
0.15
0.28
0.27
0.18
0.10
0.10
0.23
0.49
0.81
1.06
1.14
0.98
0.64
0.26
-0.00
-0.01
0.24
0.64
1.02
1.25
1.26
1.08
0.81
0.50
0.20
-0.10
-0.41
-0.68
-0.89
-0.98
-0.97
-0.90
-0.85
-0.85
-0.91
-0.99
-1.06
-1.06
-0.99
-0.86
-0.70
-0.53
-0.36
-0.17
0.05
0.32
0.62
0.91
1.12
1.19
1.09
0.83
0.45
0.03
-0.35
-0.63
-0.78
-0.85
-0.89
-0.97
-1.13
-1.31
-1.41
-1.34
-1.05
-0.61
-0.12
0.28
0.53
0.65
0.70
0.75
0.81
0.82
0.74
0.58
0.39
0.26
0.22
0.24
0.29
0.30
0.28
0.29
0.39
0.59
0.83
1.00
1.02
0.84
0.53
0.18
-0.09
-0.22
-0.19
-0.03
0.18
0.36
0.44
0.36
0.10
-0.29
-0.74
-1.14
-1.38
-1.45
-1.37
-1.21
-1.04
-0.90
-0.78
-0.63
-0.44
-0.22
-0.02
0.10
0.11
0.04
-0.03
-0.06
-0.00
0.11
0.22
0.23
0.07
-0.27
-0.75
-1.25
-1.64
-1.83
-1.75
-1.44
-0.96
-0.42
0.13
0.64
1.09
1.45
1.68
1.77
1.74
1.65
1.62
1.70
1.86
1.99
1.96
1.67
1.16
0.57
0.04
-0.32
-0.53
-0.62
-0.64
-0.58
-0.40
-0.09
0.28
0.56
0.66
0.53
0.31
0.18
0.27
0.59
1.02
1.36
1.46
1.27
0.87
0.39
-0.05
-0.38
-0.60
-0.71
-0.76
-0.75
-0.70
-0.59
-0.42
-0.18
0.07
0.27
0.36
0.32
0.21
0.16
0.24
0.49
0.84
1.15
1.29
1.21
0.96
0.61
0.25
-0.09
-0.43
-0.73
-1.00
-1.16
-1.16
-0.95
-0.55
-0.04
0.51
1.01
1.37
1.53
1.49
1.27
0.96
0.68
0.48
0.38
0.29
0.13
-0.13
-0.41
-0.59
-0.57
-0.34
-0.01
0.28
0.43
0.47
0.47
0.50
0.56
0.56
0.41
0.07
-0.41
-0.95
-1.45
-1.84
-2.11
-2.26
-2.29
-2.20
-2.04
-1.88
-1.78
-1.78
-1.85
-1.92
-1.89
-1.70
-1.34
-0.85
-0.31
0.20
0.64
1.01
1.38
1.82
2.34
2.90
3.41
3.77
3.93
3.98
4.04
4.27
4.75
5.43
6.15
6.73
7.07
7.23
7.37
7.74
8.54
9.77
11.31
12.83
14.06
14.84
15.23
15.53
16.09
17.20
18.91
21.03
23.18
25.05
26.44
27.38
28.11
28.94
30.20
32.29
35.53
40.06
45.49
50.76
54.22
54.16
49.45
40.14
27.43
13.29
-0.36
-12.26
-22.03
-29.94
-36.40
-41.59
-45.46
-47.87
-48.89
-48.89
-48.36
-47.73
-47.12
-46.32
-44.96
-42.58
-39.05
-34.59
-29.78
-25.32
-21.82
-19.49
-18.11
-17.18
-16.11
-14.58
-12.62
-10.57
-8.83
-7.61
-6.88
-6.38
-5.79
-4.99
-4.04
-3.16
-2.53
-2.18
-2.03
-1.94
-1.83
-1.76
-1.81
-2.02
-2.29
-2.38
-2.10
-1.40
-0.42
0.57
1.30
1.65
1.70
1.61
1.59
1.72
2.00
2.34
2.67
2.99
3.33
3.76
4.27
4.78
5.14
5.22
4.97
4.43
3.78
3.21
2.83
2.65
2.56
2.42
2.09
1.56
0.85
0.02
-0.87
-1.77
-2.60
-3.23
-3.49
-3.26
-2.57
-1.66
-0.88
-0.52
-0.63
-1.00
-1.17
-0.74
0.47
2.32
4.44
6.39
7.83
8.55
8.43
7.44
5.70
3.57
1.64
0.55
0.65
1.76
3.12
3.74
2.79
0.03
-4.12
-8.82
-13.17
-16.53
-18.63
-19.40
-18.82
-16.89
-13.65
-9.40
-4.68
-0.23
3.28
5.43
6.16
5.79
4.77
3.57
2.52
1.78
1.35
1.08
0.82
0.50
0.27
0.48
1.60
3.87
7.20
11.04
14.59
17.12
18.28
18.17
17.13
15.55
13.52
10.97
7.77
4.02
0.11
-3.36
-5.89
-7.27
-7.60
-7.19
-6.33
-5.14
-3.64
-1.86
-0.01
1.50
2.26
2.08
1.15
0.01
-0.60
-0.10
1.83
5.09
9.24
13.63
17.52
20.26
21.39
20.77
18.64
15.59
12.40
9.87
8.67
9.19
11.49
15.33
20.16
25.29
30.03
33.85
36.55
38.26
39.36
40.35
41.61
43.38
45.66
48.33
51.19
54.03
56.67
58.96
60.73
61.84
62.01
60.81
57.53
51.28
41.24
26.94
8.68
-12.41
-34.49
-55.44
-73.38
-87.09
-96.08
-100.49
-100.90
-98.11
-93.06
-86.82
-80.53
-75.18
-71.36
-69.18
-68.29
-68.20
-68.59
-69.41
-70.75
-72.52
-74.27
-75.28
-74.82
-72.32
-67.25
-58.95
-46.69
-30.07
-9.69
12.42
33.05
48.85
57.54
58.88
54.63
47.62
40.52
34.94
31.29
29.25
28.38
28.41
29.20
30.50
31.73
32.18
31.16
28.36
23.95
18.51
12.83
7.59
3.22
-0.16
-2.67
-4.51
-5.87
-6.80
-7.34
-7.51
-7.37
-7.05
-6.65
-6.29
-6.02
-5.92
-6.01
-6.30
-6.73
-7.17
-7.49
-7.56
-7.38
-7.03
-6.67
-6.37
-6.15
-5.94
-5.61
-5.10
-4.43
-3.69
-2.99
-2.42
-1.99
-1.66
-1.35
-1.00
-0.62
-0.25
0.05
0.20
0.23
0.18
0.14
0.15
0.24
0.38
0.53
0.68
0.84
1.03
1.20
1.30
1.28
1.13
0.92
0.78
0.78
0.94
1.17
1.33
1.34
1.19
0.93
0.65
0.36
0.06
-0.31
-0.71
-1.08
-1.28
-1.22
-0.91
-0.47
-0.03
0.27
0.42
0.47
0.52
0.59
0.67
0.67
0.55
0.32
0.09
-0.06
-0.07
0.06
0.24
0.40
0.50
0.54
0.53
0.47
0.35
0.18
-0.02
-0.20
-0.30
-0.34
-0.37
-0.45
-0.63
-0.88
-1.14
-1.33
-1.40
-1.37
-1.29
-1.22
-1.20
-1.20
-1.20
-1.15
-1.02
-0.86
-0.71
-0.62
-0.63
-0.70
-0.72
-0.61
-0.32
0.13
0.60
0.95
1.08
0.98
0.69
0.33
-0.00
-0.26
-0.39
-0.40
-0.30
-0.15
-0.02
0.04
-0.01
-0.13
-0.23
-0.26
-0.19
-0.06
0.05
0.05
-0.07
-0.26
-0.43
-0.51
-0.46
-0.29
-0.03
0.26
0.56
0.85
1.08
1.25
1.35
1.40
1.44
1.48
1.47
1.39
1.19
0.92
0.67
0.54
0.58
0.73
0.87
0.90
0.77
0.52
0.21
-0.11
-0.39
-0.63
-0.80
-0.87
-0.81
-0.63
-0.35
-0.04
0.23
0.43
0.56
0.63
0.65
0.63
0.57
0.46
0.32
0.14
-0.10
-0.42
-0.84
-1.28
-1.63
-1.77
-1.66
-1.31
-0.83
-0.35
0.09
0.44
0.72
0.89
0.91
0.73
0.38
-0.03
-0.35
-0.43
-0.26
0.05
0.32
0.43
0.36
0.18
-0.01
-0.12
-0.14
-0.10
-0.07
-0.08
-0.15
-0.26
-0.37
-0.49
-0.59
-0.65
-0.65
-0.58
-0.49
-0.40
-0.35
-0.35
-0.39
-0.41
-0.39
-0.32
-0.21
-0.08
0.07
0.23
0.38
0.50
0.56
0.53
0.44
0.32
0.24
0.19
0.14
0.07
-0.03
-0.09
-0.05
0.14
0.46
0.82
1.11
1.26
1.24
1.13
0.96
0.81
0.67
0.50
0.23
-0.15
-0.63
-1.15
-1.60
-1.90
-2.00
-1.90
-1.68
-1.38
-1.03
-0.61
-0.12
0.44
1.00
1.49
1.83
2.01
2.04
1.94
1.72
1.37
0.90
0.34
-0.19
-0.57
-0.70
-0.57
-0.27
0.08
0.34
0.47
0.45
0.31
0.08
-0.22
-0.53
-0.81
-0.96
-0.94
-0.77
-0.56
-0.48
-0.60
-0.92
-1.34
-1.67
-1.78
-1.62
-1.24
-0.77
-0.33
-0.01
0.21
0.37
0.52
0.73
0.99
1.29
1.58
1.83
2.04
2.19
2.25
2.16
1.86
1.33
0.64
-0.05
-0.59
-0.88
-0.90
-0.74
-0.52
-0.34
-0.26
-0.25
-0.27
-0.26
-0.21
-0.13
-0.03
0.07
0.18
0.29
0.44
0.59
0.72
0.77
0.72
0.58
0.37
0.12
-0.18
-0.57
-1.03
-1.51
-1.91
-2.09
-1.98
-1.57
-0.96
-0.31
0.22
0.53
0.62
0.55
0.43
0.38
0.47
0.71
1.03
1.37
1.69
1.97
2.23
2.41
2.43
2.16
1.53
0.59
-0.45
-1.32
-1.78
-1.74
-1.33
-0.77
-0.29
-0.01
0.07
0.08
0.18
0.49
1.04
1.78
2.59
3.36
3.96
4.32
4.36
4.02
3.27
2.13
0.68
-0.88
-2.30
-3.37
-3.93
-3.98
-3.62
-3.02
-2.38
-1.84
-1.48
-1.34
-1.36
-1.48
-1.60
-1.64
-1.54
-1.32
-1.04
-0.73
-0.42
-0.12
0.14
0.33
0.41
0.41
0.40
0.46
0.61
0.76
0.78
0.58
0.16
-0.36
-0.80
-1.09
-1.25
-1.37
-1.55
-1.74
-1.83
-1.73
-1.42
-0.99
-0.58
-0.28
-0.09
0.06
0.25
0.50
0.75
0.96
1.10
1.19
1.24
1.24
1.14
0.89
0.51
0.09
-0.25
-0.42
-0.39
-0.22
0.00
0.20
0.32
0.36
0.29
0.10
-0.24
-0.71
-1.22
-1.65
-1.86
-1.77
-1.39
-0.78
-0.08
0.57
1.06
1.29
1.25
0.99
0.58
0.18
-0.13
-0.30
-0.35
-0.34
-0.36
-0.42
-0.50
-0.56
-0.53
-0.39
-0.16
0.14
0.49
0.87
1.25
1.60
1.85
1.93
1.82
1.53
1.13
0.72
0.38
0.15
0.02
-0.03
-0.04
-0.05
-0.03
0.01
0.05
0.05
-0.07
-0.35
-0.76
-1.20
-1.51
-1.53
-1.23
-0.74
-0.25
0.06
0.09
-0.09
-0.35
-0.54
-0.58
-0.52
-0.42
-0.37
-0.41
-0.51
-0.60
-0.60
-0.50
-0.32
-0.10
0.10
0.28
0.45
0.65
0.88
1.11
1.31
1.45
1.53
1.54
1.51
1.43
1.30
1.12
0.88
0.60
0.31
0.05
-0.13
-0.19
-0.14
-0.00
0.13
0.19
0.13
-0.03
-0.20
-0.34
-0.41
-0.44
-0.46
-0.53
-0.66
-0.82
-1.01
-1.17
-1.28
-1.30
-1.19
-0.94
-0.60
-0.21
0.14
0.42
0.62
0.77
0.88
0.94
0.94
0.88
0.79
0.72
0.72
0.79
0.92
1.06
1.14
1.11
0.94
0.60
0.11
-0.49
-1.09
-1.62
-1.98
-2.14
-2.09
-1.87
-1.56
-1.22
-0.90
-0.59
-0.29
0.02
0.35
0.65
0.87
0.96
0.95
0.91
0.96
1.14
1.39
1.60
1.64
1.50
1.23
0.95
0.71
0.51
0.31
0.08
-0.14
-0.28
-0.27
-0.16
-0.05
-0.08
-0.35
-0.78
-1.23
-1.54
-1.57
-1.32
-0.87
-0.37
0.05
0.35
0.50
0.55
0.56
0.55
0.57
0.64
0.77
0.95
1.07
1.07
0.89
0.58
0.24
0.03
0.05
0.30
0.70
1.12
1.44
1.61
1.63
1.52
1.29
0.93
0.47
-0.03
-0.45
-0.67
-0.62
-0.33
0.06
0.40
0.57
0.54
0.36
0.11
-0.13
-0.37
-0.59
-0.78
-0.88
-0.88
-0.79
-0.65
-0.56
-0.59
-0.72
-0.90
-1.05
-1.08
-1.00
-0.79
-0.52
-0.22
0.07
0.29
0.45
0.56
0.69
0.88
1.13
1.34
1.42
1.27
0.90
0.39
-0.12
-0.55
-0.86
-1.04
-1.13
-1.17
-1.17
-1.16
-1.18
-1.25
-1.37
-1.53
-1.65
-1.64
-1.49
-1.21
-0.90
-0.65
-0.55
-0.56
-0.62
-0.60
-0.45
-0.16
0.17
0.44
0.55
0.54
0.48
0.48
0.60
0.79
0.94
0.93
0.71
0.34
-0.06
-0.36
-0.51
-0.51
-0.43
-0.34
-0.22
-0.03
0.25
0.64
1.06
1.42
1.68
1.85
2.00
2.17
2.35
2.43
2.32
1.94
1.34
0.69
0.16
-0.13
-0.21
-0.19
-0.25
-0.46
-0.78
-1.05
-1.10
-0.88
-0.49
-0.13
0.02
-0.11
-0.38
-0.60
-0.59
-0.29
0.19
0.65
0.95
1.00
0.87
0.65
0.44
0.25
0.02
-0.27
-0.62
-0.97
-1.21
-1.26
-1.11
-0.86
-0.62
-0.51
-0.53
-0.62
-0.65
-0.54
-0.27
0.08
0.41
0.63
0.72
0.70
0.67
0.68
0.72
0.77
0.77
0.70
0.57
0.42
0.31
0.26
0.24
0.23
0.20
0.12
0.05
-0.01
-0.06
-0.12
-0.25
-0.49
-0.80
-1.09
-1.26
-1.21
-0.93
-0.49
-0.01
0.38
0.61
0.66
0.57
0.41
0.25
0.13
0.07
0.03
-0.01
-0.09
-0.20
-0.31
-0.33
-0.22
0.07
0.48
0.91
1.27
1.48
1.52
1.43
1.24
1.00
0.72
0.41
0.10
-0.12
-0.18
-0.06
0.17
0.38
0.42
0.23
-0.14
-0.54
-0.81
-0.89
-0.81
-0.68
-0.59
-0.58
-0.59
-0.57
-0.50
-0.40
-0.30
-0.22
-0.13
0.01
0.17
0.27
0.18
-0.16
-0.73
-1.34
-1.78
-1.91
-1.68
-1.19
-0.61
-0.09
0.28
0.47
0.50
0.40
0.24
0.06
-0.07
-0.10
-0.04
0.06
0.13
0.12
-0.00
-0.24
-0.56
-0.95
-1.36
-1.76
-2.12
-2.42
-2.66
-2.82
-2.89
-2.80
-2.49
-1.93
-1.15
-0.25
0.62
1.31
1.76
2.01
2.16
2.31
2.48
2.61
2.61
2.42
2.07
1.68
1.39
1.26
1.31
1.41
1.45
1.37
1.19
1.01
0.90
0.90
0.97
1.01
0.94
0.72
0.39
0.03
-0.26
-0.40
-0.35
-0.17
0.04
0.14
0.02
-0.34
-0.85
-1.37
-1.74
-1.89
-1.82
-1.62
-1.39
-1.18
-1.03
-0.95
-0.99
-1.19
-1.54
-1.98
-2.36
-2.53
-2.45
-2.21
-2.01
-2.07
-2.52
-3.32
-4.32
-5.31
-6.14
-6.71
-7.07
-7.29
-7.49
-7.76
-8.07
-8.31
-8.26
-7.67
-6.35
-4.29
-1.64
1.30
4.13
6.50
8.14
8.88
8.66
7.55
5.71
3.41
0.96
-1.38
-3.41
-5.12
-6.62
-8.10
-9.76
-11.69
-13.85
-16.02
-17.88
-19.15
-19.69
-19.66
-19.46
-19.55
-20.22
-21.41
-22.68
-23.44
-23.28
-22.23
-20.79
-19.72
-19.74
-21.34
-24.60
-29.21
-34.29
-38.36
-39.41
-35.43
-25.21
-9.09
10.73
30.76
47.39
58.19
62.61
61.90
58.22
53.56
49.12
45.23
41.76
38.54
35.63
33.23
31.41
29.96
28.41
26.23
23.08
19.02
14.51
10.23
6.82
4.60
3.46
2.96
2.56
1.83
0.67
-0.74
-2.05
-2.96
-3.32
-3.23
-2.91
-2.64
-2.57
-2.78
-3.18
-3.61
-3.93
-4.03
-3.92
-3.69
-3.49
-3.44
-3.60
-3.96
-4.44
-4.94
-5.40
-5.78
-6.14
-6.57
-7.17
-8.03
-9.18
-10.56
-12.06
-13.53
-14.88
-16.08
-17.22
-18.46
-19.96
-21.77
-23.82
-25.89
-27.77
-29.35
-30.73
-32.20
-34.11
-36.70
-40.02
-43.84
-47.80
-51.59
-55.02
-57.93
-60.06
-60.79
-59.24
-54.57
-46.45
-35.27
-22.14
-8.51
4.31
15.35
24.01
29.86
32.51
31.75
27.75
21.29
13.58
5.93
-0.82
-6.58
-11.83
-17.27
-23.20
-29.23
-34.25
-36.80
-35.55
-29.79
-19.71
-6.40
8.45
23.02
35.81
45.99
53.42
58.45
61.56
63.16
63.48
62.69
61.05
58.94
56.79
54.85
53.06
51.10
48.52
45.08
40.87
36.32
31.99
28.28
25.36
23.10
21.23
19.48
17.72
15.88
13.99
12.06
10.08
8.06
6.03
4.12
2.49
1.30
0.66
0.57
0.95
1.61
2.36
2.97
3.25
3.08
2.44
1.36
0.03
-1.36
-2.61
-3.55
-4.13
-4.38
-4.37
-4.14
-3.71
-3.04
-2.14
-1.08
-0.00
0.91
1.50
1.71
1.57
1.21
0.77
0.34
0.00
-0.20
-0.30
-0.31
-0.31
-0.35
-0.49
-0.73
-1.01
-1.29
-1.51
-1.62
-1.58
-1.35
-0.92
-0.34
0.28
0.77
1.02
0.93
0.56
0.02
-0.54
-0.99
-1.28
-1.42
-1.44
-1.34
-1.08
-0.61
0.06
0.82
1.48
1.88
1.94
1.77
1.57
1.54
1.74
2.07
2.33
2.32
2.01
1.48
0.92
0.48
0.26
0.19
0.21
0.24
0.27
0.31
0.40
0.55
0.74
0.93
1.11
1.25
1.36
1.39
1.29
1.05
0.70
0.32
0.06
-0.02
0.07
0.26
0.42
0.49
0.50
0.45
0.37
0.23
-0.01
-0.37
-0.77
-1.09
-1.22
-1.10
-0.79
-0.43
-0.19
-0.16
-0.34
-0.62
-0.82
-0.82
-0.58
-0.20
0.15
0.30
0.17
-0.16
-0.51
-0.70
-0.61
-0.31
0.03
0.19
0.04
-0.41
-1.04
-1.65
-2.05
-2.13
-1.86
-1.32
-0.61
0.18
0.98
1.71
2.29
2.63
2.68
2.43
1.98
1.47
1.00
0.64
0.38
0.16
-0.08
-0.35
-0.63
-0.88
-1.08
-1.20
-1.22
-1.13
-0.88
-0.52
-0.11
0.22
0.37
0.32
0.16
0.03
0.03
0.20
0.45
0.64
0.67
0.52
0.25
-0.02
-0.20
-0.26
-0.23
-0.19
-0.18
-0.22
-0.31
-0.42
-0.51
-0.54
-0.46
-0.21
0.21
0.71
1.17
1.42
1.38
1.12
0.80
0.63
0.71
1.03
1.41
1.63
1.54
1.07
0.29
-0.65
-1.61
-2.43
-2.98
-3.16
-2.99
-2.51
-1.86
-1.21
-0.68
-0.34
-0.19
-0.15
-0.17
-0.16
-0.10
-0.02
-0.00
-0.11
-0.36
-0.73
-1.10
-1.36
-1.44
-1.31
-1.00
-0.58
-0.15
0.25
0.53
0.68
0.71
0.66
0.59
0.53
0.50
0.48
0.44
0.38
0.26
0.06
-0.29
-0.80
-1.36
-1.77
-1.83
-1.41
-0.59
0.39
1.20
1.63
1.60
1.20
0.57
-0.15
-0.86
-1.51
-2.00
-2.24
-2.16
-1.78
-1.23
-0.64
-0.14
0.20
0.39
0.48
0.53
0.61
0.77
1.05
1.45
1.92
2.37
2.67
2.75
2.62
2.36
2.10
1.94
1.90
1.88
1.76
1.39
0.76
-0.02
-0.77
-1.30
-1.49
-1.33
-0.89
-0.31
0.28
0.76
1.08
1.22
1.20
1.08
0.89
0.66
0.42
0.23
0.12
0.15
0.33
0.63
0.97
1.24
1.35
1.31
1.21
1.15
1.19
1.26
1.24
0.97
0.41
-0.32
-1.03
-1.50
-1.65
-1.55
-1.32
-1.05
-0.79
-0.48
-0.13
0.23
0.44
0.41
0.10
-0.40
-0.87
-1.17
-1.20
-1.01
-0.72
-0.48
-0.38
-0.42
-0.54
-0.65
-0.69
-0.64
-0.51
-0.33
-0.13
0.10
0.35
0.60
0.81
0.89
0.82
0.60
0.27
-0.07
-0.34
-0.50
-0.51
-0.36
-0.03
0.45
1.00
1.48
1.75
1.72
1.41
0.90
0.38
-0.01
-0.15
-0.02
0.31
0.69
0.98
1.07
0.91
0.52
0.02
-0.46
-0.77
-0.81
-0.59
-0.18
0.29
0.69
0.89
0.86
0.60
0.22
-0.17
-0.40
-0.36
0.01
0.67
1.45
2.14
2.54
2.61
2.46
2.33
2.50
3.12
4.22
5.65
7.17
8.52
9.43
9.71
9.25
8.12
6.60
5.13
4.09
3.63
3.46
3.00
1.50
-1.56
-6.25
-12.15
-18.47
-24.24
-28.61
-31.05
-31.38
-29.69
-26.29
-21.60
-16.12
-10.42
-5.12
-0.81
2.05
3.34
3.28
2.40
1.32
0.56
0.31
0.49
0.86
1.16
1.23
1.05
0.63
0.04
-0.71
-1.56
-2.48
-3.42
-4.33
-5.21
-6.07
-6.95
-7.89
-8.97
-10.22
-11.66
-13.23
-14.80
-16.25
-17.59
-18.95
-20.58
-22.70
-25.36
-28.37
-31.41
-34.23
-36.91
-39.92
-44.04
-49.99
-58.17
-68.31
-79.63
-91.01
-101.30
-109.63
-115.62
-119.29
-121.04
-121.50
-121.41
-121.61
-122.90
-125.82
-130.45
-136.00
-140.84
-142.71
-139.23
-128.65
-110.32
-84.71
-52.93
-16.24
24.13
66.62
108.78
147.11
177.70
197.48
205.50
203.22
193.96
181.38
168.19
155.51
143.29
131.25
119.48
108.62
99.39
92.02
86.12
80.89
75.61
69.96
64.08
58.34
53.07
48.40
44.20
40.23
36.27
32.17
27.92
23.65
19.61
16.15
13.62
12.27
12.01
12.46
12.98
13.01
12.28
10.97
9.59
8.73
8.75
9.65
11.15
12.82
14.36
15.67
16.86
18.15
19.72
21.69
24.09
26.87
29.92
33.09
36.18
39.03
41.54
43.71
45.70
47.69
49.88
52.37
55.17
58.18
61.32
64.47
67.50
70.25
72.47
73.84
73.94
72.22
68.01
60.61
49.52
34.72
16.91
-2.54
-21.79
-39.06
-53.04
-63.18
-69.63
-73.05
-74.29
-74.12
-73.15
-71.77
-70.19
-68.46
-66.55
-64.41
-62.03
-59.40
-56.57
-53.64
-50.70
-47.87
-45.24
-42.81
-40.44
-37.89
-34.88
-31.25
-27.08
-22.68
-18.45
-14.76
-11.82
-9.62
-8.02
-6.87
-6.07
-5.56
-5.33
-5.29
-5.29
-5.19
-4.89
-4.41
-3.87
-3.42
-3.11
-2.88
-2.56
-1.99
-1.14
-0.15
0.74
1.31
1.53
1.54
1.57
1.82
2.31
2.93
3.45
3.71
3.62
3.23
2.64
1.95
1.25
0.58
-0.01
-0.50
-0.84
-1.05
-1.18
-1.31
-1.53
-1.89
-2.40
-2.99
-3.54
-3.96
-4.20
-4.28
-4.26
-4.25
-4.27
-4.28
-4.19
-3.89
-3.36
-2.68
-2.02
-1.55
-1.34
-1.35
-1.44
-1.47
-1.37
-1.16
-0.92
-0.74
-0.67
-0.65
-0.62
-0.53
-0.40
-0.26
-0.19
-0.23
-0.38
-0.60
-0.88
-1.17
-1.46
-1.70
-1.82
-1.77
-1.54
-1.19
-0.84
-0.58
-0.45
-0.42
-0.42
-0.39
-0.33
-0.27
-0.25
-0.28
-0.34
-0.40
-0.49
-0.63
-0.83
-1.06
-1.24
-1.30
-1.23
-1.07
-0.90
-0.76
-0.66
-0.53
-0.34
-0.07
0.25
0.58
0.85
1.02
1.09
1.08
1.04
1.03
1.06
1.11
1.09
0.91
0.54
0.03
-0.50
-0.92
-1.12
-1.08
-0.85
-0.57
-0.34
-0.25
-0.30
-0.42
-0.52
-0.56
-0.54
-0.53
-0.63
-0.83
-1.05
-1.16
-1.03
-0.65
-0.12
0.40
0.77
0.93
0.92
0.80
0.63
0.41
0.15
-0.12
-0.32
-0.38
-0.27
-0.01
0.26
0.45
0.49
0.42
0.35
0.35
0.46
0.64
0.81
0.92
0.92
0.79
0.53
0.18
-0.22
-0.58
-0.80
-0.81
-0.64
-0.39
-0.19
-0.10
-0.11
-0.14
-0.10
0.01
0.12
0.16
0.09
-0.01
-0.04
0.10
0.39
0.75
1.05
1.19
1.12
0.87
0.50
0.07
-0.34
-0.70
-1.00
-1.25
-1.46
-1.63
-1.72
-1.70
-1.50
-1.16
-0.74
-0.36
-0.14
-0.12
-0.26
-0.48
-0.66
-0.74
-0.70
-0.58
-0.46
-0.38
-0.37
-0.38
-0.37
-0.30
-0.16
0.03
0.25
0.46
0.64
0.79
0.87
0.89
0.82
0.70
0.58
0.52
0.59
0.81
1.14
1.48
1.68
1.65
1.32
0.75
0.09
-0.44
-0.70
-0.64
-0.37
-0.05
0.15
0.18
0.06
-0.08
-0.18
-0.23
-0.29
-0.42
-0.63
-0.85
-0.99
-0.98
-0.80
-0.51
-0.16
0.17
0.42
0.57
0.59
0.47
0.24
-0.02
-0.26
-0.46
-0.63
-0.76
-0.84
-0.82
-0.62
-0.23
0.27
0.72
0.97
0.95
0.72
0.44
0.27
0.25
0.33
0.36
0.23
-0.09
-0.51
-0.89
-1.11
-1.15
-1.04
-0.86
-0.69
-0.53
-0.34
-0.08
0.24
0.57
0.80
0.88
0.82
0.68
0.56
0.51
0.56
0.66
0.77
0.86
0.96
1.09
1.25
1.42
1.55
1.62
1.61
1.52
1.32
1.00
0.58
0.11
-0.32
-0.60
-0.68
-0.57
-0.37
-0.19
-0.11
-0.19
-0.38
-0.57
-0.67
-0.56
-0.22
0.30
0.87
1.29
1.40
1.10
0.42
-0.48
-1.42
-2.25
-2.86
-3.22
-3.39
-3.38
-3.26
-3.07
-2.85
-2.61
-2.35
-2.06
-1.72
-1.34
-0.90
-0.44
0.02
0.44
0.78
1.00
1.04
0.88
0.54
0.09
-0.31
-0.56
-0.58
-0.42
-0.20
-0.06
-0.09
-0.25
-0.46
-0.58
-0.53
-0.31
0.01
0.30
0.43
0.34
0.08
-0.24
-0.49
-0.57
-0.47
-0.21
0.11
0.44
0.76
1.08
1.44
1.82
2.14
2.32
2.30
2.09
1.78
1.48
1.27
1.14
1.00
0.76
0.42
0.06
-0.16
-0.12
0.19
0.63
1.00
1.13
0.99
0.66
0.30
0.03
-0.11
-0.13
-0.09
0.01
0.14
0.30
0.43
0.45
0.29
-0.04
-0.46
-0.80
-0.95
-0.87
-0.64
-0.40
-0.30
-0.39
-0.65
-0.95
-1.15
-1.15
-0.92
-0.54
-0.10
0.31
0.67
0.96
1.20
1.40
1.53
1.59
1.55
1.41
1.22
1.00
0.80
0.63
0.49
0.35
0.18
-0.02
-0.23
-0.41
-0.50
-0.47
-0.37
-0.25
-0.17
-0.15
-0.17
-0.16
-0.11
-0.04
0.01
0.01
0.01
0.07
0.26
0.56
0.87
1.05
1.02
0.82
0.54
0.31
0.20
0.21
0.27
0.30
0.26
0.12
-0.12
-0.42
-0.74
-1.01
-1.14
-1.10
-0.95
-0.79
-0.74
-0.85
-1.11
-1.42
-1.67
-1.81
-1.84
-1.82
-1.81
-1.85
-1.97
-2.16
-2.39
-2.57
-2.63
-2.48
-2.16
-1.72
-1.29
-0.96
-0.77
-0.68
-0.65
-0.66
-0.77
-1.03
-1.45
-1.94
-2.35
-2.57
-2.54
-2.34
-2.09
-1.89
-1.75
-1.58
-1.28
-0.79
-0.17
0.45
0.94
1.24
1.41
1.62
1.98
2.51
3.11
3.61
3.88
3.87
3.68
3.49
3.43
3.53
3.72
3.91
4.02
4.06
4.09
4.14
4.15
3.98
3.46
2.61
1.57
0.68
0.24
0.44
1.21
2.27
3.27
3.90
4.02
3.60
2.74
1.58
0.29
-0.98
-2.10
-2.95
-3.47
-3.63
-3.48
-3.10
-2.64
-2.26
-2.12
-2.29
-2.73
-3.31
-3.82
-4.12
-4.17
-4.05
-3.89
-3.76
-3.64
-3.37
-2.80
-1.81
-0.44
1.15
2.74
4.12
5.18
5.84
6.15
6.11
5.79
5.21
4.38
3.38
2.31
1.31
0.50
-0.02
-0.26
-0.29
-0.24
-0.24
-0.38
-0.66
-1.04
-1.42
-1.70
-1.80
-1.71
-1.47
-1.15
-0.84
-0.58
-0.40
-0.26
-0.13
-0.02
0.08
0.15
0.19
0.22
0.26
0.35
0.48
0.61
0.70
0.72
0.65
0.46
0.14
-0.31
-0.85
-1.38
-1.77
-1.93
-1.85
-1.56
-1.18
-0.76
-0.36
0.05
0.46
0.82
1.04
1.05
0.83
0.42
-0.05
-0.48
-0.81
-1.01
-1.12
-1.15
-1.14
-1.13
-1.14
-1.20
-1.32
-1.46
-1.56
-1.53
-1.35
-1.07
-0.80
-0.69
-0.83
-1.23
-1.77
-2.21
-2.32
-2.02
-1.36
-0.54
0.21
0.77
1.12
1.34
1.46
1.48
1.36
1.08
0.71
0.42
0.34
0.55
0.96
1.41
1.72
1.78
1.59
1.19
0.69
0.14
-0.39
-0.84
-1.15
-1.29
-1.26
-1.06
-0.76
-0.42
-0.10
0.15
0.30
0.36
0.39
0.42
0.47
0.50
0.41
0.11
-0.46
-1.20
-1.95
-2.51
-2.79
-2.78
-2.57
-2.29
-1.95
-1.56
-1.06
-0.46
0.18
0.76
1.21
1.52
1.78
2.07
2.44
2.86
3.23
3.42
3.35
3.02
2.53
2.02
1.63
1.43
1.41
1.46
1.48
1.39
1.18
0.88
0.57
0.32
0.20
0.19
0.27
0.34
0.34
0.22
0.01
-0.18
-0.25
-0.13
0.14
0.48
0.78
1.00
1.15
1.32
1.55
1.82
2.02
2.07
1.89
1.53
1.09
0.69
0.39
0.19
0.08
0.02
0.01
0.05
0.12
0.12
-0.03
-0.42
-1.04
-1.79
-2.47
-2.93
-3.10
-3.02
-2.78
-2.47
-2.14
-1.79
-1.42
-1.11
-0.95
-1.04
-1.39
-1.91
-2.43
-2.80
-2.91
-2.77
-2.44
-2.02
-1.58
-1.15
-0.76
-0.39
-0.05
0.23
0.42
0.51
0.51
0.44
0.33
0.18
-0.03
-0.35
-0.81
-1.44
-2.21
-3.01
-3.70
-4.16
-4.32
-4.31
-4.40
-4.94
-6.16
-8.09
-10.47
-12.84
-14.73
-15.78
-15.93
-15.42
-14.76
-14.60
-15.56
-18.00
-21.76
-26.08
-29.61
-30.78
-28.26
-21.56
-11.39
0.48
11.70
20.18
24.82
25.87
24.65
22.91
22.02
22.55
24.26
26.45
28.42
29.72
30.21
29.86
28.67
26.66
23.95
20.80
17.59
14.65
12.23
10.47
9.42
9.04
9.14
9.27
8.83
7.30
4.49
0.70
-3.44
-7.24
-10.27
-12.47
-14.04
-15.23
-16.07
-16.36
-15.84
-14.40
-12.22
-9.75
-7.51
-5.91
-5.08
-4.88
-5.01
-5.17
-5.17
-4.96
-4.56
-4.04
-3.44
-2.79
-2.10
-1.43
-0.89
-0.58
-0.56
-0.81
-1.21
-1.58
-1.77
-1.72
-1.45
-1.07
-0.66
-0.27
0.10
0.52
1.02
1.60
2.20
2.75
3.19
3.57
3.98
4.57
5.48
6.76
8.35
10.05
11.56
12.56
12.82
12.16
10.59
8.22
5.34
2.29
-0.54
-2.83
-4.36
-5.09
-5.09
-4.54
-3.63
-2.56
-1.50
-0.58
0.12
0.58
0.80
0.88
0.91
0.96
1.07
1.18
1.19
0.98
0.46
-0.39
-1.47
-2.55
-3.42
-3.87
-3.85
-3.41
-2.71
-1.96
-1.32
-0.90
-0.78
-0.93
-1.31
-1.81
-2.29
-2.59
-2.59
-2.22
-1.52
-0.60
0.38
1.29
2.03
2.57
2.91
3.04
2.94
2.60
2.01
1.19
0.16
-1.03
-2.33
-3.68
-4.97
-6.08
-6.89
-7.30
-7.29
-6.92
-6.35
-5.75
-5.25
-4.89
-4.64
-4.39
-4.06
-3.61
-3.05
-2.43
-1.78
-1.08
-0.35
0.42
1.17
1.83
2.37
2.76
3.01
3.11
3.02
2.74
2.27
1.73
1.27
1.05
1.11
1.37
1.67
1.82
1.68
1.25
0.59
-0.20
-1.00
-1.69
-2.14
-2.22
-1.83
-0.95
0.32
1.83
3.35
4.65
5.57
6.02
6.03
5.71
5.24
4.81
4.49
4.24
3.89
3.23
2.14
0.63
-1.09
-2.76
-4.14
-5.12
-5.72
-6.05
-6.19
-6.21
-6.06
-5.69
-5.05
-4.15
-3.05
-1.88
-0.73
0.31
1.25
2.12
2.95
3.71
4.32
4.68
4.74
4.55
4.21
3.85
3.52
3.18
2.78
2.29
1.78
1.40
1.27
1.42
1.78
2.15
2.40
2.46
2.40
2.35
2.38
2.45
2.48
2.35
2.06
1.71
1.48
1.53
1.84
2.28
2.57
2.50
1.97
1.03
-0.12
-1.25
-2.21
-2.92
-3.40
-3.75
-4.03
-4.29
-4.51
-4.66
-4.68
-4.51
-4.15
-3.62
-2.98
-2.34
-1.78
-1.34
-1.00
-0.74
-0.47
-0.18
0.16
0.51
0.80
1.00
1.07
0.98
0.77
0.50
0.25
0.08
0.04
0.11
0.27
0.47
0.63
0.72
0.68
0.52
0.29
0.05
-0.13
-0.20
-0.20
-0.14
-0.05
0.07
0.26
0.53
0.83
1.08
1.18
1.10
0.84
0.51
0.18
-0.09
-0.32
-0.51
-0.68
-0.80
-0.80
-0.67
-0.44
-0.19
-0.02
0.03
-0.03
-0.12
-0.11
0.02
0.23
0.41
0.45
0.34
0.17
0.09
0.21
0.55
1.02
1.45
1.67
1.62
1.33
0.91
0.50
0.22
0.11
0.14
0.25
0.30
0.22
-0.01
-0.36
-0.73
-1.04
-1.25
-1.37
-1.44
-1.47
-1.45
-1.34
-1.13
-0.85
-0.59
-0.48
-0.60
-0.96
-1.47
-1.92
-2.15
-2.02
-1.56
-0.91
-0.31
0.08
0.19
0.07
-0.11
-0.20
-0.10
0.19
0.57
0.89
1.05
1.02
0.83
0.58
0.40
0.36
0.51
0.79
1.09
1.26
1.20
0.87
0.34
-0.26
-0.79
-1.13
-1.28
-1.31
-1.30
-1.32
-1.32
-1.27
-1.11
-0.90
-0.72
-0.67
-0.77
-0.96
-1.10
-1.07
-0.82
-0.39
0.14
0.66
1.09
1.38
1.53
1.54
1.46
1.35
1.27
1.27
1.37
1.54
1.74
1.87
1.86
1.65
1.27
0.79
0.31
-0.04
-0.21
-0.24
-0.20
-0.17
-0.17
-0.17
-0.16
-0.13
-0.13
-0.22
-0.42
-0.69
-0.94
-1.07
-1.02
-0.81
-0.53
-0.29
-0.15
-0.13
-0.16
-0.15
-0.03
0.19
0.44
0.63
0.69
0.64
0.57
0.58
0.69
0.85
0.96
0.97
0.86
0.72
0.61
0.53
0.42
0.18
-0.23
-0.75
-1.21
-1.45
-1.37
-0.99
-0.46
0.01
0.29
0.35
0.26
0.10
-0.05
-0.20
-0.38
-0.62
-0.89
-1.07
-1.08
-0.90
-0.58
-0.25
0.00
0.12
0.14
0.16
0.24
0.40
0.60
0.75
0.78
0.65
0.40
0.10
-0.12
-0.21
-0.18
-0.11
-0.11
-0.22
-0.40
-0.55
-0.56
-0.38
-0.05
0.30
0.58
0.73
0.82
0.90
1.05
1.26
1.47
1.58
1.55
1.36
1.02
0.56
0.03
-0.54
-1.07
-1.46
-1.63
-1.52
-1.16
-0.68
-0.22
0.06
0.14
0.05
-0.10
-0.24
-0.35
-0.46
-0.59
-0.76
-0.87
-0.85
-0.64
-0.28
0.10
0.34
0.33
0.09
-0.26
-0.54
-0.62
-0.46
-0.09
0.37
0.80
1.11
1.23
1.14
0.85
0.44
0.02
-0.28
-0.33
-0.13
0.25
0.69
1.04
1.22
1.27
1.25
1.24
1.27
1.29
1.22
0.97
0.55
0.05
-0.39
-0.64
-0.66
-0.50
-0.29
-0.15
-0.13
-0.21
-0.32
-0.43
-0.49
-0.54
-0.59
-0.66
-0.72
-0.76
-0.79
-0.83
-0.89
-0.98
-1.03
-1.00
-0.88
-0.69
-0.53
-0.47
-0.52
-0.65
-0.72
-0.66
-0.44
-0.14
0.09
0.15
0.02
-0.19
-0.35
-0.35
-0.22
-0.06
0.00
-0.10
-0.32
-0.52
-0.61
-0.56
-0.45
-0.38
-0.41
-0.52
-0.61
-0.59
-0.43
-0.14
0.21
0.56
0.85
1.05
1.18
1.21
1.16
1.03
0.83
0.58
0.29
-0.01
-0.27
-0.41
-0.39
-0.20
0.09
0.36
0.51
0.51
0.40
0.32
0.36
0.56
0.86
1.16
1.34
1.35
1.24
1.08
0.94
0.84
0.79
0.74
0.64
0.45
0.16
-0.19
-0.56
-0.86
-1.00
-0.93
-0.62
-0.13
0.42
0.88
1.14
1.15
0.98
0.71
0.43
0.21
0.00
-0.26
-0.63
-1.08
-1.51
-1.80
-1.90
-1.84
-1.74
-1.67
-1.64
-1.54
-1.24
-0.71
-0.07
0.49
0.77
0.75
0.55
0.37
0.34
0.47
0.66
0.76
0.75
0.70
0.73
0.94
1.28
1.60
1.73
1.58
1.15
0.60
0.09
-0.25
-0.35
-0.24
-0.04
0.10
0.07
-0.18
-0.58
-0.99
-1.21
-1.13
-0.78
-0.27
0.19
0.50
0.60
0.56
0.49
0.47
0.53
0.60
0.64
0.61
0.52
0.44
0.42
0.44
0.46
0.39
0.17
-0.16
-0.48
-0.64
-0.53
-0.17
0.32
0.75
0.95
0.87
0.60
0.29
0.10
0.10
0.28
0.54
0.78
0.91
0.89
0.71
0.38
-0.07
-0.55
-0.96
-1.18
-1.15
-0.85
-0.41
0.01
0.24
0.17
-0.14
-0.56
-0.90
-1.05
-1.00
-0.83
-0.69
-0.65
-0.74
-0.89
-1.03
-1.12
-1.13
-1.08
-0.98
-0.84
-0.64
-0.40
-0.15
0.04
0.09
-0.02
-0.26
-0.55
-0.75
-0.78
-0.59
-0.21
0.28
0.74
1.06
1.19
1.09
0.80
0.38
-0.07
-0.45
-0.67
-0.71
-0.60
-0.40
-0.18
0.02
0.17
0.28
0.32
0.26
0.09
-0.13
-0.31
-0.34
-0.20
0.04
0.24
0.26
0.10
-0.16
-0.37
-0.41
-0.27
-0.02
0.24
0.41
0.45
0.37
0.19
-0.04
-0.26
-0.43
-0.54
-0.60
-0.65
-0.75
-0.87
-0.96
-0.92
-0.72
-0.39
-0.03
0.23
0.35
0.36
0.34
0.37
0.47
0.59
0.68
0.73
0.78
0.89
1.05
1.22
1.28
1.17
0.93
0.63
0.40
0.33
0.45
0.70
0.99
1.20
1.27
1.17
0.92
0.60
0.26
-0.01
-0.18
-0.23
-0.16
-0.01
0.18
0.36
0.45
0.36
0.01
-0.61
-1.44
-2.36
-3.22
-3.88
-4.26
-4.34
-4.12
-3.63
-2.96
-2.23
-1.57
-1.07
-0.79
-0.67
-0.60
-0.47
-0.19
0.24
0.78
1.33
1.83
2.23
2.48
2.58
2.50
2.27
1.91
1.45
0.95
0.46
0.06
-0.18
-0.19
0.03
0.43
0.90
1.29
1.54
1.65
1.71
1.82
2.03
2.26
2.37
2.24
1.83
1.21
0.54
-0.02
-0.37
-0.49
-0.46
-0.36
-0.28
-0.26
-0.28
-0.33
-0.36
-0.39
-0.43
-0.50
-0.61
-0.71
-0.73
-0.63
-0.41
-0.16
0.00
-0.02
-0.24
-0.54
-0.80
-0.91
-0.89
-0.81
-0.81
-0.94
-1.17
-1.39
-1.51
-1.49
-1.37
-1.21
-1.06
-0.92
-0.72
-0.43
-0.06
0.30
0.58
0.75
0.84
0.93
1.11
1.36
1.62
1.80
1.82
1.66
1.39
1.08
0.80
0.59
0.44
0.32
0.20
0.03
-0.21
-0.52
-0.87
-1.23
-1.53
-1.73
-1.77
-1.62
-1.30
-0.88
-0.44
-0.10
0.07
0.09
0.03
-0.02
0.02
0.15
0.33
0.52
0.62
0.57
0.32
-0.19
-0.88
-1.64
-2.25
-2.52
-2.38
-1.89
-1.29
-0.81
-0.65
-0.80
-1.11
-1.36
-1.36
-1.09
-0.66
-0.30
-0.22
-0.54
-1.24
-2.16
-3.05
-3.62
-3.53
-2.53
-0.50
2.40
5.68
8.60
10.40
10.59
9.12
6.43
3.26
0.32
-1.91
-3.28
-3.91
-4.03
-3.86
-3.56
-3.30
-3.20
-3.35
-3.75
-4.21
-4.48
-4.30
-3.51
-2.16
-0.43
1.41
3.19
4.83
6.38
7.89
9.33
10.53
11.26
11.27
10.45
8.89
6.88
4.81
3.05
1.84
1.19
0.98
0.99
1.07
1.13
1.15
1.08
0.88
0.45
-0.26
-1.19
-2.18
-3.05
-3.63
-3.89
-3.87
-3.69
-3.43
-3.16
-2.90
-2.63
-2.33
-2.02
-1.71
-1.45
-1.31
-1.34
-1.55
-1.88
-2.22
-2.44
-2.44
-2.17
-1.69
-1.08
-0.48
-0.03
0.16
0.07
-0.25
-0.66
-1.01
-1.19
-1.17
-1.02
-0.84
-0.72
-0.69
-0.73
-0.81
-0.93
-1.03
-1.10
-1.08
-0.93
-0.68
-0.37
-0.08
0.14
0.30
0.44
0.60
0.77
0.90
0.89
0.72
0.42
0.12
-0.07
-0.05
0.13
0.37
0.52
0.50
0.30
0.05
-0.10
-0.05
0.20
0.51
0.72
0.67
0.36
-0.06
-0.44
-0.63
-0.62
-0.51
-0.43
-0.46
-0.59
-0.74
-0.83
-0.84
-0.78
-0.70
-0.63
-0.55
-0.44
-0.29
-0.08
0.18
0.46
0.77
1.10
1.40
1.60
1.64
1.47
1.10
0.59
0.07
-0.38
-0.68
-0.80
-0.79
-0.70
-0.62
-0.60
-0.67
-0.83
-1.05
-1.30
-1.55
-1.75
-1.82
-1.70
-1.34
-0.78
-0.11
0.51
0.95
1.15
1.15
1.04
0.93
0.86
0.88
0.97
1.12
1.29
1.43
1.49
1.40
1.18
0.85
0.50
0.22
0.04
-0.05
-0.07
-0.06
-0.01
0.09
0.22
0.36
0.42
0.36
0.18
-0.03
-0.17
-0.17
-0.03
0.17
0.37
0.48
0.50
0.43
0.27
0.02
-0.31
-0.65
-0.91
-0.98
-0.81
-0.44
0.02
0.42
0.66
0.72
0.66
0.52
0.36
0.17
-0.07
-0.36
-0.65
-0.90
-1.04
-1.05
-0.96
-0.82
-0.71
-0.65
-0.64
-0.61
-0.50
-0.26
0.11
0.54
0.96
1.27
1.43
1.44
1.35
1.21
1.06
0.88
0.70
0.54
0.45
0.49
0.61
0.71
0.63
0.25
-0.38
-1.11
-1.70
-1.95
-1.82
-1.42
-0.95
-0.59
-0.40
-0.33
-0.26
-0.12
0.09
0.26
0.27
0.06
-0.36
-0.88
-1.35
-1.63
-1.66
-1.46
-1.09
-0.65
-0.23
0.13
0.42
0.65
0.85
1.02
1.16
1.22
1.18
1.05
0.85
0.60
0.29
-0.08
-0.53
-1.00
-1.37
-1.58
-1.58
-1.41
-1.16
-0.92
-0.74
-0.57
-0.39
-0.14
0.16
0.49
0.80
1.11
1.41
1.68
1.89
1.95
1.81
1.46
0.95
0.38
-0.14
-0.51
-0.69
-0.70
-0.60
-0.47
-0.35
-0.21
0.00
0.33
0.75
1.20
1.60
1.90
2.06
2.11
2.06
1.90
1.59
1.13
0.55
-0.10
-0.72
-1.27
-1.69
-1.95
-2.05
-1.99
-1.83
-1.63
-1.46
-1.37
-1.36
-1.41
-1.47
-1.52
-1.55
-1.52
-1.42
-1.20
-0.87
-0.49
-0.18
-0.02
-0.06
-0.22
-0.35
-0.32
-0.06
0.39
0.90
1.34
1.61
1.68
1.58
1.33
0.96
0.49
0.02
-0.36
-0.52
-0.43
-0.13
0.23
0.50
0.58
0.50
0.35
0.24
0.24
0.33
0.43
0.48
0.45
0.37
0.25
0.09
-0.12
-0.39
-0.72
-1.03
-1.24
-1.28
-1.13
-0.86
-0.57
-0.38
-0.34
-0.42
-0.53
-0.57
-0.48
-0.25
0.03
0.26
0.38
0.38
0.31
0.25
0.25
0.33
0.47
0.63
0.78
0.92
1.06
1.21
1.35
1.44
1.46
1.39
1.22
0.96
0.64
0.32
0.05
-0.12
-0.16
-0.10
-0.00
0.07
0.09
0.07
0.04
0.05
0.09
0.16
0.22
0.25
0.22
0.14
0.01
-0.11
-0.19
-0.20
-0.14
-0.05
0.02
0.04
0.02
-0.04
-0.08
-0.11
-0.14
-0.21
-0.36
-0.59
-0.84
-1.06
-1.21
-1.27
-1.23
-1.14
-1.04
-0.97
-0.91
-0.81
-0.63
-0.33
0.09
0.53
0.90
1.10
1.11
0.96
0.73
0.49
0.26
0.05
-0.14
-0.29
-0.37
-0.38
-0.35
-0.32
-0.32
-0.34
-0.35
-0.31
-0.20
-0.07
0.05
0.11
0.11
0.08
0.05
0.06
0.08
0.06
-0.05
-0.28
-0.57
-0.84
-0.97
-0.90
-0.65
-0.30
-0.00
0.17
0.20
0.16
0.12
0.15
0.23
0.34
0.46
0.63
0.87
1.22
1.59
1.87
1.93
1.72
1.32
0.85
0.48
0.28
0.24
0.26
0.28
0.26
0.17
0.06
-0.09
-0.24
-0.38
-0.46
-0.42
-0.26
-0.01
0.24
0.42
0.47
0.39
0.24
0.05
-0.14
-0.33
-0.52
-0.68
-0.75
-0.70
-0.53
-0.27
-0.04
0.08
0.05
-0.09
-0.23
-0.28
-0.21
-0.03
0.15
0.25
0.25
0.17
0.07
0.01
-0.00
-0.03
-0.12
-0.27
-0.45
-0.55
-0.49
-0.26
0.08
0.41
0.59
0.55
0.25
-0.24
-0.82
-1.38
-1.82
-2.08
-2.13
-1.96
-1.62
-1.20
-0.80
-0.50
-0.32
-0.21
-0.08
0.15
0.51
0.91
1.25
1.42
1.36
1.16
0.90
0.73
0.72
0.85
1.05
1.22
1.28
1.19
0.97
0.66
0.31
-0.03
-0.33
-0.54
-0.64
-0.64
-0.58
-0.47
-0.35
-0.22
-0.06
0.09
0.20
0.20
0.07
-0.16
-0.38
-0.49
-0.43
-0.23
0.01
0.20
0.30
0.34
0.42
0.61
0.92
1.24
1.45
1.43
1.17
0.74
0.29
-0.07
-0.27
-0.34
-0.36
-0.38
-0.41
-0.43
-0.41
-0.37
-0.34
-0.35
-0.35
-0.32
-0.19
0.01
0.22
0.34
0.32
0.17
-0.01
-0.12
-0.10
0.03
0.18
0.26
0.21
0.08
-0.06
-0.15
-0.14
-0.07
0.01
0.02
-0.10
-0.35
-0.66
-0.94
-1.08
-1.01
-0.76
-0.41
-0.09
0.09
0.07
-0.10
-0.33
-0.52
-0.58
-0.44
-0.13
0.33
0.86
1.35
1.73
1.89
1.80
1.49
1.04
0.59
0.26
0.15
0.26
0.52
0.79
0.97
0.97
0.80
0.52
0.27
0.12
0.11
0.18
0.22
0.10
-0.21
-0.66
-1.16
-1.56
-1.80
-1.87
-1.83
-1.77
-1.77
-1.81
-1.86
-1.85
-1.71
-1.42
-1.02
-0.57
-0.17
0.14
0.36
0.53
0.71
0.92
1.09
1.15
1.01
0.72
0.39
0.20
0.24
0.49
0.80
1.00
0.97
0.73
0.37
0.05
-0.16
-0.24
-0.27
-0.34
-0.49
-0.71
-0.91
-1.00
-0.92
-0.66
-0.28
0.13
0.44
0.61
0.64
0.59
0.51
0.40
0.25
0.04
-0.22
-0.44
-0.54
-0.45
-0.24
-0.01
0.12
0.11
-0.01
-0.12
-0.13
-0.02
0.16
0.31
0.36
0.34
0.33
0.42
0.63
0.91
1.11
1.13
0.91
0.54
0.14
-0.13
-0.23
-0.20
-0.17
-0.24
-0.44
-0.69
-0.89
-0.96
-0.88
-0.68
-0.42
-0.12
0.17
0.44
0.63
0.73
0.75
0.77
0.84
0.99
1.18
1.33
1.33
1.15
0.82
0.40
-0.02
-0.42
-0.80
-1.17
-1.49
-1.69
-1.71
-1.54
-1.23
-0.89
-0.64
-0.52
-0.50
-0.49
-0.44
-0.34
-0.23
-0.13
-0.06
0.00
0.08
0.19
0.31
0.41
0.49
0.55
0.59
0.61
0.57
0.50
0.42
0.40
0.46
0.58
0.64
0.56
0.29
-0.09
-0.44
-0.62
-0.58
-0.35
-0.05
0.20
0.29
0.21
-0.01
-0.31
-0.60
-0.82
-0.92
-0.88
-0.73
-0.55
-0.39
-0.28
-0.22
-0.16
-0.07
0.07
0.25
0.41
0.52
0.52
0.38
0.13
-0.19
-0.48
-0.67
-0.68
-0.52
-0.23
0.08
0.33
0.43
0.35
0.15
-0.13
-0.40
-0.59
-0.64
-0.53
-0.30
-0.01
0.26
0.45
0.58
0.68
0.78
0.92
1.09
1.23
1.31
1.29
1.18
1.00
0.75
0.47
0.16
-0.11
-0.30
-0.36
-0.28
-0.12
0.06
0.18
0.19
0.08
-0.10
-0.31
-0.50
-0.63
-0.66
-0.59
-0.43
-0.19
0.07
0.26
0.32
0.20
-0.04
-0.30
-0.45
-0.44
-0.31
-0.18
-0.20
-0.42
-0.77
-1.06
-1.14
-0.92
-0.51
-0.09
0.16
0.17
0.04
-0.08
-0.00
0.31
0.76
1.16
1.36
1.27
0.97
0.60
0.30
0.14
0.14
0.23
0.33
0.38
0.36
0.29
0.19
0.12
0.09
0.10
0.12
0.09
-0.01
-0.17
-0.33
-0.45
-0.49
-0.47
-0.39
-0.25
-0.05
0.20
0.46
0.64
0.69
0.58
0.39
0.20
0.08
0.02
-0.05
-0.19
-0.38
-0.54
-0.55
-0.37
-0.05
0.29
0.49
0.48
0.27
-0.04
-0.35
-0.57
-0.70
-0.77
-0.81
-0.85
-0.86
-0.83
-0.74
-0.60
-0.44
-0.31
-0.24
-0.24
-0.24
-0.19
-0.02
0.25
0.62
1.02
1.37
1.61
1.67
1.52
1.22
0.85
0.55
0.39
0.36
0.38
0.35
0.23
0.02
-0.17
-0.28
-0.27
-0.22
-0.21
-0.31
-0.53
-0.82
-1.10
-1.34
-1.55
-1.74
-1.88
-1.92
-1.78
-1.44
-0.93
-0.35
0.20
0.63
0.93
1.10
1.20
1.24
1.25
1.22
1.15
1.05
0.92
0.75
0.54
0.30
0.06
-0.12
-0.21
-0.22
-0.22
-0.30
-0.53
-0.89
-1.26
-1.48
-1.42
-1.08
-0.58
-0.09
0.21
0.29
0.21
0.11
0.10
0.18
0.29
0.36
0.35
0.33
0.38
0.57
0.86
1.15
1.30
1.25
1.01
0.66
0.31
0.02
-0.19
-0.37
-0.55
-0.75
-0.95
-1.09
-1.13
-1.04
-0.85
-0.56
-0.22
0.10
0.33
0.40
0.25
-0.08
-0.50
-0.89
-1.12
-1.12
-0.89
-0.52
-0.12
0.18
0.32
0.31
0.20
0.05
-0.06
-0.11
-0.07
0.06
0.26
0.53
0.83
1.12
1.31
1.32
1.13
0.79
0.38
0.05
-0.15
-0.24
-0.32
-0.46
-0.71
-0.99
-1.18
-1.18
-0.96
-0.53
0.00
0.54
0.99
1.27
1.34
1.15
0.75
0.24
-0.24
-0.55
-0.59
-0.35
0.11
0.67
1.21
1.62
1.83
1.81
1.60
1.29
0.95
0.67
0.48
0.37
0.29
0.22
0.15
0.11
0.13
0.16
0.15
0.01
-0.24
-0.57
-0.87
-1.04
-1.03
-0.86
-0.63
-0.44
-0.36
-0.42
-0.54
-0.64
-0.61
-0.40
-0.06
0.31
0.58
0.67
0.61
0.50
0.46
0.55
0.70
0.79
0.71
0.46
0.14
-0.10
-0.14
0.01
0.24
0.39
0.36
0.12
-0.27
-0.71
-1.11
-1.37
-1.45
-1.33
-1.02
-0.64
-0.32
-0.20
-0.33
-0.66
-1.06
-1.36
-1.43
-1.25
-0.89
-0.47
-0.14
0.00
-0.04
-0.19
-0.32
-0.31
-0.13
0.14
0.39
0.52
0.53
0.47
0.46
0.54
0.67
0.78
0.80
0.76
0.74
0.81
1.00
1.23
1.36
1.27
0.92
0.36
-0.29
-0.89
-1.31
-1.51
-1.47
-1.25
-0.92
-0.57
-0.26
-0.05
0.03
0.00
-0.11
-0.26
-0.39
-0.47
-0.47
-0.39
-0.26
-0.13
-0.02
0.02
0.01
-0.02
-0.03
0.03
0.19
0.45
0.77
1.10
1.36
1.47
1.38
1.11
0.72
0.30
-0.02
-0.17
-0.11
0.09
0.34
0.54
0.61
0.57
0.43
0.24
0.03
-0.19
-0.41
-0.60
-0.71
-0.71
-0.63
-0.50
-0.39
-0.32
-0.31
-0.33
-0.32
-0.24
-0.09
0.10
0.31
0.50
0.61
0.63
0.56
0.43
0.31
0.26
0.33
0.47
0.59
0.61
0.48
0.21
-0.09
-0.32
-0.42
-0.39
-0.28
-0.16
-0.06
0.00
0.05
0.07
0.03
-0.09
-0.27
-0.47
-0.61
-0.67
-0.64
-0.55
-0.40
-0.17
0.15
0.53
0.89
1.13
1.17
1.01
0.70
0.37
0.09
-0.09
-0.19
-0.24
-0.26
-0.26
-0.25
-0.26
-0.30
-0.35
-0.37
-0.32
-0.19
-0.06
-0.04
-0.22
-0.61
-1.06
-1.39
-1.44
-1.19
-0.73
-0.22
0.19
0.45
0.61
0.73
0.85
0.92
0.92
0.82
0.69
0.61
0.66
0.84
1.05
1.20
1.19
1.00
0.71
0.40
0.17
0.04
-0.05
-0.18
-0.37
-0.61
-0.82
-0.93
-0.91
-0.79
-0.61
-0.44
-0.31
-0.26
-0.29
-0.43
-0.65
-0.90
-1.09
-1.14
-1.04
-0.82
-0.57
-0.36
-0.24
-0.21
-0.25
-0.36
-0.52
-0.71
-0.86
-0.90
-0.73
-0.35
0.20
0.75
1.14
1.21
0.94
0.40
-0.22
-0.72
-0.96
-0.91
-0.65
-0.32
-0.05
0.11
0.18
0.20
0.22
0.26
0.29
0.27
0.17
0.01
-0.16
-0.28
-0.30
-0.20
0.03
0.36
0.71
1.03
1.24
1.30
1.19
0.98
0.75
0.60
0.60
0.71
0.87
0.96
0.93
0.80
0.61
0.45
0.34
0.25
0.14
-0.03
-0.26
-0.50
-0.67
-0.72
-0.61
-0.40
-0.19
-0.10
-0.23
-0.59
-1.07
-1.51
-1.73
-1.65
-1.32
-0.87
-0.45
-0.13
0.10
0.26
0.36
0.35
0.14
-0.25
-0.75
-1.16
-1.32
-1.14
-0.66
-0.05
0.51
0.90
1.13
1.24
1.32
1.41
1.49
1.53
1.53
1.52
1.53
1.59
1.67
1.68
1.55
1.26
0.87
0.48
0.21
0.14
0.23
0.40
0.52
0.50
0.31
0.01
-0.31
-0.56
-0.73
-0.84
-0.94
-1.04
-1.09
-1.01
-0.73
-0.27
0.28
0.77
1.06
1.12
0.98
0.73
0.44
0.19
-0.00
-0.12
-0.16
-0.12
-0.03
0.08
0.17
0.24
0.31
0.46
0.72
1.07
1.48
1.86
2.16
2.37
2.50
2.60
2.69
2.74
2.70
2.53
2.21
1.75
1.21
0.69
0.24
-0.12
-0.43
-0.73
-1.09
-1.54
-2.07
-2.59
-3.02
-3.29
-3.36
-3.26
-3.03
-2.73
-2.40
-2.06
-1.70
-1.35
-1.02
-0.75
-0.55
-0.40
-0.26
-0.09
0.06
0.16
0.14
-0.01
-0.25
-0.51
-0.69
-0.77
-0.78
-0.78
-0.82
-0.89
-0.96
-0.97
-0.90
-0.78
-0.68
-0.66
-0.78
-1.01
-1.31
-1.60
-1.82
-1.91
-1.85
-1.62
-1.24
-0.74
-0.21
0.26
0.58
0.71
0.67
0.54
0.41
0.32
0.28
0.26
0.24
0.26
0.38
0.59
0.87
1.10
1.18
1.04
0.76
0.47
0.29
0.29
0.43
0.61
0.71
0.68
0.55
0.39
0.27
0.24
0.27
0.34
0.38
0.39
0.35
0.30
0.27
0.27
0.29
0.33
0.37
0.40
0.40
0.38
0.34
0.31
0.30
0.31
0.34
0.36
0.34
0.25
0.10
-0.07
-0.22
-0.34
-0.45
-0.55
-0.67
-0.76
-0.78
-0.70
-0.55
-0.40
-0.32
-0.34
-0.43
-0.51
-0.52
-0.47
-0.38
-0.34
-0.35
-0.35
-0.26
0.02
0.44
0.89
1.22
1.33
1.26
1.14
1.09
1.13
1.18
1.09
0.79
0.31
-0.19
-0.52
-0.58
-0.40
-0.13
0.05
-0.00
-0.29
-0.70
-1.10
-1.35
-1.40
-1.28
-1.11
-0.99
-0.97
-1.00
-1.01
-0.93
-0.76
-0.55
-0.37
-0.25
-0.17
-0.08
0.06
0.24
0.42
0.53
0.54
0.45
0.27
0.04
-0.25
-0.57
-0.94
-1.34
-1.76
-2.20
-2.59
-2.83
-2.78
-2.33
-1.43
-0.16
1.27
2.64
3.78
4.58
5.05
5.21
5.05
4.56
3.71
2.60
1.41
0.36
-0.33
-0.58
-0.46
-0.15
0.19
0.44
0.58
0.64
0.70
0.80
0.94
1.10
1.20
1.18
1.00
0.65
0.20
-0.20
-0.36
-0.15
0.48
1.43
2.46
3.28
3.63
3.36
2.43
0.95
-0.91
-2.87
-4.69
-6.09
-6.90
-7.06
-6.67
-5.97
-5.22
-4.65
-4.32
-4.12
-3.87
-3.37
-2.50
-1.26
0.21
1.71
2.99
3.82
4.04
3.59
2.58
1.31
0.16
-0.51
-0.52
0.07
1.00
1.89
2.45
2.55
2.24
1.66
0.91
0.08
-0.83
-1.76
-2.56
-3.03
-2.97
-2.28
-1.03
0.56
2.17
3.50
4.30
4.50
4.18
3.52
2.73
2.00
1.42
1.02
0.79
0.67
0.60
0.51
0.35
0.09
-0.24
-0.59
-0.86
-1.02
-1.03
-0.98
-0.96
-1.07
-1.31
-1.61
-1.78
-1.67
-1.22
-0.49
0.32
0.96
1.24
1.12
0.70
0.18
-0.29
-0.61
-0.79
-0.88
-0.91
-0.89
-0.80
-0.65
-0.49
-0.41
-0.47
-0.69
-1.02
-1.37
-1.63
-1.73
-1.66
-1.41
-1.03
-0.57
-0.11
0.24
0.44
0.49
0.47
0.48
0.61
0.87
1.23
1.59
1.86
1.98
1.90
1.59
1.04
0.31
-0.46
-1.08
-1.39
-1.33
-0.98
-0.51
-0.12
0.06
0.05
-0.08
-0.21
-0.24
-0.14
0.09
0.40
0.72
0.99
1.16
1.24
1.24
1.22
1.20
1.16
1.07
0.89
0.64
0.39
0.29
0.42
0.79
1.31
1.79
2.08
2.10
1.87
1.50
1.13
0.83
0.60
0.35
0.00
-0.50
-1.16
-1.97
-2.91
-3.96
-5.09
-6.17
-7.03
-7.49
-7.45
-6.94
-6.13
-5.21
-4.35
-3.60
-2.92
-2.22
-1.43
-0.57
0.27
1.01
1.56
1.90
2.02
1.97
1.84
1.70
1.62
1.63
1.73
1.90
2.07
2.19
2.22
2.13
1.92
1.61
1.28
0.99
0.82
0.82
0.98
1.24
1.52
1.71
1.76
1.65
1.43
1.15
0.90
0.72
0.62
0.56
0.50
0.40
0.29
0.20
0.16
0.20
0.30
0.42
0.53
0.61
0.67
0.73
0.76
0.73
0.64
0.46
0.23
-0.01
-0.22
-0.39
-0.51
-0.58
-0.59
-0.50
-0.28
0.02
0.32
0.50
0.50
0.37
0.20
0.10
0.13
0.23
0.28
0.21
-0.01
-0.30
-0.54
-0.64
-0.62
-0.55
-0.52
-0.56
-0.62
-0.64
-0.56
-0.35
-0.07
0.24
0.52
0.72
0.85
0.88
0.83
0.71
0.55
0.37
0.19
-0.04
-0.34
-0.70
-1.08
-1.36
-1.46
-1.35
-1.05
-0.66
-0.27
0.06
0.30
0.47
0.57
0.65
0.71
0.79
0.92
1.09
1.24
1.28
1.11
0.73
0.17
-0.43
-0.95
-1.28
-1.41
-1.36
-1.22
-1.09
-1.05
-1.13
-1.28
-1.43
-1.49
-1.42
-1.18
-0.82
-0.40
0.03
0.39
0.61
0.64
0.48
0.20
-0.08
-0.27
-0.32
-0.24
-0.12
-0.01
0.08
0.17
0.30
0.45
0.58
0.63
0.59
0.48
0.36
0.32
0.37
0.50
0.66
0.82
0.96
1.11
1.24
1.36
1.44
1.46
1.40
1.31
1.18
1.04
0.87
0.65
0.38
0.12
-0.10
-0.21
-0.18
-0.05
0.11
0.25
0.32
0.32
0.29
0.24
0.19
0.10
-0.05
-0.28
-0.54
-0.77
-0.88
-0.81
-0.54
-0.12
0.37
0.80
1.09
1.15
0.98
0.63
0.21
-0.19
-0.52
-0.79
-1.05
-1.33
-1.65
-1.93
-2.07
-2.00
-1.71
-1.30
-0.91
-0.67
-0.61
-0.69
-0.80
-0.87
-0.88
-0.88
-0.95
-1.11
-1.31
-1.44
-1.44
-1.29
-1.08
-0.96
-1.07
-1.47
-2.14
-2.98
-3.78
-4.35
-4.56
-4.38
-3.99
-3.70
-3.86
-4.64
-5.98
-7.54
-8.87
-9.66
-9.92
-9.98
-10.38
-11.54
-13.56
-16.15
-18.79
-20.96
-22.46
-23.48
-24.45
-25.88
-27.98
-30.67
-33.67
-36.78
-40.07
-43.75
-47.86
-51.92
-55.16
-56.90
-57.25
-57.35
-58.71
-62.09
-66.47
-68.98
-66.12
-55.56
-37.51
-14.78
8.61
29.31
45.72
57.82
65.99
69.93
68.62
61.33
48.77
33.62
19.59
9.63
4.42
2.10
-0.50
-5.98
-14.84
-25.36
-34.63
-40.20
-41.32
-39.04
-35.54
-33.17
-33.80
-38.55
-47.70
-60.34
-74.15
-85.40
-89.84
-84.08
-67.10
-40.84
-9.54
21.91
49.70
72.03
89.04
101.79
111.35
118.27
122.63
124.51
124.28
122.65
120.38
117.76
114.31
108.92
100.35
88.07
72.84
56.59
41.73
30.06
22.04
16.79
12.76
8.65
4.10
-0.42
-4.09
-6.43
-7.56
-7.97
-8.17
-8.36
-8.52
-8.57
-8.62
-8.90
-9.64
-10.81
-12.06
-12.85
-12.77
-11.72
-9.99
-8.16
-6.79
-6.18
-6.28
-6.80
-7.39
-7.78
-7.80
-7.30
-6.19
-4.41
-2.03
0.71
3.36
5.48
6.76
7.18
6.97
6.50
6.06
5.70
5.33
4.80
4.06
3.21
2.46
2.04
2.02
2.33
2.77
3.11
3.17
2.90
2.39
1.75
1.15
0.66
0.32
0.13
0.08
0.18
0.44
0.87
1.40
2.01
2.64
3.26
3.72
3.76
3.08
1.49
-0.87
-3.59
-6.17
-8.31
-10.04
-11.70
-13.61
-15.79
-17.95
-19.58
-20.41
-20.57
-20.59
-21.10
-22.39
-24.22
-25.95
-26.88
-26.72
-25.71
-24.58
-24.17
-24.95
-26.87
-29.24
-31.14
-31.77
-30.84
-28.68
-26.01
-23.58
-21.83
-20.72
-19.84
-18.44
-15.63
-10.37
-1.62
11.39
28.71
49.35
71.17
91.17
106.32
114.35
114.46
107.59
95.89
82.06
68.31
55.92
45.05
35.20
25.73
16.42
7.53
-0.30
-6.44
-10.56
-12.73
-13.26
-12.53
-10.89
-8.70
-6.48
-4.87
-4.47
-5.64
-8.34
-12.07
-16.05
-19.44
-21.63
-22.34
-21.73
-20.22
-18.42
-16.85
-15.85
-15.49
-15.54
-15.55
-15.05
-13.71
-11.48
-8.67
-5.77
-3.28
-1.47
-0.28
0.51
1.13
1.62
1.87
1.75
1.28
0.75
0.53
0.83
1.52
2.20
2.36
1.79
0.67
-0.53
-1.31
-1.50
-1.25
-0.95
-0.86
-1.01
-1.19
-1.19
-0.94
-0.62
-0.47
-0.67
-1.23
-2.01
-2.87
-3.76
-4.71
-5.75
-6.80
-7.68
-8.18
-8.25
-7.91
-7.28
-6.44
-5.43
-4.27
-3.07
-2.06
-1.51
-1.63
-2.41
-3.59
-4.80
-5.74
-6.24
-6.32
-6.06
-5.50
-4.63
-3.47
-2.16
-0.93
-0.05
0.35
0.27
-0.07
-0.45
-0.71
-0.81
-0.76
-0.55
-0.09
0.69
1.76
2.91
3.81
4.13
3.74
2.79
1.64
0.76
0.46
0.83
1.67
2.61
3.24
3.26
2.60
1.43
0.06
-1.11
-1.81
-1.93
-1.54
-0.91
-0.33
-0.06
-0.23
-0.76
-1.40
-1.79
-1.61
-0.69
0.88
2.73
4.37
5.36
5.51
4.92
3.88
2.73
1.73
0.96
0.41
0.07
-0.07
0.02
0.34
0.82
1.33
1.70
1.80
1.60
1.16
0.62
0.11
-0.27
-0.51
-0.59
-0.42
0.16
1.32
3.05
5.05
6.77
7.59
7.18
5.68
3.66
1.82
0.67
0.33
0.57
1.02
1.45
1.82
2.13
2.36
2.39
2.05
1.32
0.38
-0.45
-0.88
-0.78
-0.25
0.47
1.13
1.62
1.95
2.24
2.65
3.28
4.19
5.34
6.56
7.58
8.01
7.52
5.92
3.32
0.10
-3.21
-6.04
-8.04
-9.07
-9.24
-8.80
-8.03
-7.17
-6.37
-5.70
-5.14
-4.64
-4.14
-3.72
-3.58
-4.02
-5.28
-7.36
-9.95
-12.55
-14.69
-16.17
-17.15
-17.93
-18.76
-19.57
-19.96
-19.40
-17.41
-13.70
-8.28
-1.43
6.28
14.10
21.10
26.41
29.42
29.94
28.34
25.42
22.17
19.46
17.78
17.13
17.08
16.98
16.21
14.42
11.60
7.98
3.87
-0.50
-4.97
-9.36
-13.39
-16.74
-19.13
-20.42
-20.62
-19.87
-18.38
-16.44
-14.36
-12.42
-10.69
-8.98
-6.82
-3.83
0.08
4.44
8.46
11.36
12.80
13.07
12.82
12.68
12.85
13.10
12.92
11.93
10.16
7.97
5.88
4.27
3.20
2.50
1.88
1.13
0.25
-0.59
-1.17
-1.39
-1.29
-1.06
-0.94
-1.10
-1.57
-2.18
-2.73
-3.02
-3.00
-2.76
-2.46
-2.27
-2.27
-2.42
-2.61
-2.70
-2.65
-2.49
-2.30
-2.17
-2.14
-2.16
-2.17
-2.11
-2.00
-1.88
-1.83
-1.86
-1.95
-2.03
-2.02
-1.86
-1.59
-1.28
-1.02
-0.89
-0.91
-1.07
-1.30
-1.53
-1.68
-1.72
-1.65
-1.48
-1.26
-0.99
-0.71
-0.44
-0.21
-0.07
-0.02
-0.05
-0.09
-0.09
-0.03
0.06
0.11
0.07
-0.05
-0.18
-0.19
-0.05
0.24
0.52
0.63
0.45
-0.02
-0.62
-1.13
-1.34
-1.18
-0.77
-0.35
-0.17
-0.30
-0.65
-0.98
-1.06
-0.82
-0.35
0.13
0.40
0.38
0.18
-0.04
-0.11
-0.01
0.17
0.30
0.31
0.26
0.26
0.42
0.75
1.17
1.52
1.67
1.58
1.29
0.94
0.65
0.53
0.61
0.80
1.01
1.12
1.08
0.87
0.55
0.20
-0.12
-0.41
-0.66
-0.86
-0.98
-1.02
-0.97
-0.88
-0.80
-0.78
-0.81
-0.84
-0.83
-0.76
-0.62
-0.44
-0.20
0.07
0.36
0.62
0.78
0.79
0.64
0.38
0.11
-0.08
-0.20
-0.27
-0.37
-0.54
-0.72
-0.82
-0.75
-0.49
-0.13
0.20
0.38
0.35
0.13
-0.19
-0.56
-0.93
-1.27
-1.53
-1.60
-1.40
-0.92
-0.23
0.48
1.02
1.27
1.20
0.90
0.49
0.07
-0.25
-0.43
-0.46
-0.36
-0.20
-0.06
-0.01
-0.09
-0.29
-0.55
-0.83
-1.08
-1.22
-1.20
-0.95
-0.49
0.12
0.72
1.14
1.31
1.25
1.07
0.95
0.96
1.09
1.23
1.28
1.20
1.03
0.88
0.84
0.91
1.03
1.12
1.09
0.95
0.73
0.50
0.30
0.18
0.16
0.22
0.32
0.39
0.37
0.23
0.01
-0.22
-0.40
-0.46
-0.40
-0.23
0.04
0.37
0.73
1.06
1.31
1.44
1.44
1.34
1.18
0.94
0.60
0.10
-0.53
-1.22
-1.86
-2.35
-2.66
-2.80
-2.79
-2.64
-2.33
-1.86
-1.27
-0.67
-0.17
0.13
0.25
0.27
0.30
0.43
0.71
1.09
1.46
1.74
1.86
1.77
1.52
1.18
0.82
0.50
0.26
0.08
-0.06
-0.17
-0.25
-0.33
-0.40
-0.49
-0.62
-0.79
-0.91
-0.90
-0.67
-0.17
0.51
1.21
1.73
1.93
1.73
1.20
0.50
-0.21
-0.78
-1.14
-1.29
-1.24
-1.04
-0.73
-0.39
-0.11
0.02
-0.04
-0.24
-0.45
-0.53
-0.38
-0.01
0.48
0.95
1.30
1.47
1.46
1.30
0.99
0.59
0.12
-0.32
-0.66
-0.86
-0.94
-0.95
-0.97
-1.05
-1.15
-1.21
-1.12
-0.83
-0.37
0.17
0.64
0.88
0.81
0.46
-0.05
-0.52
-0.78
-0.72
-0.37
0.16
0.72
1.17
1.42
1.48
1.38
1.21
1.02
0.89
0.82
0.79
0.77
0.70
0.53
0.25
-0.08
-0.38
-0.55
-0.55
-0.40
-0.18
-0.01
0.06
0.04
0.01
0.01
0.05
0.05
-0.08
-0.37
-0.77
-1.14
-1.33
-1.28
-1.04
-0.74
-0.53
-0.51
-0.68
-0.94
-1.19
-1.30
-1.23
-0.99
-0.66
-0.34
-0.09
0.04
0.06
-0.01
-0.10
-0.15
-0.12
0.01
0.17
0.30
0.35
0.33
0.30
0.36
0.55
0.85
1.15
1.37
1.45
1.40
1.25
1.05
0.78
0.48
0.17
-0.10
-0.26
-0.32
-0.33
-0.34
-0.42
-0.54
-0.63
-0.62
-0.49
-0.27
-0.02
0.23
0.51
0.83
1.20
1.53
1.69
1.55
1.10
0.44
-0.24
-0.76
-1.01
-1.02
-0.91
-0.80
-0.76
-0.79
-0.83
-0.81
-0.73
-0.62
-0.53
-0.50
-0.51
-0.54
-0.58
-0.62
-0.65
-0.69
-0.75
-0.81
-0.86
-0.89
-0.88
-0.85
-0.79
-0.75
-0.76
-0.84
-0.94
-1.01
-0.96
-0.73
-0.30
0.25
0.85
1.39
1.82
2.08
2.17
2.08
1.86
1.58
1.34
1.22
1.20
1.22
1.15
0.94
0.61
0.23
-0.09
-0.30
-0.41
-0.42
-0.34
-0.16
0.14
0.48
0.76
0.81
0.56
0.03
-0.63
-1.24
-1.66
-1.83
-1.77
-1.52
-1.14
-0.67
-0.17
0.31
0.72
1.01
1.19
1.29
1.33
1.30
1.20
1.04
0.86
0.71
0.63
0.58
0.48
0.28
-0.04
-0.40
-0.69
-0.81
-0.76
-0.63
-0.53
-0.52
-0.60
-0.70
-0.72
-0.64
-0.50
-0.37
-0.33
-0.40
-0.53
-0.64
-0.63
-0.47
-0.19
0.14
0.43
0.66
0.81
0.89
0.90
0.83
0.65
0.37
0.04
-0.23
-0.38
-0.37
-0.26
-0.14
-0.12
-0.21
-0.37
-0.54
-0.61
-0.58
-0.47
-0.35
-0.30
-0.40
-0.65
-0.98
-1.24
-1.31
-1.10
-0.67
-0.16
0.26
0.47
0.47
0.39
0.33
0.37
0.48
0.58
0.57
0.43
0.19
-0.06
-0.24
-0.30
-0.26
-0.17
-0.07
0.01
0.09
0.20
0.34
0.49
0.59
0.58
0.47
0.29
0.14
0.07
0.06
0.07
0.03
-0.07
-0.16
-0.18
-0.09
0.09
0.29
0.45
0.54
0.58
0.59
0.62
0.68
0.77
0.91
1.09
1.28
1.41
1.42
1.27
0.97
0.57
0.14
-0.25
-0.54
-0.68
-0.65
-0.50
-0.29
-0.11
-0.03
-0.08
-0.22
-0.40
-0.57
-0.72
-0.89
-1.11
-1.36
-1.58
-1.68
-1.62
-1.40
-1.11
-0.84
-0.69
-0.67
-0.75
-0.84
-0.86
-0.78
-0.60
-0.36
-0.11
0.11
0.26
0.36
0.43
0.50
0.56
0.61
0.62
0.55
0.39
0.18
-0.02
-0.13
-0.12
-0.02
0.08
0.08
-0.09
-0.42
-0.83
-1.22
-1.48
-1.60
-1.54
-1.31
-0.93
-0.40
0.23
0.89
1.50
2.01
2.44
2.85
3.31
3.84
4.45
5.09
5.68
6.13
6.41
6.46
6.26
5.82
5.15
4.25
3.16
1.96
0.75
-0.30
-1.09
-1.54
-1.70
-1.64
-1.46
-1.20
-0.86
-0.45
-0.02
0.33
0.47
0.32
-0.13
-0.78
-1.49
-2.13
-2.59
-2.84
-2.90
-2.82
-2.68
-2.52
-2.38
-2.24
-2.11
-1.96
-1.83
-1.76
-1.78
-1.93
-2.21
-2.55
-2.87
-3.09
-3.16
-3.03
-2.72
-2.29
-1.82
-1.39
-1.05
-0.83
-0.70
-0.62
-0.56
-0.49
-0.38
-0.25
-0.09
0.05
0.15
0.19
0.19
0.14
0.06
-0.07
-0.30
-0.61
-0.96
-1.24
-1.38
-1.33
-1.11
-0.79
-0.39
0.05
0.48
0.83
1.03
1.03
0.90
0.78
0.83
1.09
1.49
1.80
1.85
1.56
1.02
0.40
-0.12
-0.44
-0.57
-0.52
-0.34
-0.05
0.29
0.62
0.86
0.97
1.00
1.01
1.12
1.34
1.63
1.88
1.96
1.79
1.40
0.91
0.45
0.12
-0.03
-0.06
-0.09
-0.22
-0.50
-0.89
-1.27
-1.52
-1.58
-1.43
-1.15
-0.80
-0.44
-0.11
0.14
0.26
0.20
-0.07
-0.49
-0.95
-1.31
-1.46
-1.36
-1.08
-0.73
-0.41
-0.16
0.05
0.27
0.54
0.82
1.04
1.19
1.27
1.35
1.48
1.67
1.85
1.94
1.91
1.78
1.68
1.73
1.96
2.30
2.61
2.72
2.51
1.97
1.17
0.20
-0.81
-1.78
-2.64
-3.40
-4.04
-4.54
-4.85
-4.96
-4.82
-4.49
-4.02
-3.51
-3.03
-2.63
-2.31
-2.01
-1.69
-1.28
-0.78
-0.17
0.49
1.19
1.89
2.56
3.15
3.59
3.79
3.70
3.29
2.63
1.81
0.98
0.25
-0.28
-0.55
-0.58
-0.43
-0.22
-0.06
-0.00
-0.05
-0.14
-0.19
-0.17
-0.11
-0.07
-0.07
-0.05
0.04
0.26
0.56
0.81
0.85
0.59
0.03
-0.71
-1.48
-2.17
-2.76
-3.25
-3.66
-3.95
-4.05
-3.85
-3.31
-2.47
-1.42
-0.29
0.78
1.69
2.35
2.68
2.69
2.45
2.11
1.83
1.72
1.81
1.98
2.07
1.95
1.55
0.91
0.16
-0.54
-1.07
-1.32
-1.27
-0.94
-0.45
0.07
0.44
0.59
0.53
0.38
0.27
0.31
0.50
0.81
1.14
1.44
1.68
1.89
2.04
2.08
1.93
1.58
1.06
0.50
0.05
-0.18
-0.18
-0.05
0.08
0.10
-0.02
-0.23
-0.45
-0.60
-0.68
-0.69
-0.66
-0.61
-0.54
-0.42
-0.28
-0.15
-0.06
-0.02
-0.04
-0.09
-0.15
-0.23
-0.31
-0.36
-0.32
-0.19
-0.01
0.13
0.11
-0.09
-0.40
-0.66
-0.72
-0.53
-0.14
0.28
0.57
0.65
0.53
0.29
0.04
-0.15
-0.25
-0.26
-0.20
-0.05
0.18
0.44
0.63
0.66
0.46
0.08
-0.37
-0.72
-0.85
-0.74
-0.45
-0.10
0.20
0.40
0.43
0.31
0.03
-0.33
-0.67
-0.89
-0.94
-0.84
-0.71
-0.62
-0.63
-0.69
-0.73
-0.69
-0.61
-0.54
-0.53
-0.58
-0.61
-0.55
-0.35
-0.05
0.26
0.51
0.64
0.64
0.58
0.50
0.49
0.61
0.88
1.28
1.70
2.00
2.01
1.67
1.03
0.25
-0.44
-0.88
-1.01
-0.90
-0.69
-0.48
-0.33
-0.20
-0.04
0.13
0.27
0.30
0.20
0.03
-0.08
-0.06
0.12
0.39
0.59
0.65
0.55
0.39
0.26
0.23
0.27
0.30
0.25
0.07
-0.21
-0.53
-0.83
-1.09
-1.31
-1.48
-1.61
-1.67
-1.67
-1.61
-1.51
-1.38
-1.22
-1.05
-0.90
-0.80
-0.77
-0.78
-0.78
-0.70
-0.52
-0.30
-0.14
-0.09
-0.17
-0.27
-0.27
-0.05
0.39
0.96
1.50
1.88
2.05
2.05
1.93
1.80
1.68
1.54
1.36
1.11
0.83
0.56
0.38
0.28
0.22
0.14
-0.01
-0.24
-0.48
-0.66
-0.66
-0.44
-0.03
0.45
0.85
1.03
0.93
0.62
0.21
-0.14
-0.31
-0.29
-0.16
-0.04
-0.07
-0.26
-0.59
-0.96
-1.28
-1.49
-1.59
-1.56
-1.41
-1.11
-0.69
-0.19
0.30
0.67
0.87
0.92
0.88
0.86
0.89
0.96
1.00
0.97
0.85
0.70
0.58
0.52
0.53
0.53
0.48
0.34
0.13
-0.07
-0.21
-0.28
-0.30
-0.33
-0.40
-0.52
-0.64
-0.73
-0.77
-0.78
-0.78
-0.78
-0.76
-0.67
-0.51
-0.28
-0.05
0.10
0.17
0.21
0.29
0.48
0.78
1.09
1.28
1.25
0.99
0.63
0.29
0.08
-0.01
-0.08
-0.24
-0.51
-0.82
-1.02
-0.98
-0.70
-0.26
0.16
0.43
0.49
0.39
0.26
0.19
0.20
0.23
0.19
0.01
-0.29
-0.64
-0.93
-1.06
-1.02
-0.85
-0.65
-0.54
-0.52
-0.55
-0.52
-0.38
-0.12
0.17
0.38
0.43
0.33
0.17
0.05
0.07
0.20
0.42
0.63
0.81
0.96
1.09
1.23
1.37
1.44
1.39
1.17
0.78
0.29
-0.18
-0.55
-0.76
-0.82
-0.77
-0.68
-0.57
-0.42
-0.23
-0.02
0.16
0.22
0.11
-0.16
-0.45
-0.63
-0.58
-0.30
0.11
0.46
0.57
0.36
-0.13
-0.78
-1.40
-1.83
-1.98
-1.84
-1.48
-1.00
-0.51
-0.12
0.14
0.25
0.22
0.11
-0.06
-0.26
-0.45
-0.59
-0.63
-0.55
-0.35
-0.05
0.26
0.49
0.60
0.58
0.50
0.41
0.38
0.39
0.40
0.32
0.14
-0.10
-0.29
-0.32
-0.17
0.09
0.34
0.43
0.33
0.10
-0.12
-0.20
-0.11
0.10
0.33
0.50
0.62
0.76
0.97
1.25
1.51
1.63
1.54
1.25
0.87
0.56
0.45
0.56
0.84
1.13
1.30
1.26
0.99
0.56
0.07
-0.37
-0.70
-0.89
-0.92
-0.82
-0.65
-0.47
-0.37
-0.41
-0.63
-1.01
-1.50
-2.01
-2.40
-2.58
-2.46
-1.96
-1.12
-0.13
0.79
1.38
1.50
1.17
0.60
0.03
-0.36
-0.50
-0.44
-0.29
-0.15
-0.06
-0.01
0.02
0.02
0.02
0.02
0.03
0.05
0.08
0.08
0.05
-0.01
-0.07
-0.12
-0.16
-0.22
-0.29
-0.37
-0.42
-0.38
-0.23
0.03
0.32
0.59
0.76
0.81
0.78
0.72
0.71
0.78
0.91
1.02
1.00
0.78
0.36
-0.18
-0.67
-1.00
-1.09
-0.96
-0.73
-0.48
-0.29
-0.17
-0.07
0.06
0.25
0.49
0.70
0.81
0.75
0.53
0.20
-0.13
-0.35
-0.40
-0.28
-0.05
0.21
0.44
0.62
0.73
0.78
0.74
0.61
0.39
0.12
-0.12
-0.27
-0.33
-0.36
-0.41
-0.50
-0.58
-0.56
-0.37
-0.01
0.41
0.74
0.88
0.78
0.48
0.06
-0.39
-0.84
-1.23
-1.51
-1.61
-1.51
-1.23
-0.90
-0.63
-0.48
-0.41
-0.30
-0.09
0.24
0.58
0.78
0.79
0.66
0.54
0.55
0.74
1.01
1.22
1.24
1.05
0.67
0.21
-0.25
-0.64
-0.89
-0.98
-0.90
-0.71
-0.45
-0.21
-0.01
0.12
0.18
0.17
0.07
-0.09
-0.25
-0.32
-0.21
0.05
0.36
0.58
0.63
0.49
0.27
0.08
0.00
0.03
0.11
0.15
0.11
0.01
-0.12
-0.25
-0.36
-0.48
-0.62
-0.79
-0.95
-1.07
-1.06
-0.88
-0.53
-0.06
0.39
0.70
0.77
0.60
0.27
-0.03
-0.15
-0.02
0.30
0.65
0.88
0.89
0.73
0.49
0.29
0.16
0.08
0.01
-0.07
-0.13
-0.10
0.04
0.25
0.43
0.49
0.40
0.20
-0.01
-0.14
-0.15
-0.07
0.03
0.11
0.13
0.11
0.08
0.07
0.10
0.14
0.16
0.13
0.07
0.03
0.08
0.26
0.53
0.78
0.87
0.74
0.38
-0.09
-0.53
-0.81
-0.86
-0.69
-0.39
-0.09
0.13
0.20
0.13
-0.05
-0.25
-0.44
-0.58
-0.69
-0.75
-0.75
-0.63
-0.41
-0.15
0.08
0.15
0.05
-0.20
-0.49
-0.69
-0.72
-0.59
-0.39
-0.21
-0.13
-0.15
-0.19
-0.19
-0.11
0.01
0.09
0.07
-0.09
-0.30
-0.48
-0.53
-0.46
-0.35
-0.30
-0.33
-0.39
-0.35
-0.13
0.28
0.73
1.05
1.10
0.87
0.49
0.16
0.02
0.09
0.28
0.46
0.51
0.44
0.30
0.18
0.13
0.14
0.15
0.09
-0.03
-0.18
-0.29
-0.30
-0.22
-0.07
0.13
0.33
0.53
0.69
0.75
0.67
0.44
0.14
-0.09
-0.14
0.05
0.41
0.79
1.02
1.02
0.86
0.69
0.66
0.83
1.11
1.32
1.32
1.03
0.51
-0.09
-0.64
-1.10
-1.47
-1.81
-2.09
-2.26
-2.24
-1.94
-1.39
-0.71
-0.08
0.37
0.57
0.59
0.51
0.43
0.38
0.39
0.45
0.57
0.75
0.97
1.15
1.20
1.07
0.77
0.39
0.06
-0.14
-0.21
-0.20
-0.23
-0.38
-0.65
-1.01
-1.35
-1.59
-1.64
-1.50
-1.18
-0.73
-0.25
0.18
0.48
0.62
0.61
0.50
0.35
0.18
0.03
-0.12
-0.23
-0.30
-0.29
-0.21
-0.12
-0.09
-0.19
-0.42
-0.73
-0.96
-0.99
-0.75
-0.27
0.31
0.83
1.16
1.27
1.23
1.15
1.11
1.14
1.17
1.13
0.98
0.77
0.57
0.44
0.39
0.34
0.20
-0.09
-0.50
-0.92
-1.26
-1.42
-1.40
-1.24
-1.02
-0.84
-0.74
-0.71
-0.73
-0.75
-0.78
-0.78
-0.78
-0.75
-0.66
-0.47
-0.18
0.19
0.54
0.78
0.86
0.78
0.58
0.33
0.08
-0.11
-0.23
-0.23
-0.09
0.20
0.59
0.99
1.31
1.46
1.41
1.24
1.03
0.86
0.72
0.54
0.23
-0.23
-0.77
-1.22
-1.44
-1.39
-1.16
-0.90
-0.76
-0.79
-0.94
-1.11
-1.23
-1.26
-1.23
-1.16
-1.08
-1.02
-0.97
-0.96
-0.95
-0.91
-0.82
-0.63
-0.36
-0.01
0.39
0.81
1.22
1.58
1.85
2.00
2.00
1.87
1.64
1.36
1.06
0.77
0.53
0.38
0.34
0.41
0.53
0.61
0.55
0.31
-0.04
-0.39
-0.59
-0.58
-0.39
-0.17
-0.08
-0.22
-0.56
-0.93
-1.15
-1.13
-0.91
-0.62
-0.42
-0.37
-0.42
-0.46
-0.36
-0.14
0.14
0.34
0.35
0.19
-0.06
-0.26
-0.29
-0.13
0.15
0.41
0.52
0.45
0.29
0.16
0.18
0.36
0.60
0.76
0.75
0.59
0.40
0.29
0.32
0.43
0.49
0.39
0.15
-0.13
-0.29
-0.27
-0.08
0.15
0.30
0.29
0.15
-0.02
-0.12
-0.09
0.06
0.24
0.35
0.36
0.29
0.21
0.18
0.22
0.28
0.28
0.12
-0.19
-0.61
-1.04
-1.39
-1.60
-1.64
-1.49
-1.13
-0.57
0.14
0.87
1.47
1.80
1.82
1.60
1.25
0.88
0.56
0.31
0.11
-0.06
-0.19
-0.25
-0.26
-0.26
-0.30
-0.41
-0.58
-0.73
-0.80
-0.72
-0.50
-0.19
0.10
0.29
0.34
0.29
0.23
0.23
0.35
0.54
0.76
0.94
1.05
1.10
1.13
1.14
1.09
0.96
0.73
0.42
0.11
-0.13
-0.23
-0.19
-0.06
0.10
0.21
0.23
0.18
0.13
0.15
0.31
0.55
0.78
0.86
0.71
0.38
-0.04
-0.40
-0.62
-0.69
-0.67
-0.65
-0.66
-0.67
-0.63
-0.47
-0.23
0.02
0.16
0.13
-0.09
-0.39
-0.62
-0.64
-0.37
0.17
0.87
1.58
2.17
2.54
2.70
2.73
2.73
2.80
2.97
3.18
3.29
3.18
2.78
2.12
1.33
0.55
-0.14
-0.70
-1.15
-1.51
-1.81
-2.04
-2.21
-2.36
-2.55
-2.80
-3.09
-3.33
-3.42
-3.27
-2.88
-2.30
-1.66
-1.11
-0.78
-0.75
-1.05
-1.62
-2.34
-3.01
-3.45
-3.49
-3.08
-2.27
-1.21
-0.13
0.78
1.38
1.64
1.60
1.37
1.07
0.80
0.67
0.75
1.08
1.67
2.46
3.34
4.19
4.88
5.29
5.39
5.17
4.75
4.32
4.10
4.22
4.73
5.50
6.29
6.87
7.15
7.18
7.24
7.64
8.66
10.43
12.86
15.69
18.55
21.09
23.13
24.77
26.48
29.00
33.11
39.20
47.02
55.56
63.45
69.46
73.16
75.08
76.50
78.93
83.74
91.93
104.23
120.97
141.70
164.69
186.79
203.91
212.27
209.64
196.12
173.98
146.56
116.88
86.89
57.14
27.28
-3.45
-35.94
-71.59
-112.59
-161.62
-220.43
-287.92
-358.79
-423.88
-472.60
-496.71
-493.55
-466.97
-425.60
-379.15
-334.80
-295.46
-260.26
-226.67
-192.52
-156.71
-118.82
-78.42
-35.05
10.91
57.17
99.50
132.91
153.46
160.17
155.47
144.17
131.50
121.18
114.53
110.74
108.03
104.78
100.23
94.44
87.92
81.18
74.62
68.47
62.86
57.96
53.89
50.70
48.22
46.11
43.96
41.48
38.64
35.67
32.98
30.90
29.51
28.52
27.43
25.67
22.95
19.33
15.28
11.48
8.51
6.73
6.10
6.30
6.88
7.40
7.58
7.30
6.61
5.63
4.49
3.29
2.08
0.86
-0.35
-1.46
-2.38
-3.03
-3.43
-3.69
-4.01
-4.54
-5.29
-6.15
-6.95
-7.58
-8.08
-8.54
-9.03
-9.50
-9.74
-9.53
-8.77
-7.52
-6.03
-4.54
-3.22
-2.11
-1.16
-0.27
0.63
1.67
3.01
4.78
7.00
9.41
11.51
12.75
12.73
11.48
9.39
7.09
5.19
4.02
3.65
3.88
4.46
5.20
6.01
6.86
7.73
8.56
9.23
9.57
9.41
8.63
7.26
5.44
3.39
1.35
-0.53
-2.22
-3.73
-5.10
-6.30
-7.27
-7.94
-8.25
-8.23
-7.91
-7.39
-6.73
-5.98
-5.22
-4.50
-3.87
-3.31
-2.82
-2.31
-1.78
-1.22
-0.68
-0.22
0.11
0.28
0.29
0.13
-0.16
-0.55
-0.97
-1.37
-1.68
-1.85
-1.88
-1.77
-1.53
-1.19
-0.80
-0.43
-0.16
-0.04
-0.08
-0.21
-0.34
-0.40
-0.37
-0.31
-0.29
-0.37
-0.53
-0.69
-0.73
-0.60
-0.32
0.03
0.36
0.56
0.64
0.63
0.61
0.63
0.71
0.80
0.88
0.90
0.87
0.78
0.64
0.45
0.19
-0.10
-0.38
-0.55
-0.55
-0.36
-0.03
0.31
0.54
0.57
0.44
0.25
0.11
0.08
0.12
0.16
0.10
-0.07
-0.28
-0.44
-0.53
-0.57
-0.63
-0.76
-0.90
-0.92
-0.72
-0.29
0.23
0.65
0.82
0.72
0.51
0.33
0.29
0.36
0.42
0.36
0.18
-0.00
-0.07
0.04
0.28
0.49
0.54
0.36
-0.01
-0.44
-0.80
-1.04
-1.15
-1.16
-1.10
-0.98
-0.82
-0.62
-0.39
-0.14
0.12
0.37
0.61
0.78
0.85
0.81
0.68
0.51
0.36
0.27
0.24
0.26
0.26
0.23
0.16
0.05
-0.03
-0.06
-0.03
0.04
0.09
0.05
-0.07
-0.23
-0.34
-0.34
-0.21
-0.01
0.16
0.20
0.06
-0.20
-0.51
-0.75
-0.84
-0.72
-0.42
-0.04
0.34
0.62
0.77
0.79
0.73
0.65
0.56
0.49
0.46
0.52
0.69
0.92
1.08
1.04
0.68
0.05
-0.66
-1.27
-1.60
-1.69
-1.64
-1.59
-1.61
-1.64
-1.59
-1.37
-1.00
-0.56
-0.16
0.11
0.26
0.32
0.33
0.34
0.33
0.32
0.29
0.24
0.17
0.08
-0.01
-0.07
-0.07
0.01
0.14
0.26
0.27
0.14
-0.15
-0.54
-0.92
-1.17
-1.20
-1.03
-0.72
-0.40
-0.16
-0.09
-0.16
-0.31
-0.48
-0.59
-0.63
-0.60
-0.56
-0.54
-0.53
-0.53
-0.53
-0.53
-0.55
-0.57
-0.56
-0.50
-0.37
-0.21
-0.10
-0.12
-0.33
-0.69
-1.07
-1.34
-1.37
-1.14
-0.70
-0.18
0.28
0.62
0.80
0.85
0.81
0.71
0.54
0.32
0.05
-0.26
-0.58
-0.87
-1.07
-1.12
-0.93
-0.48
0.23
1.08
1.91
2.53
2.78
2.65
2.21
1.62
1.02
0.52
0.16
-0.04
-0.11
-0.05
0.10
0.28
0.36
0.27
-0.07
-0.63
-1.27
-1.81
-2.05
-1.88
-1.29
-0.41
0.53
1.31
1.79
1.96
1.89
1.74
1.57
1.43
1.27
1.08
0.87
0.71
0.64
0.65
0.64
0.52
0.25
-0.11
-0.43
-0.60
-0.55
-0.31
0.05
0.41
0.72
0.97
1.15
1.26
1.30
1.21
1.02
0.76
0.53
0.40
0.40
0.45
0.41
0.18
-0.23
-0.71
-1.09
-1.26
-1.23
-1.11
-1.07
-1.21
-1.52
-1.87
-2.11
-2.15
-1.97
-1.65
-1.29
-0.92
-0.55
-0.15
0.28
0.71
1.06
1.26
1.24
1.06
0.80
0.57
0.44
0.41
0.43
0.45
0.48
0.56
0.72
0.94
1.10
1.08
0.81
0.37
-0.08
-0.34
-0.35
-0.17
0.02
0.02
-0.20
-0.57
-0.91
-1.03
-0.88
-0.52
-0.11
0.21
0.34
0.29
0.12
-0.07
-0.24
-0.34
-0.38
-0.38
-0.34
-0.27
-0.13
0.09
0.38
0.73
1.11
1.45
1.72
1.87
1.85
1.65
1.30
0.86
0.44
0.16
0.08
0.17
0.33
0.41
0.32
0.04
-0.34
-0.69
-0.88
-0.87
-0.70
-0.46
-0.27
-0.17
-0.15
-0.17
-0.20
-0.21
-0.17
-0.08
0.04
0.17
0.28
0.32
0.25
0.03
-0.32
-0.77
-1.26
-1.68
-1.96
-2.05
-1.91
-1.57
-1.10
-0.61
-0.24
-0.06
-0.09
-0.23
-0.39
-0.46
-0.43
-0.38
-0.38
-0.48
-0.60
-0.57
-0.24
0.44
1.32
2.11
2.50
2.32
1.60
0.59
-0.38
-1.01
-1.19
-0.96
-0.49
0.01
0.40
0.62
0.65
0.54
0.34
0.13
-0.03
-0.11
-0.11
-0.07
-0.04
-0.03
-0.06
-0.11
-0.18
-0.26
-0.32
-0.34
-0.28
-0.17
-0.04
0.02
-0.04
-0.23
-0.50
-0.77
-0.95
-1.00
-0.92
-0.74
-0.50
-0.22
0.05
0.24
0.32
0.29
0.21
0.18
0.25
0.44
0.63
0.70
0.57
0.25
-0.14
-0.46
-0.62
-0.61
-0.45
-0.21
0.11
0.45
0.79
1.05
1.16
1.11
0.94
0.77
0.72
0.83
1.07
1.34
1.56
1.66
1.62
1.43
1.08
0.57
-0.06
-0.75
-1.41
-1.93
-2.26
-2.38
-2.28
-1.99
-1.56
-1.10
-0.73
-0.61
-0.80
-1.28
-1.88
-2.35
-2.49
-2.23
-1.65
-0.95
-0.30
0.18
0.50
0.73
0.94
1.14
1.30
1.38
1.36
1.25
1.07
0.87
0.68
0.53
0.41
0.33
0.27
0.21
0.16
0.12
0.15
0.25
0.41
0.56
0.63
0.56
0.34
0.03
-0.31
-0.59
-0.75
-0.76
-0.61
-0.36
-0.10
0.05
0.01
-0.20
-0.50
-0.77
-0.91
-0.89
-0.75
-0.55
-0.36
-0.15
0.08
0.34
0.54
0.59
0.42
0.04
-0.40
-0.74
-0.84
-0.68
-0.31
0.12
0.48
0.73
0.86
0.93
1.01
1.15
1.33
1.52
1.65
1.68
1.59
1.41
1.20
1.02
0.95
0.97
1.03
1.03
0.86
0.46
-0.15
-0.84
-1.46
-1.85
-1.97
-1.85
-1.60
-1.33
-1.09
-0.87
-0.65
-0.42
-0.22
-0.10
-0.06
-0.07
-0.05
0.04
0.20
0.38
0.51
0.57
0.56
0.53
0.46
0.34
0.13
-0.14
-0.43
-0.66
-0.79
-0.84
-0.88
-0.94
-1.03
-1.09
-1.04
-0.82
-0.44
0.05
0.55
0.98
1.25
1.32
1.17
0.86
0.48
0.14
-0.10
-0.20
-0.18
-0.09
0.06
0.22
0.35
0.41
0.38
0.27
0.14
0.07
0.09
0.19
0.28
0.27
0.14
-0.05
-0.22
-0.27
-0.20
-0.06
0.08
0.16
0.16
0.15
0.15
0.20
0.30
0.40
0.46
0.44
0.36
0.25
0.13
0.03
-0.06
-0.18
-0.35
-0.58
-0.85
-1.12
-1.39
-1.65
-1.93
-2.23
-2.54
-2.76
-2.83
-2.72
-2.46
-2.13
-1.82
-1.58
-1.38
-1.17
-0.91
-0.56
-0.15
0.26
0.60
0.82
0.93
0.97
1.00
1.08
1.23
1.40
1.54
1.60
1.54
1.35
1.06
0.73
0.47
0.40
0.63
1.23
2.11
3.12
4.01
4.58
4.73
4.51
4.05
3.44
2.78
2.07
1.32
0.60
0.02
-0.34
-0.45
-0.41
-0.34
-0.36
-0.48
-0.64
-0.73
-0.66
-0.42
-0.06
0.31
0.62
0.80
0.87
0.83
0.72
0.56
0.32
-0.01
-0.46
-0.97
-1.45
-1.80
-1.96
-1.93
-1.83
-1.78
-1.90
-2.18
-2.53
-2.80
-2.90
-2.78
-2.50
-2.17
-1.86
-1.59
-1.34
-1.05
-0.70
-0.27
0.18
0.60
0.93
1.16
1.27
1.27
1.20
1.09
0.97
0.89
0.85
0.85
0.85
0.80
0.66
0.44
0.21
0.03
-0.04
-0.05
-0.10
-0.25
-0.54
-0.88
-1.14
-1.19
-1.04
-0.76
-0.52
-0.42
-0.46
-0.55
-0.58
-0.49
-0.34
-0.21
-0.23
-0.42
-0.77
-1.19
-1.60
-1.90
-2.05
-2.02
-1.80
-1.42
-0.93
-0.44
-0.11
-0.09
-0.43
-1.05
-1.75
-2.22
-2.19
-1.51
-0.11
1.94
4.50
7.34
10.20
12.78
14.86
16.34
17.31
17.87
18.06
17.74
16.66
14.64
11.71
8.21
4.63
1.36
-1.46
-3.89
-5.99
-7.69
-8.67
-8.60
-7.41
-5.45
-3.43
-2.09
-1.83
-2.51
-3.54
-4.16
-3.82
-2.33
0.07
2.94
5.77
8.14
9.73
10.38
10.01
8.63
6.41
3.62
0.63
-2.17
-4.42
-5.94
-6.75
-7.10
-7.39
-8.03
-9.27
-11.14
-13.43
-15.82
-18.07
-20.11
-22.03
-23.94
-25.85
-27.51
-28.50
-28.33
-26.60
-23.16
-18.08
-11.66
-4.35
3.22
10.31
16.16
20.23
22.42
23.08
22.93
22.68
22.77
23.21
23.69
23.91
23.73
23.24
22.58
21.70
20.27
17.81
13.94
8.66
2.33
-4.49
-11.40
-18.30
-25.35
-32.62
-39.79
-46.00
-50.03
-50.85
-48.09
-42.18
-34.17
-25.21
-16.22
-7.81
-0.46
5.21
8.46
8.83
6.50
2.47
-1.75
-4.83
-6.17
-6.12
-5.57
-5.37
-5.79
-6.50
-6.70
-5.47
-1.98
4.32
13.52
25.14
38.03
50.60
61.21
68.63
72.40
72.70
70.09
65.11
58.10
49.40
39.53
29.37
20.00
12.31
6.62
2.65
-0.29
-2.97
-5.87
-9.02
-12.17
-14.99
-17.31
-19.18
-20.79
-22.28
-23.65
-24.71
-25.31
-25.36
-24.93
-24.15
-23.16
-22.03
-20.78
-19.44
-18.07
-16.70
-15.38
-14.11
-12.90
-11.82
-11.00
-10.56
-10.49
-10.65
-10.76
-10.55
-9.86
-8.74
-7.38
-5.95
-4.60
-3.40
-2.38
-1.60
-1.09
-0.80
-0.56
-0.22
0.29
0.84
1.12
0.91
0.20
-0.69
-1.30
-1.28
-0.59
0.45
1.47
2.24
2.86
3.59
4.67
6.07
7.44
8.29
8.28
7.37
5.90
4.38
3.36
3.14
3.76
4.92
6.14
6.86
6.71
5.52
3.47
0.94
-1.64
-3.92
-5.81
-7.37
-8.73
-9.97
-11.03
-11.78
-12.17
-12.28
-12.29
-12.42
-12.82
-13.47
-14.23
-14.89
-15.21
-15.01
-14.14
-12.54
-10.32
-7.75
-5.18
-2.99
-1.42
-0.46
0.02
0.17
0.06
-0.23
-0.43
-0.15
0.99
3.12
5.91
8.69
10.71
11.62
11.58
11.22
11.21
11.88
13.04
14.09
14.42
13.71
12.09
9.99
7.93
6.22
4.96
4.08
3.43
2.90
2.51
2.30
2.24
2.21
1.99
1.39
0.34
-1.07
-2.64
-4.11
-5.30
-6.07
-6.41
-6.35
-6.00
-5.44
-4.77
-4.04
-3.26
-2.45
-1.67
-1.03
-0.61
-0.44
-0.53
-0.84
-1.37
-2.17
-3.29
-4.65
-6.00
-7.00
-7.29
-6.69
-5.22
-3.04
-0.36
2.65
5.83
8.99
11.85
14.14
15.67
16.44
16.66
16.63
16.60
16.61
16.55
16.24
15.55
14.48
13.16
11.77
10.43
9.15
7.84
6.36
4.62
2.66
0.63
-1.20
-2.61
-3.49
-3.81
-3.65
-3.09
-2.19
-1.00
0.41
1.85
3.13
4.02
4.43
4.39
4.02
3.50
2.92
2.28
1.54
0.65
-0.38
-1.45
-2.45
-3.31
-4.03
-4.66
-5.28
-5.97
-6.77
-7.68
-8.66
-9.61
-10.34
-10.60
-10.17
-8.94
-7.07
-4.96
-3.10
-1.92
-1.56
-1.86
-2.43
-2.91
-3.10
-3.06
-3.00
-3.15
-3.62
-4.36
-5.20
-5.95
-6.45
-6.56
-6.21
-5.35
-3.96
-2.13
-0.01
2.20
4.26
6.00
7.28
8.03
8.22
7.92
7.25
6.39
5.53
4.82
4.30
3.88
3.46
2.91
2.20
1.40
0.64
0.04
-0.34
-0.51
-0.53
-0.47
-0.38
-0.29
-0.24
-0.27
-0.42
-0.70
-1.04
-1.37
-1.62
-1.75
-1.83
-1.90
-2.00
-2.10
-2.13
-2.05
-1.87
-1.63
-1.43
-1.31
-1.25
-1.25
-1.25
-1.27
-1.30
-1.34
-1.35
-1.28
-1.09
-0.78
-0.40
0.02
0.43
0.79
1.08
1.26
1.28
1.11
0.76
0.27
-0.25
-0.67
-0.90
-0.93
-0.78
-0.54
-0.28
-0.06
0.11
0.25
0.36
0.46
0.52
0.54
0.53
0.48
0.40
0.28
0.11
-0.08
-0.25
-0.37
-0.42
-0.43
-0.44
-0.46
-0.49
-0.51
-0.48
-0.37
-0.19
0.06
0.35
0.65
0.91
1.06
1.07
0.89
0.58
0.21
-0.12
-0.32
-0.37
-0.32
-0.27
-0.30
-0.48
-0.78
-1.13
-1.39
-1.48
-1.35
-1.06
-0.66
-0.26
0.09
0.37
0.55
0.62
0.61
0.53
0.43
0.35
0.32
0.31
0.28
0.21
0.11
0.03
0.02
0.10
0.19
0.22
0.10
-0.18
-0.55
-0.90
-1.11
-1.09
-0.86
-0.48
-0.05
0.33
0.58
0.71
0.75
0.72
0.69
0.69
0.73
0.82
0.97
1.16
1.33
1.40
1.29
1.00
0.59
0.17
-0.18
-0.41
-0.54
-0.59
-0.59
-0.54
-0.42
-0.24
-0.03
0.14
0.21
0.16
0.03
-0.11
-0.17
-0.10
0.11
0.42
0.71
0.93
1.01
0.95
0.81
0.63
0.41
0.14
-0.21
-0.61
-1.00
-1.28
-1.36
-1.21
-0.89
-0.48
-0.09
0.22
0.46
0.66
0.85
1.01
1.12
1.13
0.99
0.71
0.34
-0.06
-0.37
-0.54
-0.54
-0.39
-0.19
-0.02
0.07
0.07
0.02
-0.02
-0.01
0.08
0.19
0.28
0.28
0.15
-0.13
-0.52
-0.93
-1.29
-1.50
-1.56
-1.50
-1.39
-1.29
-1.20
-1.09
-0.90
-0.59
-0.20
0.20
0.52
0.72
0.79
0.77
0.72
0.68
0.70
0.78
0.88
0.91
0.79
0.50
0.07
-0.38
-0.72
-0.86
-0.83
-0.73
-0.72
-0.85
-1.12
-1.40
-1.57
-1.56
-1.37
-1.09
-0.77
-0.45
-0.12
0.25
0.67
1.13
1.61
2.05
2.40
2.59
2.58
2.36
1.97
1.51
1.07
0.69
0.38
0.08
-0.25
-0.59
-0.85
-0.93
-0.79
-0.48
-0.13
0.13
0.26
0.30
0.35
0.48
0.69
0.88
0.97
0.91
0.75
0.63
0.63
0.75
0.94
1.07
1.05
0.85
0.52
0.12
-0.30
-0.69
-1.05
-1.33
-1.49
-1.46
-1.25
-0.92
-0.60
-0.40
-0.40
-0.55
-0.74
-0.86
-0.85
-0.75
-0.68
-0.73
-0.87
-1.04
-1.14
-1.10
-0.96
-0.80
-0.69
-0.64
-0.58
-0.39
-0.02
0.48
0.95
1.24
1.23
0.98
0.64
0.38
0.29
0.31
0.31
0.18
-0.12
-0.45
-0.70
-0.76
-0.68
-0.58
-0.57
-0.67
-0.82
-0.96
-1.03
-0.99
-0.85
-0.61
-0.27
0.11
0.45
0.63
0.61
0.42
0.19
0.07
0.12
0.34
0.64
0.89
1.04
1.09
1.04
0.91
0.72
0.49
0.25
0.08
0.03
0.12
0.27
0.36
0.30
0.06
-0.31
-0.69
-0.96
-1.09
-1.09
-1.02
-0.90
-0.74
-0.53
-0.30
-0.13
-0.10
-0.25
-0.52
-0.81
-0.95
-0.85
-0.51
-0.03
0.46
0.86
1.08
1.12
1.02
0.84
0.66
0.54
0.56
0.72
0.98
1.22
1.33
1.21
0.86
0.38
-0.11
-0.49
-0.67
-0.65
-0.45
-0.15
0.14
0.36
0.42
0.33
0.13
-0.09
-0.25
-0.32
-0.32
-0.34
-0.41
-0.55
-0.66
-0.67
-0.53
-0.29
-0.06
0.05
-0.03
-0.29
-0.60
-0.82
-0.83
-0.57
-0.10
0.45
0.89
1.08
0.96
0.58
0.08
-0.38
-0.66
-0.66
-0.42
-0.01
0.43
0.76
0.86
0.71
0.35
-0.08
-0.38
-0.44
-0.20
0.25
0.74
1.09
1.22
1.12
0.88
0.60
0.32
0.07
-0.20
-0.50
-0.80
-1.00
-1.03
-0.88
-0.60
-0.31
-0.12
-0.08
-0.14
-0.22
-0.24
-0.19
-0.10
-0.03
0.01
0.01
0.03
0.09
0.20
0.30
0.35
0.31
0.20
0.02
-0.20
-0.43
-0.62
-0.73
-0.71
-0.53
-0.23
0.13
0.41
0.56
0.54
0.41
0.26
0.15
0.14
0.18
0.22
0.21
0.13
0.03
-0.07
-0.15
-0.23
-0.37
-0.59
-0.84
-1.05
-1.11
-1.00
-0.73
-0.43
-0.21
-0.16
-0.30
-0.59
-0.92
-1.17
-1.27
-1.19
-0.95
-0.59
-0.16
0.28
0.68
0.98
1.12
1.07
0.83
0.43
0.00
-0.34
-0.50
-0.42
-0.16
0.17
0.44
0.58
0.57
0.48
0.42
0.43
0.52
0.61
0.62
0.49
0.28
0.08
-0.01
0.05
0.20
0.35
0.42
0.39
0.28
0.17
0.10
0.09
0.09
0.10
0.09
0.11
0.16
0.28
0.43
0.57
0.65
0.63
0.52
0.36
0.19
0.06
-0.04
-0.13
-0.26
-0.45
-0.65
-0.80
-0.86
-0.82
-0.72
-0.64
-0.59
-0.53
-0.40
-0.15
0.17
0.47
0.59
0.47
0.13
-0.34
-0.82
-1.27
-1.74
-2.26
-2.82
-3.33
-3.61
-3.49
-2.87
-1.80
-0.44
0.98
2.26
3.27
3.99
4.46
4.74
4.81
4.62
4.12
3.33
2.41
1.53
0.86
0.43
0.17
-0.05
-0.31
-0.56
-0.73
-0.76
-0.65
-0.49
-0.38
-0.34
-0.33
-0.24
-0.01
0.34
0.71
0.94
0.90
0.59
0.07
-0.50
-0.95
-1.17
-1.15
-0.96
-0.71
-0.49
-0.30
-0.13
0.09
0.34
0.58
0.69
0.60
0.29
-0.17
-0.63
-0.95
-1.04
-0.89
-0.56
-0.17
0.12
0.23
0.15
-0.04
-0.22
-0.30
-0.28
-0.24
-0.27
-0.42
-0.66
-0.88
-0.95
-0.82
-0.53
-0.18
0.13
0.31
0.39
0.41
0.38
0.31
0.17
-0.05
-0.30
-0.48
-0.50
-0.33
-0.03
0.28
0.46
0.45
0.26
0.01
-0.23
-0.44
-0.65
-0.90
-1.15
-1.30
-1.25
-0.96
-0.48
-0.00
0.32
0.41
0.33
0.20
0.16
0.29
0.54
0.83
1.05
1.13
1.10
1.01
0.93
0.87
0.82
0.74
0.60
0.41
0.21
0.07
-0.01
-0.08
-0.20
-0.41
-0.68
-0.91
-1.02
-1.02
-0.99
-1.03
-1.19
-1.40
-1.53
-1.43
-1.07
-0.52
0.02
0.41
0.56
0.53
0.44
0.38
0.39
0.44
0.44
0.33
0.14
-0.08
-0.21
-0.21
-0.12
-0.06
-0.11
-0.28
-0.50
-0.64
-0.59
-0.34
0.04
0.43
0.76
0.99
1.13
1.21
1.22
1.15
0.95
0.65
0.27
-0.10
-0.43
-0.68
-0.87
-1.02
-1.14
-1.20
-1.19
-1.05
-0.78
-0.42
-0.03
0.29
0.48
0.52
0.47
0.40
0.42
0.57
0.85
1.18
1.46
1.60
1.59
1.46
1.30
1.16
1.07
1.00
0.89
0.72
0.52
0.32
0.18
0.10
0.06
-0.03
-0.22
-0.52
-0.90
-1.25
-1.46
-1.49
-1.33
-1.08
-0.84
-0.69
-0.63
-0.60
-0.53
-0.39
-0.20
-0.03
0.07
0.10
0.07
0.02
-0.05
-0.12
-0.19
-0.24
-0.26
-0.24
-0.19
-0.16
-0.17
-0.23
-0.32
-0.39
-0.41
-0.38
-0.33
-0.30
-0.33
-0.46
-0.67
-0.93
-1.17
-1.32
-1.34
-1.25
-1.08
-0.90
-0.73
-0.52
-0.23
0.14
0.57
0.97
1.24
1.34
1.28
1.12
0.94
0.80
0.75
0.80
0.97
1.19
1.42
1.53
1.44
1.10
0.58
-0.00
-0.46
-0.66
-0.57
-0.26
0.14
0.50
0.73
0.83
0.84
0.84
0.88
0.95
1.04
1.06
0.97
0.72
0.35
-0.06
-0.43
-0.69
-0.83
-0.89
-0.93
-1.00
-1.08
-1.12
-1.10
-1.02
-0.91
-0.81
-0.75
-0.70
-0.63
-0.53
-0.43
-0.34
-0.29
-0.26
-0.23
-0.14
0.01
0.19
0.30
0.27
0.07
-0.25
-0.58
-0.82
-0.89
-0.79
-0.59
-0.38
-0.23
-0.18
-0.20
-0.29
-0.42
-0.60
-0.81
-1.02
-1.14
-1.08
-0.81
-0.34
0.24
0.83
1.33
1.70
1.93
2.05
2.06
1.94
1.70
1.35
0.94
0.56
0.30
0.20
0.23
0.31
0.34
0.25
0.02
-0.32
-0.70
-1.06
-1.34
-1.49
-1.48
-1.31
-0.99
-0.57
-0.11
0.28
0.56
0.70
0.72
0.65
0.52
0.36
0.15
-0.09
-0.31
-0.43
-0.36
-0.07
0.40
0.94
1.41
1.73
1.83
1.73
1.47
1.08
0.64
0.20
-0.17
-0.43
-0.59
-0.71
-0.90
-1.22
-1.65
-2.07
-2.31
-2.22
-1.76
-1.03
-0.21
0.48
0.89
0.97
0.78
0.44
0.07
-0.22
-0.40
-0.49
-0.56
-0.64
-0.77
-0.93
-1.04
-1.04
-0.87
-0.50
0.01
0.63
1.24
1.76
2.09
2.21
2.12
1.90
1.63
1.41
1.26
1.14
1.00
0.79
0.52
0.29
0.19
0.28
0.51
0.75
0.86
0.76
0.45
0.01
-0.44
-0.80
-1.03
-1.12
-1.11
-1.02
-0.85
-0.62
-0.36
-0.11
0.10
0.24
0.34
0.42
0.51
0.61
0.69
0.71
0.64
0.47
0.22
-0.09
-0.40
-0.64
-0.79
-0.85
-0.84
-0.83
-0.88
-0.96
-1.03
-1.02
-0.90
-0.71
-0.50
-0.31
-0.12
0.13
0.44
0.79
1.03
1.01
0.69
0.13
-0.51
-1.04
-1.36
-1.46
-1.42
-1.31
-1.16
-0.96
-0.69
-0.32
0.12
0.53
0.83
0.94
0.85
0.62
0.38
0.25
0.27
0.41
0.54
0.52
0.29
-0.07
-0.40
-0.55
-0.49
-0.31
-0.16
-0.19
-0.39
-0.67
-0.90
-0.99
-0.98
-0.95
-0.94
-0.94
-0.89
-0.70
-0.38
0.00
0.33
0.52
0.56
0.51
0.46
0.45
0.43
0.35
0.16
-0.14
-0.46
-0.70
-0.78
-0.71
-0.52
-0.30
-0.11
0.08
0.31
0.62
0.98
1.32
1.51
1.47
1.21
0.86
0.57
0.45
0.53
0.74
0.99
1.21
1.41
1.60
1.81
2.03
2.22
2.29
2.12
1.64
0.80
-0.39
-1.79
-3.21
-4.38
-5.14
-5.41
-5.23
-4.77
-4.21
-3.74
-3.47
-3.44
-3.60
-3.85
-4.03
-4.02
-3.79
-3.42
-3.08
-2.96
-3.10
-3.41
-3.66
-3.55
-2.93
-1.78
-0.24
1.52
3.39
5.32
7.30
9.25
10.96
12.08
12.25
11.30
9.29
6.56
3.64
1.07
-0.77
-1.68
-1.72
-1.10
-0.12
0.97
1.94
2.66
3.07
3.13
2.86
2.33
1.65
0.98
0.42
0.04
-0.19
-0.36
-0.53
-0.75
-0.96
-1.13
-1.21
-1.21
-1.16
-1.10
-1.07
-1.05
-1.06
-1.09
-1.17
-1.30
-1.49
-1.66
-1.76
-1.68
-1.40
-0.96
-0.46
-0.03
0.21
0.24
0.07
-0.24
-0.63
-1.01
-1.31
-1.43
-1.34
-1.04
-0.60
-0.15
0.16
0.27
0.19
0.00
-0.18
-0.27
-0.26
-0.20
-0.15
-0.13
-0.15
-0.17
-0.10
0.09
0.39
0.74
1.01
1.10
0.93
0.52
-0.03
-0.60
-1.04
-1.27
-1.30
-1.15
-0.89
-0.56
-0.22
0.09
0.30
0.37
0.27
0.01
-0.30
-0.56
-0.69
-0.67
-0.54
-0.40
-0.32
-0.33
-0.38
-0.41
-0.36
-0.23
-0.06
0.10
0.18
0.20
0.19
0.22
0.36
0.65
1.09
1.63
2.15
2.50
2.58
2.36
1.92
1.42
1.01
0.76
0.67
0.62
0.49
0.24
-0.10
-0.44
-0.66
-0.73
-0.68
-0.62
-0.62
-0.73
-0.92
-1.10
-1.20
-1.16
-0.99
-0.76
-0.52
-0.30
-0.13
-0.03
-0.01
-0.12
-0.37
-0.77
-1.24
-1.66
-1.92
-1.96
-1.79
-1.52
-1.22
-0.94
-0.70
-0.46
-0.21
0.02
0.16
0.17
0.05
-0.12
-0.25
-0.25
-0.08
0.20
0.48
0.67
0.68
0.51
0.25
-0.03
-0.25
-0.40
-0.54
-0.70
-0.89
-1.03
-1.03
-0.87
-0.62
-0.44
-0.49
-0.83
-1.32
-1.71
-1.73
-1.26
-0.37
0.67
1.55
2.03
2.08
1.82
1.49
1.28
1.30
1.49
1.74
1.90
1.91
1.75
1.46
1.09
0.68
0.31
0.05
-0.04
0.07
0.33
0.66
0.93
1.04
0.97
0.72
0.37
0.01
-0.28
-0.43
-0.44
-0.35
-0.21
-0.12
-0.10
-0.13
-0.14
-0.09
0.03
0.17
0.29
0.36
0.42
0.47
0.51
0.51
0.42
0.25
0.06
-0.04
0.03
0.26
0.54
0.73
0.72
0.47
0.07
-0.39
-0.82
-1.17
-1.40
-1.50
-1.46
-1.26
-0.93
-0.52
-0.09
0.29
0.57
0.72
0.73
0.62
0.45
0.33
0.32
0.43
0.59
0.68
0.59
0.33
-0.03
-0.36
-0.58
-0.68
-0.74
-0.80
-0.85
-0.85
-0.77
-0.61
-0.42
-0.25
-0.10
0.06
0.27
0.54
0.80
0.96
0.95
0.77
0.47
0.14
-0.15
-0.36
-0.42
-0.32
-0.08
0.24
0.53
0.67
0.61
0.35
-0.04
-0.42
-0.71
-0.84
-0.81
-0.67
-0.45
-0.23
-0.08
-0.02
-0.10
-0.32
-0.61
-0.90
-1.11
-1.16
-1.02
-0.73
-0.35
0.04
0.36
0.54
0.57
0.47
0.31
0.18
0.16
0.31
0.60
0.99
1.42
1.80
2.07
2.18
2.09
1.77
1.26
0.61
-0.05
-0.63
-1.02
-1.20
-1.20
-1.11
-1.01
-1.00
-1.10
-1.28
-1.51
-1.73
-1.93
-2.13
-2.30
-2.39
-2.32
-1.99
-1.36
-0.53
0.35
1.09
1.56
1.73
1.67
1.50
1.31
1.15
1.02
0.94
0.92
1.00
1.16
1.34
1.41
1.28
0.92
0.37
-0.19
-0.62
-0.81
-0.77
-0.59
-0.38
-0.23
-0.17
-0.18
-0.24
-0.32
-0.41
-0.49
-0.50
-0.41
-0.19
0.11
0.41
0.60
0.59
0.34
-0.10
-0.63
-1.10
-1.35
-1.31
-1.02
-0.58
-0.19
0.02
0.01
-0.18
-0.41
-0.56
-0.57
-0.43
-0.23
-0.05
0.09
0.18
0.23
0.26
0.22
0.08
-0.19
-0.51
-0.73
-0.71
-0.36
0.24
0.87
1.27
1.28
0.87
0.20
-0.50
-1.04
-1.29
-1.26
-0.96
-0.47
0.16
0.79
1.31
1.62
1.65
1.43
1.04
0.57
0.10
-0.33
-0.68
-0.88
-0.89
-0.70
-0.35
0.07
0.41
0.57
0.53
0.37
0.17
0.03
-0.04
-0.10
-0.20
-0.37
-0.57
-0.71
-0.74
-0.64
-0.43
-0.22
-0.06
-0.03
-0.12
-0.29
-0.46
-0.56
-0.51
-0.28
0.11
0.61
1.12
1.56
1.88
2.11
2.31
2.53
2.77
3.00
3.12
3.07
2.81
2.39
1.88
1.34
0.81
0.32
-0.12
-0.46
-0.62
-0.60
-0.45
-0.27
-0.20
-0.31
-0.57
-0.87
-1.11
-1.22
-1.24
-1.30
-1.46
-1.74
-2.04
-2.26
-2.31
-2.18
-1.93
-1.62
-1.28
-0.93
-0.60
-0.31
-0.15
-0.15
-0.30
-0.49
-0.58
-0.50
-0.25
0.05
0.27
0.32
0.21
0.03
-0.08
-0.06
0.10
0.33
0.55
0.72
0.85
0.97
1.09
1.20
1.24
1.17
0.97
0.67
0.37
0.12
-0.02
-0.05
-0.00
0.12
0.29
0.50
0.70
0.81
0.75
0.48
0.05
-0.44
-0.83
-1.01
-0.97
-0.75
-0.42
-0.07
0.24
0.46
0.54
0.47
0.28
-0.01
-0.32
-0.59
-0.77
-0.81
-0.69
-0.40
0.02
0.50
0.90
1.08
0.98
0.61
0.08
-0.46
-0.89
-1.13
-1.18
-1.06
-0.84
-0.55
-0.25
-0.02
0.12
0.12
0.02
-0.10
-0.14
-0.02
0.26
0.60
0.84
0.86
0.59
0.11
-0.44
-0.92
-1.21
-1.32
-1.30
-1.21
-1.11
-1.04
-0.98
-0.91
-0.78
-0.57
-0.25
0.17
0.65
1.09
1.41
1.56
1.51
1.31
0.97
0.57
0.14
-0.23
-0.47
-0.50
-0.35
-0.08
0.20
0.38
0.43
0.38
0.32
0.32
0.41
0.52
0.52
0.33
-0.06
-0.56
-1.00
-1.24
-1.22
-1.01
-0.70
-0.40
-0.15
0.07
0.31
0.58
0.87
1.10
1.21
1.16
0.93
0.56
0.13
-0.30
-0.63
-0.85
-0.99
-1.09
-1.21
-1.35
-1.46
-1.45
-1.28
-0.94
-0.49
-0.00
0.45
0.81
1.06
1.17
1.12
0.89
0.55
0.17
-0.12
-0.23
-0.14
0.09
0.33
0.46
0.40
0.17
-0.12
-0.35
-0.42
-0.29
0.00
0.39
0.80
1.17
1.48
1.68
1.75
1.66
1.43
1.09
0.71
0.36
0.06
-0.17
-0.32
-0.41
-0.45
-0.45
-0.44
-0.40
-0.34
-0.24
-0.11
0.00
0.04
-0.05
-0.24
-0.49
-0.72
-0.88
-0.95
-0.94
-0.87
-0.75
-0.56
-0.30
-0.01
0.28
0.50
0.61
0.59
0.49
0.33
0.19
0.13
0.18
0.33
0.57
0.82
1.02
1.13
1.12
0.98
0.77
0.58
0.49
0.56
0.76
1.00
1.14
1.09
0.87
0.57
0.32
0.21
0.25
0.37
0.45
0.44
0.32
0.12
-0.12
-0.40
-0.73
-1.10
-1.48
-1.81
-2.01
-2.02
-1.87
-1.58
-1.23
-0.91
-0.63
-0.43
-0.26
-0.10
0.06
0.22
0.34
0.36
0.26
0.03
-0.28
-0.58
-0.81
-0.92
-0.90
-0.81
-0.68
-0.52
-0.34
-0.12
0.13
0.35
0.49
0.51
0.41
0.26
0.14
0.10
0.14
0.20
0.23
0.20
0.13
0.02
-0.10
-0.23
-0.38
-0.51
-0.59
-0.59
-0.53
-0.47
-0.46
-0.47
-0.43
-0.24
0.10
0.55
0.95
1.15
1.08
0.77
0.37
0.02
-0.16
-0.16
-0.03
0.15
0.27
0.30
0.23
0.12
0.05
0.07
0.19
0.36
0.53
0.64
0.68
0.65
0.56
0.39
0.11
-0.27
-0.67
-1.00
-1.17
-1.17
-1.05
-0.90
-0.80
-0.74
-0.65
-0.46
-0.16
0.17
0.41
0.47
0.35
0.12
-0.10
-0.22
-0.21
-0.08
0.10
0.28
0.43
0.53
0.56
0.54
0.47
0.45
0.49
0.59
0.67
0.64
0.45
0.10
-0.26
-0.49
-0.49
-0.27
0.07
0.37
0.51
0.43
0.19
-0.13
-0.41
-0.56
-0.54
-0.39
-0.18
0.00
0.09
0.05
-0.07
-0.21
-0.30
-0.33
-0.31
-0.30
-0.33
-0.38
-0.42
-0.45
-0.47
-0.54
-0.66
-0.81
-0.89
-0.83
-0.59
-0.26
0.05
0.20
0.18
0.07
0.05
0.21
0.55
0.94
1.21
1.27
1.14
0.94
0.79
0.75
0.78
0.78
0.70
0.55
0.40
0.30
0.26
0.19
-0.01
-0.38
-0.90
-1.46
-1.92
-2.18
-2.20
-2.00
-1.65
-1.21
-0.75
-0.31
0.08
0.40
0.68
0.91
1.11
1.28
1.39
1.42
1.37
1.25
1.12
1.02
0.94
0.84
0.66
0.36
-0.00
-0.35
-0.58
-0.64
-0.53
-0.33
-0.12
0.03
0.08
0.07
0.03
-0.01
-0.06
-0.11
-0.16
-0.19
-0.18
-0.13
-0.04
0.08
0.19
0.29
0.37
0.43
0.47
0.44
0.30
0.03
-0.32
-0.67
-0.90
-0.98
-0.91
-0.78
-0.67
-0.65
-0.72
-0.83
-0.95
-1.08
-1.24
-1.44
-1.67
-1.87
-1.94
-1.81
-1.46
-0.93
-0.29
0.35
0.89
1.27
1.45
1.43
1.22
0.85
0.37
-0.17
-0.67
-1.04
-1.21
-1.19
-1.01
-0.77
-0.58
-0.46
-0.39
-0.28
-0.05
0.35
0.86
1.38
1.78
1.98
1.99
1.87
1.70
1.55
1.45
1.38
1.27
1.10
0.84
0.52
0.17
-0.15
-0.42
-0.64
-0.80
-0.88
-0.86
-0.71
-0.44
-0.11
0.20
0.41
0.48
0.44
0.35
0.32
0.37
0.50
0.64
0.75
0.78
0.75
0.76
0.89
1.18
1.61
2.05
2.36
2.44
2.26
1.89
1.43
0.97
0.56
0.20
-0.13
-0.41
-0.60
-0.66
-0.61
-0.49
-0.38
-0.32
-0.35
-0.42
-0.51
-0.55
-0.51
-0.42
-0.29
-0.20
-0.19
-0.26
-0.37
-0.43
-0.36
-0.14
0.18
0.49
0.71
0.82
0.83
0.81
0.80
0.80
0.82
0.90
1.07
1.35
1.64
1.80
1.63
1.03
0.06
-1.04
-1.96
-2.45
-2.42
-2.01
-1.46
-1.03
-0.85
-0.90
-1.06
-1.22
-1.35
-1.49
-1.72
-2.02
-2.27
-2.30
-1.97
-1.28
-0.39
0.45
1.02
1.21
1.12
0.92
0.77
0.73
0.77
0.77
0.65
0.41
0.10
-0.20
-0.43
-0.60
-0.75
-0.94
-1.17
-1.37
-1.47
-1.43
-1.26
-1.03
-0.80
-0.61
-0.44
-0.22
0.09
0.46
0.81
1.04
1.08
0.93
0.71
0.52
0.43
0.42
0.40
0.27
-0.02
-0.41
-0.80
-1.06
-1.12
-1.01
-0.79
-0.54
-0.33
-0.17
-0.05
0.07
0.17
0.22
0.19
0.06
-0.13
-0.30
-0.39
-0.34
-0.20
-0.00
0.19
0.36
0.50
0.62
0.73
0.77
0.70
0.51
0.24
0.01
-0.09
0.00
0.23
0.48
0.60
0.48
0.16
-0.26
-0.59
-0.70
-0.56
-0.24
0.10
0.33
0.39
0.30
0.13
-0.02
-0.08
-0.04
0.10
0.28
0.45
0.54
0.51
0.41
0.29
0.23
0.29
0.43
0.59
0.64
0.52
0.26
-0.07
-0.36
-0.51
-0.53
-0.44
-0.32
-0.24
-0.20
-0.21
-0.24
-0.30
-0.40
-0.55
-0.76
-0.95
-1.05
-0.98
-0.74
-0.40
-0.10
0.06
0.05
-0.09
-0.25
-0.37
-0.40
-0.37
-0.34
-0.31
-0.26
-0.14
0.09
0.44
0.83
1.16
1.32
1.27
1.04
0.74
0.52
0.49
0.70
1.08
1.49
1.77
1.80
1.59
1.21
0.77
0.36
0.02
-0.28
-0.55
-0.77
-0.92
-0.93
-0.82
-0.65
-0.55
-0.62
-0.90
-1.30
-1.67
-1.90
-1.89
-1.68
-1.35
-0.98
-0.64
-0.32
-0.00
0.31
0.57
0.72
0.70
0.50
0.20
-0.08
-0.21
-0.15
0.06
0.33
0.53
0.60
0.55
0.44
0.34
0.24
0.11
-0.11
-0.41
-0.73
-0.97
-1.06
-0.95
-0.72
-0.45
-0.21
-0.05
0.06
0.13
0.19
0.24
0.29
0.33
0.39
0.49
0.63
0.77
0.86
0.86
0.75
0.58
0.38
0.20
0.07
-0.02
-0.07
-0.06
0.04
0.23
0.48
0.69
0.77
0.68
0.45
0.15
-0.15
-0.36
-0.47
-0.48
-0.40
-0.26
-0.11
0.01
0.04
-0.06
-0.26
-0.51
-0.71
-0.80
-0.78
-0.70
-0.61
-0.59
-0.63
-0.71
-0.76
-0.73
-0.59
-0.35
-0.10
0.10
0.17
0.11
-0.05
-0.20
-0.29
-0.25
-0.12
0.07
0.29
0.53
0.80
1.08
1.32
1.42
1.32
1.01
0.59
0.21
0.02
0.07
0.30
0.61
0.87
1.00
1.02
0.96
0.85
0.69
0.44
0.08
-0.35
-0.79
-1.16
-1.38
-1.43
-1.31
-1.07
-0.82
-0.64
-0.64
-0.84
-1.22
-1.68
-2.07
-2.27
-2.22
-1.96
-1.55
-1.09
-0.64
-0.20
0.23
0.67
1.11
1.51
1.79
1.89
1.76
1.42
0.96
0.50
0.18
0.08
0.20
0.48
0.82
1.14
1.36
1.44
1.37
1.15
0.81
0.41
0.02
-0.34
-0.69
-1.05
-1.39
-1.68
-1.82
-1.77
-1.54
-1.20
-0.84
-0.48
-0.12
0.28
0.72
1.12
1.38
1.42
1.26
0.98
0.72
0.58
0.57
0.65
0.75
0.80
0.81
0.77
0.70
0.61
0.48
0.32
0.17
0.09
0.10
0.22
0.41
0.59
0.72
0.79
0.82
0.83
0.78
0.65
0.38
-0.02
-0.50
-0.95
-1.29
-1.47
-1.53
-1.52
-1.51
-1.52
-1.49
-1.37
-1.13
-0.78
-0.41
-0.12
0.05
0.10
0.13
0.22
0.43
0.72
1.00
1.16
1.16
1.03
0.85
0.71
0.61
0.52
0.40
0.24
0.09
0.01
0.01
0.10
0.19
0.25
0.24
0.21
0.19
0.22
0.31
0.41
0.47
0.46
0.34
0.16
-0.05
-0.24
-0.38
-0.47
-0.51
-0.51
-0.48
-0.40
-0.25
-0.05
0.16
0.33
0.40
0.34
0.19
0.01
-0.15
-0.27
-0.35
-0.47
-0.64
-0.86
-1.08
-1.19
-1.14
-0.97
-0.74
-0.54
-0.39
-0.25
-0.04
0.26
0.59
0.85
0.94
0.82
0.56
0.28
0.09
0.05
0.09
0.14
0.13
0.07
0.01
0.05
0.21
0.47
0.71
0.82
0.74
0.50
0.18
-0.10
-0.29
-0.40
-0.51
-0.69
-0.95
-1.23
-1.43
-1.48
-1.33
-1.05
-0.71
-0.42
-0.22
-0.14
-0.20
-0.38
-0.66
-0.97
-1.19
-1.23
-1.07
-0.78
-0.51
-0.37
-0.39
-0.46
-0.43
-0.18
0.28
0.81
1.23
1.45
1.46
1.35
1.23
1.15
1.10
1.04
0.91
0.73
0.50
0.25
-0.04
-0.37
-0.73
-1.05
-1.24
-1.22
-0.99
-0.64
-0.27
-0.01
0.12
0.16
0.19
0.26
0.35
0.42
0.41
0.32
0.19
0.11
0.12
0.21
0.30
0.29
0.11
-0.19
-0.45
-0.54
-0.37
-0.01
0.38
0.65
0.72
0.63
0.51
0.49
0.59
0.75
0.84
0.80
0.68
0.59
0.64
0.84
1.14
1.38
1.46
1.33
1.04
0.70
0.43
0.28
0.19
0.09
-0.11
-0.44
-0.81
-1.12
-1.23
-1.14
-0.88
-0.59
-0.38
-0.29
-0.29
-0.32
-0.34
-0.38
-0.48
-0.65
-0.85
-1.00
-0.99
-0.78
-0.41
0.03
0.43
0.70
0.79
0.67
0.38
-0.04
-0.51
-0.96
-1.31
-1.53
-1.58
-1.47
-1.20
-0.80
-0.37
-0.02
0.13
0.01
-0.33
-0.73
-0.99
-0.98
-0.67
-0.19
0.31
0.67
0.84
0.85
0.78
0.72
0.73
0.80
0.93
1.11
1.31
1.51
1.66
1.72
1.64
1.38
0.96
0.44
-0.09
-0.54
-0.84
-0.93
-0.86
-0.67
-0.44
-0.21
-0.02
0.14
0.28
0.38
0.43
0.42
0.33
0.15
-0.11
-0.42
-0.74
-1.02
-1.19
-1.22
-1.11
-0.92
-0.74
-0.66
-0.71
-0.84
-0.98
-1.03
-0.90
-0.60
-0.18
0.29
0.72
1.06
1.34
1.59
1.84
2.07
2.22
2.22
2.04
1.74
1.41
1.13
0.95
0.84
0.75
0.62
0.44
0.21
-0.00
-0.18
-0.31
-0.37
-0.37
-0.32
-0.25
-0.22
-0.29
-0.50
-0.85
-1.28
-1.72
-2.09
-2.34
-2.42
-2.30
-2.00
-1.58
-1.15
-0.83
-0.70
-0.78
-0.98
-1.20
-1.36
-1.40
-1.37
-1.32
-1.28
-1.19
-0.98
-0.57
0.01
0.66
1.22
1.58
1.76
1.84
1.94
2.07
2.16
2.07
1.70
1.10
0.43
-0.08
-0.28
-0.17
0.11
0.39
0.54
0.51
0.39
0.22
0.06
-0.09
-0.22
-0.32
-0.35
-0.25
-0.01
0.33
0.69
0.97
1.08
0.94
0.57
0.06
-0.48
-0.88
-1.09
-1.09
-0.95
-0.77
-0.60
-0.47
-0.38
-0.35
-0.36
-0.42
-0.42
-0.25
0.18
0.83
1.50
1.95
2.00
1.63
1.05
0.50
0.21
0.24
0.52
0.89
1.17
1.26
1.15
0.88
0.54
0.23
-0.01
-0.19
-0.37
-0.61
-0.94
-1.31
-1.64
-1.83
-1.85
-1.70
-1.42
-1.10
-0.78
-0.52
-0.37
-0.33
-0.41
-0.52
-0.58
-0.51
-0.32
-0.08
0.14
0.25
0.23
0.10
-0.07
-0.23
-0.33
-0.30
-0.15
0.10
0.38
0.60
0.70
0.67
0.57
0.47
0.42
0.43
0.48
0.55
0.65
0.80
0.99
1.18
1.32
1.34
1.24
1.06
0.88
0.76
0.69
0.65
0.56
0.35
0.01
-0.40
-0.76
-0.99
-1.02
-0.89
-0.69
-0.50
-0.43
-0.48
-0.62
-0.77
-0.86
-0.88
-0.82
-0.73
-0.64
-0.56
-0.48
-0.36
-0.20
-0.03
0.09
0.10
-0.00
-0.16
-0.26
-0.25
-0.14
-0.02
-0.00
-0.10
-0.27
-0.40
-0.38
-0.19
0.11
0.41
0.62
0.68
0.59
0.43
0.24
0.09
0.00
-0.07
-0.14
-0.27
-0.41
-0.51
-0.47
-0.23
0.16
0.59
0.90
0.99
0.85
0.58
0.33
0.18
0.13
0.12
0.06
-0.07
-0.25
-0.36
-0.37
-0.26
-0.11
-0.04
-0.12
-0.35
-0.67
-0.97
-1.19
-1.25
-1.17
-0.98
-0.73
-0.50
-0.37
-0.35
-0.42
-0.48
-0.45
-0.27
0.05
0.42
0.75
0.99
1.10
1.10
0.99
0.78
0.52
0.27
0.17
0.27
0.55
0.86
1.00
0.84
0.40
-0.18
-0.68
-0.94
-0.94
-0.78
-0.59
-0.46
-0.40
-0.36
-0.30
-0.21
-0.13
-0.08
-0.04
0.06
0.24
0.52
0.82
1.04
1.12
1.07
0.95
0.86
0.83
0.84
0.82
0.75
0.61
0.45
0.30
0.19
0.08
-0.08
-0.30
-0.52
-0.67
-0.67
-0.49
-0.19
0.09
0.22
0.10
-0.24
-0.70
-1.11
-1.33
-1.31
-1.09
-0.74
-0.39
-0.07
0.19
0.43
0.65
0.83
0.91
0.85
0.63
0.33
0.04
-0.11
-0.06
0.13
0.33
0.41
0.32
0.08
-0.17
-0.29
-0.23
-0.05
0.16
0.31
0.38
0.45
0.62
0.90
1.23
1.45
1.40
1.03
0.41
-0.29
-0.90
-1.33
-1.54
-1.57
-1.45
-1.20
-0.83
-0.42
-0.09
0.05
-0.10
-0.46
-0.88
-1.16
-1.16
-0.89
-0.47
-0.11
0.07
0.06
-0.01
-0.02
0.15
0.49
0.90
1.23
1.35
1.21
0.83
0.33
-0.17
-0.55
-0.73
-0.69
-0.46
-0.13
0.21
0.49
0.66
0.73
0.73
0.68
0.60
0.44
0.19
-0.18
-0.64
-1.12
-1.54
-1.83
-1.93
-1.86
-1.63
-1.30
-0.91
-0.50
-0.12
0.15
0.30
0.33
0.31
0.31
0.38
0.49
0.56
0.52
0.35
0.15
0.06
0.19
0.51
0.89
1.12
1.06
0.70
0.21
-0.18
-0.31
-0.16
0.16
0.46
0.61
0.59
0.50
0.44
0.51
0.66
0.81
0.84
0.67
0.33
-0.10
-0.50
-0.75
-0.82
-0.72
-0.54
-0.37
-0.26
-0.26
-0.35
-0.48
-0.61
-0.69
-0.68
-0.56
-0.34
-0.06
0.21
0.37
0.35
0.16
-0.15
-0.42
-0.54
-0.40
-0.04
0.38
0.65
0.62
0.26
-0.29
-0.78
-1.00
-0.84
-0.38
0.22
0.76
1.09
1.20
1.13
0.97
0.79
0.65
0.53
0.45
0.40
0.37
0.36
0.38
0.41
0.41
0.35
0.22
0.03
-0.14
-0.23
-0.22
-0.15
-0.11
-0.15
-0.25
-0.34
-0.34
-0.22
-0.02
0.15
0.25
0.29
0.33
0.44
0.64
0.85
0.98
0.93
0.69
0.33
-0.06
-0.39
-0.62
-0.73
-0.77
-0.74
-0.67
-0.57
-0.48
-0.43
-0.46
-0.55
-0.69
-0.84
-0.99
-1.10
-1.17
-1.19
-1.16
-1.09
-0.95
-0.73
-0.43
-0.06
0.33
0.67
0.87
0.88
0.75
0.57
0.43
0.44
0.56
0.72
0.81
0.78
0.65
0.51
0.43
0.45
0.54
0.62
0.63
0.55
0.42
0.31
0.26
0.26
0.26
0.23
0.15
0.06
0.02
0.05
0.10
0.09
-0.04
-0.32
-0.67
-0.98
-1.15
-1.15
-1.03
-0.85
-0.68
-0.55
-0.47
-0.42
-0.45
-0.57
-0.77
-0.99
-1.13
-1.12
-0.93
-0.63
-0.32
-0.08
0.08
0.20
0.36
0.57
0.78
0.88
0.80
0.57
0.30
0.16
0.24
0.52
0.86
1.10
1.13
0.94
0.60
0.23
-0.10
-0.35
-0.48
-0.49
-0.37
-0.14
0.14
0.39
0.55
0.63
0.65
0.63
0.59
0.49
0.32
0.04
-0.29
-0.61
-0.85
-0.97
-0.95
-0.82
-0.65
-0.55
-0.60
-0.80
-1.08
-1.31
-1.38
-1.24
-0.95
-0.64
-0.41
-0.30
-0.29
-0.30
-0.26
-0.16
-0.04
0.06
0.13
0.19
0.30
0.47
0.70
0.93
1.08
1.09
0.97
0.76
0.56
0.45
0.49
0.66
0.91
1.17
1.33
1.35
1.19
0.90
0.55
0.22
-0.01
-0.12
-0.12
-0.07
-0.06
-0.13
-0.29
-0.49
-0.68
-0.85
-0.96
-1.00
-0.96
-0.84
-0.67
-0.51
-0.41
-0.43
-0.51
-0.56
-0.45
-0.14
0.35
0.89
1.34
1.62
1.75
1.80
1.81
1.74
1.51
1.05
0.38
-0.33
-0.88
-1.10
-0.94
-0.50
0.02
0.44
0.64
0.63
0.51
0.36
0.23
0.12
-0.04
-0.26
-0.54
-0.82
-1.02
-1.10
-1.04
-0.89
-0.75
-0.69
-0.79
-1.04
-1.39
-1.73
-1.95
-1.96
-1.72
-1.30
-0.82
-0.43
-0.25
-0.29
-0.48
-0.67
-0.71
-0.56
-0.25
0.11
0.38
0.53
0.58
0.58
0.59
0.61
0.62
0.61
0.62
0.69
0.86
1.12
1.40
1.61
1.69
1.62
1.46
1.25
1.05
0.88
0.75
0.69
0.71
0.80
0.92
0.97
0.89
0.61
0.16
-0.35
-0.80
-1.03
-1.00
-0.76
-0.43
-0.18
-0.09
-0.17
-0.35
-0.54
-0.68
-0.77
-0.84
-0.89
-0.88
-0.77
-0.53
-0.22
0.06
0.21
0.23
0.14
0.02
-0.10
-0.21
-0.37
-0.56
-0.72
-0.75
-0.57
-0.19
0.31
0.77
1.05
1.10
0.97
0.74
0.51
0.33
0.18
0.05
-0.11
-0.31
-0.50
-0.63
-0.65
-0.53
-0.28
0.04
0.36
0.58
0.66
0.62
0.51
0.40
0.34
0.31
0.26
0.16
-0.01
-0.19
-0.35
-0.44
-0.47
-0.47
-0.47
-0.46
-0.43
-0.36
-0.26
-0.19
-0.19
-0.29
-0.46
-0.66
-0.80
-0.87
-0.85
-0.78
-0.70
-0.63
-0.53
-0.38
-0.17
0.06
0.25
0.33
0.29
0.19
0.12
0.15
0.31
0.54
0.78
0.97
1.06
1.04
0.93
0.77
0.57
0.39
0.23
0.12
0.03
-0.08
-0.22
-0.35
-0.42
-0.33
-0.05
0.36
0.80
1.12
1.28
1.27
1.17
1.05
0.98
0.93
0.86
0.71
0.48
0.19
-0.11
-0.40
-0.65
-0.87
-1.02
-1.09
-1.06
-0.93
-0.73
-0.54
-0.42
-0.41
-0.51
-0.66
-0.81
-0.90
-0.87
-0.72
-0.48
-0.24
-0.09
-0.12
-0.31
-0.55
-0.68
-0.56
-0.16
0.42
1.01
1.41
1.52
1.32
0.89
0.38
-0.08
-0.36
-0.42
-0.27
0.04
0.41
0.79
1.10
1.27
1.26
1.05
0.65
0.16
-0.30
-0.62
-0.75
-0.71
-0.61
-0.53
-0.54
-0.60
-0.66
-0.64
-0.50
-0.28
-0.02
0.22
0.40
0.55
0.64
0.63
0.46
0.09
-0.41
-0.91
-1.22
-1.20
-0.85
-0.33
0.15
0.44
0.45
0.30
0.10
-0.02
-0.04
-0.01
0.00
-0.05
-0.16
-0.29
-0.34
-0.29
-0.13
0.07
0.22
0.25
0.14
-0.07
-0.29
-0.41
-0.38
-0.21
0.04
0.31
0.51
0.60
0.54
0.35
0.08
-0.21
-0.42
-0.53
-0.55
-0.54
-0.54
-0.54
-0.49
-0.32
-0.06
0.21
0.36
0.30
0.09
-0.15
-0.24
-0.13
0.15
0.43
0.59
0.57
0.44
0.32
0.30
0.35
0.40
0.34
0.17
-0.04
-0.15
-0.11
0.12
0.42
0.67
0.78
0.73
0.56
0.35
0.20
0.13
0.14
0.18
0.16
0.06
-0.17
-0.47
-0.78
-1.03
-1.21
-1.33
-1.44
-1.52
-1.57
-1.50
-1.29
-0.95
-0.57
-0.26
-0.08
-0.04
-0.05
-0.03
0.03
0.10
0.10
0.01
-0.13
-0.22
-0.16
0.05
0.34
0.60
0.71
0.67
0.52
0.35
0.20
0.07
-0.10
-0.33
-0.59
-0.77
-0.79
-0.61
-0.28
0.08
0.30
0.31
0.14
-0.07
-0.14
0.03
0.46
0.99
1.46
1.69
1.64
1.36
0.98
0.63
0.36
0.13
-0.08
-0.29
-0.46
-0.48
-0.30
0.04
0.44
0.75
0.90
0.90
0.84
0.84
0.97
1.18
1.37
1.46
1.40
1.24
1.06
0.92
0.79
0.60
0.27
-0.20
-0.74
-1.25
-1.63
-1.84
-1.89
-1.81
-1.63
-1.40
-1.16
-0.99
-0.92
-0.98
-1.13
-1.28
-1.33
-1.25
-1.03
-0.73
-0.43
-0.18
-0.03
0.01
-0.01
-0.00
0.09
0.31
0.55
0.66
0.52
0.10
-0.49
-1.03
-1.32
-1.27
-0.94
-0.47
-0.02
0.33
0.56
0.70
0.77
0.78
0.75
0.72
0.72
0.77
0.86
0.92
0.90
0.80
0.64
0.47
0.33
0.25
0.17
0.07
-0.06
-0.21
-0.34
-0.40
-0.36
-0.19
0.09
0.44
0.79
1.08
1.23
1.21
0.98
0.56
0.05
-0.40
-0.65
-0.57
-0.19
0.36
0.88
1.19
1.18
0.91
0.52
0.16
-0.06
-0.13
-0.13
-0.14
-0.18
-0.26
-0.34
-0.40
-0.50
-0.67
-0.95
-1.27
-1.52
-1.59
-1.40
-1.01
-0.55
-0.14
0.13
0.27
0.36
0.47
0.60
0.74
0.83
0.85
0.80
0.74
0.67
0.60
0.50
0.36
0.20
0.06
-0.03
-0.04
-0.03
-0.07
-0.22
-0.50
-0.83
-1.09
-1.18
-1.06
-0.79
-0.48
-0.23
-0.10
-0.06
-0.09
-0.15
-0.22
-0.28
-0.34
-0.34
-0.28
-0.17
-0.06
-0.03
-0.08
-0.16
-0.15
-0.00
0.29
0.62
0.85
0.90
0.77
0.53
0.28
0.07
-0.09
-0.24
-0.40
-0.52
-0.54
-0.38
-0.06
0.35
0.69
0.87
0.86
0.72
0.57
0.50
0.51
0.55
0.53
0.40
0.14
-0.20
-0.55
-0.82
-0.94
-0.87
-0.62
-0.22
0.22
0.59
0.79
0.81
0.66
0.44
0.23
0.08
0.00
-0.05
-0.08
-0.11
-0.10
-0.04
0.07
0.21
0.36
0.52
0.70
0.90
1.12
1.30
1.39
1.34
1.15
0.86
0.52
0.21
-0.04
-0.27
-0.53
-0.86
-1.26
-1.66
-1.94
-2.03
-1.91
-1.64
-1.36
-1.15
-1.04
-0.98
-0.87
-0.67
-0.40
-0.14
0.02
0.01
-0.11
-0.24
-0.26
-0.10
0.22
0.57
0.82
0.85
0.68
0.43
0.22
0.13
0.17
0.29
0.45
0.65
0.92
1.25
1.60
1.82
1.81
1.55
1.14
0.81
0.68
0.79
1.01
1.12
0.97
0.55
-0.01
-0.51
-0.80
-0.83
-0.68
-0.50
-0.39
-0.43
-0.59
-0.79
-0.94
-0.98
-0.90
-0.74
-0.60
-0.55
-0.66
-0.90
-1.18
-1.40
-1.47
-1.39
-1.20
-0.97
-0.79
-0.71
-0.76
-0.94
-1.22
-1.53
-1.74
-1.72
-1.41
-0.84
-0.16
0.47
0.89
1.07
1.05
0.98
0.95
1.00
1.08
1.16
1.19
1.21
1.24
1.27
1.23
1.03
0.63
0.11
-0.36
-0.62
-0.56
-0.23
0.20
0.56
0.71
0.63
0.39
0.06
-0.27
-0.54
-0.68
-0.63
-0.39
-0.01
0.36
0.58
0.55
0.31
0.02
-0.15
-0.08
0.20
0.53
0.73
0.71
0.51
0.25
0.05
-0.04
-0.09
-0.16
-0.26
-0.33
-0.27
-0.01
0.34
0.64
0.70
0.51
0.15
-0.17
-0.31
-0.22
-0.04
0.09
0.03
-0.22
-0.57
-0.88
-1.07
-1.11
-1.03
-0.86
-0.63
-0.34
-0.04
0.22
0.38
0.41
0.32
0.14
-0.04
-0.19
-0.28
-0.29
-0.26
-0.19
-0.14
-0.14
-0.20
-0.29
-0.34
-0.28
-0.05
0.32
0.74
1.10
1.31
1.35
1.22
1.00
0.75
0.55
0.43
0.41
0.42
0.41
0.34
0.19
0.01
-0.14
-0.18
-0.10
0.04
0.19
0.28
0.28
0.21
0.09
-0.05
-0.18
-0.32
-0.47
-0.65
-0.86
-1.09
-1.27
-1.35
-1.29
-1.09
-0.80
-0.49
-0.19
0.04
0.20
0.31
0.37
0.41
0.42
0.40
0.31
0.14
-0.08
-0.32
-0.52
-0.64
-0.65
-0.58
-0.47
-0.35
-0.25
-0.18
-0.12
-0.08
-0.05
-0.03
0.00
0.05
0.12
0.19
0.27
0.38
0.52
0.71
0.95
1.19
1.34
1.34
1.17
0.86
0.53
0.28
0.19
0.25
0.36
0.44
0.41
0.26
0.04
-0.20
-0.44
-0.70
-1.00
-1.33
-1.64
-1.85
-1.89
-1.73
-1.44
-1.08
-0.75
-0.50
-0.34
-0.29
-0.32
-0.40
-0.50
-0.56
-0.55
-0.46
-0.34
-0.24
-0.19
-0.19
-0.19
-0.12
0.03
0.25
0.49
0.70
0.82
0.83
0.73
0.55
0.33
0.13
0.01
-0.01
0.09
0.26
0.45
0.56
0.56
0.45
0.29
0.18
0.21
0.37
0.60
0.80
0.88
0.82
0.67
0.50
0.35
0.22
0.09
0.01
0.01
0.17
0.48
0.83
1.11
1.21
1.14
0.96
0.79
0.67
0.58
0.45
0.22
-0.10
-0.44
-0.74
-0.98
-1.16
-1.32
-1.44
-1.50
-1.44
-1.27
-1.01
-0.74
-0.51
-0.34
-0.16
0.07
0.36
0.65
0.84
0.84
0.64
0.32
0.02
-0.14
-0.10
0.11
0.40
0.66
0.80
0.76
0.53
0.19
-0.20
-0.52
-0.72
-0.77
-0.68
-0.49
-0.26
-0.04
0.14
0.28
0.36
0.40
0.40
0.38
0.35
0.32
0.32
0.35
0.38
0.38
0.29
0.08
-0.24
-0.61
-0.90
-1.00
-0.86
-0.53
-0.12
0.22
0.42
0.51
0.58
0.70
0.87
1.01
1.00
0.78
0.40
-0.00
-0.29
-0.38
-0.32
-0.19
-0.09
-0.06
-0.07
-0.10
-0.14
-0.21
-0.34
-0.52
-0.70
-0.82
-0.86
-0.82
-0.76
-0.73
-0.74
-0.76
-0.75
-0.68
-0.56
-0.44
-0.36
-0.32
-0.32
-0.32
-0.32
-0.31
-0.29
-0.27
-0.22
-0.12
0.02
0.15
0.22
0.19
0.07
-0.08
-0.17
-0.16
-0.06
0.12
0.31
0.51
0.72
0.96
1.22
1.45
1.58
1.56
1.37
1.06
0.70
0.39
0.18
0.09
0.12
0.23
0.36
0.46
0.52
0.51
0.47
0.39
0.31
0.20
0.04
-0.20
-0.55
-0.95
-1.31
-1.52
-1.51
-1.29
-0.96
-0.63
-0.41
-0.35
-0.40
-0.49
-0.53
-0.47
-0.32
-0.09
0.20
0.55
0.94
1.30
1.55
1.61
1.50
1.26
1.01
0.84
0.77
0.77
0.79
0.74
0.57
0.28
-0.12
-0.57
-1.00
-1.35
-1.61
-1.79
-1.97
-2.18
-2.42
-2.62
-2.69
-2.55
-2.17
-1.64
-1.07
-0.58
-0.25
-0.04
0.08
0.19
0.35
0.58
0.86
1.14
1.35
1.42
1.38
1.28
1.22
1.28
1.48
1.74
1.95
1.99
1.78
1.33
0.71
0.07
-0.47
-0.78
-0.83
-0.69
-0.47
-0.27
-0.14
-0.04
0.06
0.18
0.27
0.24
0.06
-0.22
-0.48
-0.63
-0.65
-0.63
-0.67
-0.79
-0.94
-0.99
-0.85
-0.53
-0.13
0.24
0.49
0.62
0.67
0.69
0.68
0.63
0.51
0.31
0.09
-0.08
-0.12
-0.02
0.20
0.43
0.57
0.55
0.36
0.08
-0.16
-0.30
-0.30
-0.19
-0.01
0.19
0.37
0.52
0.60
0.57
0.40
0.10
-0.30
-0.70
-1.02
-1.18
-1.18
-1.03
-0.79
-0.56
-0.38
-0.31
-0.34
-0.41
-0.48
-0.51
-0.48
-0.43
-0.36
-0.30
-0.20
-0.02
0.25
0.59
0.92
1.13
1.17
1.03
0.80
0.59
0.46
0.44
0.46
0.45
0.37
0.23
0.09
0.00
0.01
0.11
0.24
0.35
0.40
0.39
0.35
0.31
0.27
0.20
0.09
-0.05
-0.16
-0.19
-0.10
0.13
0.44
0.76
1.00
1.11
1.05
0.84
0.52
0.15
-0.20
-0.44
-0.56
-0.55
-0.47
-0.40
-0.36
-0.38
-0.42
-0.44
-0.42
-0.40
-0.44
-0.60
-0.87
-1.16
-1.36
-1.36
-1.15
-0.83
-0.51
-0.33
-0.31
-0.38
-0.45
-0.42
-0.31
-0.15
-0.05
-0.07
-0.23
-0.46
-0.65
-0.68
-0.51
-0.18
0.19
0.45
0.50
0.36
0.14
-0.02
-0.05
0.03
0.12
0.15
0.11
0.10
0.24
0.56
0.96
1.27
1.31
1.05
0.58
0.08
-0.30
-0.48
-0.48
-0.36
-0.22
-0.09
0.00
0.05
0.03
-0.10
-0.39
-0.79
-1.21
-1.49
-1.51
-1.20
-0.62
0.06
0.67
1.05
1.18
1.15
1.04
0.93
0.82
0.70
0.57
0.48
0.46
0.51
0.55
0.49
0.31
0.05
-0.16
-0.21
-0.07
0.18
0.45
0.68
0.87
1.08
1.29
1.41
1.29
0.83
0.11
-0.67
-1.28
-1.58
-1.59
-1.46
-1.37
-1.44
-1.67
-2.00
-2.33
-2.56
-2.61
-2.39
-1.86
-1.08
-0.24
0.38
0.53
0.13
-0.70
-1.67
-2.51
-3.08
-3.39
-3.59
-3.76
-3.86
-3.77
-3.32
-2.45
-1.23
0.19
1.65
3.04
4.32
5.45
6.38
