1721064169.00
64.000000
-0.00
-0.00
-0.00
-0.00
-0.00
-0.00
-0.00
-0.00
-0.00
-0.00
0.00
0.01
0.01
-0.00
-0.03
-0.05
-0.05
0.00
0.13
0.36
0.66
1.01
1.37
1.72
2.06
2.40
2.79
3.24
3.80
4.42
5.06
5.66
6.20
6.68
7.15
7.68
8.31
9.14
10.09
11.04
11.88
12.56
13.14
13.76
14.65
15.96
17.91
20.32
22.90
25.38
27.58
29.57
31.68
34.32
37.81
42.54
48.15
54.10
59.83
64.97
69.58
74.14
79.34
85.71
93.76
103.00
112.62
121.73
129.77
136.75
143.30
150.75
157.77
166.64
177.95
191.79
206.97
220.57
228.25
225.36
208.53
176.87
132.76
80.05
23.07
-34.94
-92.44
-149.16
-205.23
-260.37
-313.74
-363.87
-409.83
-450.91
-486.50
-515.74
-537.23
-549.22
-549.96
-538.37
-514.21
-478.67
-433.88
-382.45
-327.02
-269.84
-212.63
-156.66
-102.95
-52.37
-5.90
35.58
71.43
101.35
125.50
144.38
158.69
169.15
176.37
180.75
182.57
182.07
179.51
175.23
169.65
163.18
156.15
148.81
141.30
133.69
126.02
118.33
110.69
103.16
95.80
88.68
81.83
75.25
68.95
62.95
57.25
51.86
46.78
42.03
37.59
33.45
29.61
26.07
22.81
19.83
17.11
14.67
12.48
10.54
8.83
7.35
6.07
4.97
4.05
3.27
2.62
2.09
1.65
1.30
1.01
0.79
0.61
0.48
0.37
0.30
0.25
0.21
0.19
0.19
0.20
0.22
0.24
0.28
0.31
0.36
0.40
0.45
0.49
0.54
0.59
0.64
0.69
0.74
0.80
0.86
0.93
1.00
1.08
1.17
1.28
1.40
1.53
1.69
1.86
2.06
2.28
2.52
2.79
3.09
3.42
3.78
4.18
4.61
5.07
5.56
6.09
6.66
7.27
7.91
8.59
9.32
10.08
10.89
11.74
12.63
13.57
14.56
15.62
16.73
17.91
19.14
20.40
21.63
22.79
23.77
24.44
24.62
24.16
22.91
20.78
17.75
13.89
9.32
4.24
-1.11
-6.49
-11.66
-16.43
-20.59
-23.99
-26.47
-27.96
-28.42
-27.92
-26.60
-24.69
-22.42
-20.01
-17.57
-15.15
-12.71
-10.24
-7.83
-5.68
-4.09
-3.39
-3.74
-5.07
-7.06
-9.21
-11.11
-12.54
-13.54
-14.47
-15.79
-17.75
-20.20
-22.60
-24.21
-24.44
-23.09
-20.49
-17.53
-15.27
-14.48
-15.29
-17.11
-18.93
-19.81
-19.12
-16.97
-14.16
-12.12
-12.46
-16.40
-24.11
-34.14
-43.31
-46.97
-40.40
-20.71
11.81
53.52
98.66
141.54
178.76
208.13
229.28
243.48
252.42
257.22
258.20
255.29
248.49
238.04
224.13
207.25
188.06
167.51
146.63
126.09
105.48
82.82
55.16
20.08
-22.21
-68.33
-112.73
-150.05
-177.24
-194.37
-203.83
-208.47
-210.23
-209.65
-206.86
-202.63
-198.55
-196.46
-196.97
-198.92
-199.78
-197.10
-190.05
-180.18
-170.69
-164.61
-162.78
-162.73
-159.19
-146.00
-118.76
-76.99
-24.72
30.62
80.68
118.69
141.21
148.30
142.73
128.67
110.49
92.08
76.19
64.15
55.76
49.81
44.90
40.61
37.96
38.87
44.99
56.35
70.93
85.34
96.29
101.83
101.78
96.90
88.00
75.06
57.32
33.86
4.17
-31.81
-74.16
-123.05
-178.08
-236.95
-294.49
-343.00
-374.21
-382.29
-366.08
-329.48
-279.67
-224.00
-167.21
-110.35
-51.91
9.85
74.68
139.65
200.09
251.51
291.19
318.56
334.39
339.48
333.91
317.02
288.58
249.86
203.98
155.09
106.85
60.86
15.74
-32.25
-87.46
-152.37
-225.43
-300.39
-367.60
-417.29
-443.06
-444.21
-425.52
-395.20
-361.53
-330.51
-305.06
-285.98
-273.14
-266.26
-264.74
-266.97
-270.43
-272.26
-270.15
-262.86
-249.94
-230.95
-204.77
-169.78
-124.82
-70.99
-12.22
45.58
96.29
135.47
161.56
176.19
183.66
190.17
201.35
220.95
250.14
287.15
327.54
365.42
395.58
415.26
425.73
429.12
427.49
422.59
415.80
408.04
399.88
392.00
385.22
381.98
382.45
385.56
390.79
398.75
409.98
423.34
435.71
442.56
441.03
426.22
393.39
340.50
269.01
182.57
85.76
-16.10
-126.35
-229.37
-304.45
-342.28
-351.08
-347.27
-343.91
-345.40
-348.00
-349.83
-343.18
-326.75
-304.68
-281.75
-259.78
-237.55
-213.06
-185.81
-152.95
-114.99
-76.14
-41.10
-12.22
10.79
28.95
42.13
49.16
48.96
42.40
30.34
13.54
-6.83
-28.53
-47.67
-58.88
-56.24
-35.61
2.88
52.68
102.45
140.25
157.89
153.09
128.93
91.58
47.71
3.24
-36.77
-67.51
-84.49
-84.56
-67.70
-37.78
-1.71
32.75
59.41
75.25
80.67
78.45
72.11
64.66
57.82
51.81
45.46
36.61
22.74
1.58
-28.30
-66.90
-112.43
-161.36
-208.94
-249.99
-280.08
-296.64
-299.93
-293.32
-282.56
-274.14
-272.86
-279.73
-291.31
-300.47
-298.88
-279.66
-240.09
-183.02
-116.52
-52.29
-2.97
20.62
12.12
-28.45
-94.04
-171.72
-245.68
-301.40
-329.57
-328.15
-301.97
-260.03
-211.98
-165.08
-122.86
-85.60
-51.76
-19.51
12.34
44.31
76.68
109.59
142.76
175.67
207.74
238.83
269.50
301.68
338.01
380.84
430.39
483.05
531.67
567.83
584.88
580.61
558.39
525.49
490.48
460.12
436.90
420.04
407.49
397.76
390.28
385.11
381.51
377.83
371.72
358.85
335.96
303.03
263.34
221.27
181.09
144.03
109.47
75.75
37.10
-10.96
-67.92
-128.53
-186.68
-237.13
-279.76
-315.23
-342.97
-366.72
-388.35
-404.66
-409.88
-401.82
-382.12
-360.09
-343.76
-336.79
-346.72
-378.62
-430.87
-496.69
-569.26
-640.54
-707.28
-763.90
-753.71
-646.16
-461.65
-259.56
-93.80
-4.94
29.47
33.09
21.52
-0.43
-33.14
-84.01
-152.67
-227.29
-290.65
-325.24
-326.18
-296.56
-245.14
-189.30
-144.63
-115.66
-95.92
-75.27
-44.60
-4.27
41.55
88.00
127.69
155.29
171.41
180.87
188.29
196.61
203.23
204.91
199.77
186.07
164.05
136.66
108.17
81.57
58.21
36.45
14.25
-9.66
-36.14
-64.85
-94.34
-122.94
-149.63
-174.06
-196.66
-217.63
-236.55
-252.56
-263.57
-267.96
-265.44
-257.19
-244.98
-230.28
-213.77
-195.46
-175.10
-149.23
-115.61
-74.91
-30.73
12.65
52.43
87.87
119.66
149.02
183.56
228.41
282.91
340.57
393.52
436.89
469.84
494.36
513.44
540.34
584.23
645.04
713.17
776.32
826.54
861.80
884.53
899.59
926.72
981.89
1069.06
1177.77
1289.89
1388.10
1459.94
1499.28
1420.23
1182.86
813.21
395.46
15.93
-280.78
-491.42
-633.20
-726.67
-788.84
-818.50
-814.18
-780.92
-730.65
-675.12
-619.73
-566.66
-516.95
-473.59
-430.53
-383.93
-335.15
-290.70
-257.53
-238.72
-233.66
-240.00
-255.20
-270.20
-277.63
-276.61
-270.83
-266.26
-267.83
-278.97
-301.90
-337.60
-381.34
-425.65
-462.16
-483.63
-485.50
-466.90
-431.24
-385.12
-336.13
-288.65
-243.61
-199.67
-154.97
-108.75
-61.60
-15.00
29.54
70.83
107.94
139.88
165.51
183.91
194.69
198.15
195.45
188.32
178.93
169.64
162.54
158.80
158.35
159.69
160.64
159.58
156.24
151.71
147.52
144.55
142.27
139.28
134.00
125.48
113.52
98.34
80.17
59.34
36.63
13.62
-7.45
-24.66
-37.27
-46.17
-53.34
-60.69
-68.98
-77.45
-84.33
-88.00
-87.86
-84.57
-79.53
-74.13
-69.14
-64.79
-61.12
-58.32
-56.72
-56.50
-57.36
-58.29
-58.13
-55.96
-51.67
-45.81
-39.28
-32.80
-26.65
-20.69
-14.64
-8.36
-1.91
4.45
10.54
16.21
21.36
25.91
29.80
33.06
35.82
38.26
40.51
42.54
44.15
45.06
45.11
44.42
43.30
42.22
41.55
41.41
41.57
41.54
40.80
39.01
36.17
32.55
28.54
24.41
20.26
16.04
11.83
7.93
4.87
3.25
3.39
5.27
8.43
12.37
16.74
21.59
27.28
34.20
42.24
50.90
59.47
67.38
74.35
80.41
85.78
90.71
95.31
99.28
102.33
104.46
106.11
108.07
111.21
116.29
123.71
133.31
143.58
152.14
156.31
153.67
142.69
123.24
96.79
66.25
35.06
4.71
-24.22
-51.17
-74.98
-93.99
-106.65
-111.87
-109.23
-99.09
-85.59
-72.84
-62.89
-55.23
-48.50
-42.33
-37.69
-35.95
-37.84
-48.03
-69.66
-102.06
-140.72
-179.81
-215.10
-244.49
-267.53
-284.82
-304.51
-334.98
-380.64
-440.63
-511.16
-589.49
-674.66
-766.21
-821.63
-808.28
-719.26
-578.15
-419.37
-268.81
-141.23
-43.00
26.07
71.54
95.64
100.38
91.17
74.27
56.13
41.12
31.85
30.06
36.66
46.52
54.08
57.34
54.77
49.11
43.57
40.74
42.32
49.00
57.24
62.91
63.72
60.06
54.80
50.82
50.20
54.00
62.29
72.65
82.27
89.40
93.91
97.38
101.63
108.01
117.10
128.67
141.37
153.62
164.46
173.82
182.67
192.48
204.61
220.05
239.14
261.24
284.40
305.54
320.98
327.70
324.56
312.49
294.15
272.85
251.37
231.23
212.58
194.58
176.15
156.95
137.08
116.95
97.28
79.13
63.69
51.81
43.48
37.70
34.22
32.42
31.38
30.13
27.97
24.66
20.39
15.76
11.90
13.09
22.49
40.39
63.90
88.61
110.65
127.78
139.55
146.64
154.28
165.71
180.45
195.13
206.54
214.11
219.99
227.56
239.52
262.26
297.65
341.19
383.46
414.92
430.08
428.73
414.69
359.96
255.82
115.59
-31.30
-158.39
-253.88
-318.17
-357.02
-377.14
-385.41
-381.96
-367.48
-345.13
-320.19
-297.73
-280.06
-267.33
-258.62
-254.02
-249.00
-240.19
-226.90
-211.16
-195.59
-181.82
-170.34
-156.63
-140.06
-118.67
-92.04
-61.68
-30.82
-2.93
19.47
34.65
43.10
44.40
40.25
32.44
21.93
9.11
-5.47
-20.87
-36.94
-50.34
-61.97
-73.90
-88.19
-104.98
-121.44
-132.60
-133.87
-123.82
-105.20
-84.98
-69.73
-62.93
-63.95
-69.29
-75.19
-79.82
-83.80
-89.24
-98.72
-112.69
-129.00
-143.92
-153.83
-156.83
-153.13
-144.05
-130.69
-113.51
-92.10
-66.33
-37.58
-8.76
16.80
37.26
53.29
67.66
83.17
100.69
118.11
131.12
135.42
128.96
113.19
92.41
71.79
55.00
43.01
34.38
26.79
18.59
9.80
1.69
-4.36
-7.92
-9.76
-11.03
-12.26
-12.66
-10.59
-4.80
4.54
15.47
25.08
30.94
32.21
29.99
26.58
24.35
24.75
27.87
32.79
38.20
43.03
46.67
48.87
49.43
48.14
44.81
39.60
33.11
26.38
20.55
16.50
14.62
14.87
17.07
21.17
27.24
35.32
45.20
56.18
67.17
76.83
83.86
87.14
86.05
80.53
71.32
59.82
47.84
36.91
27.98
20.97
15.07
9.07
2.03
-6.43
-16.00
-25.86
-34.97
-42.26
-46.94
-48.55
-47.14
-43.28
-37.97
-32.61
-28.58
-26.99
-28.30
-32.31
-38.18
-44.86
-51.41
-57.25
-62.25
-66.45
-69.91
-72.54
-74.14
-74.63
-74.06
-72.73
-70.93
-68.87
-66.51
-63.68
-60.22
-56.09
-51.47
-46.56
-41.57
-36.59
-31.55
-26.37
-21.05
-15.70
-10.55
-5.92
-2.03
0.97
3.12
4.58
5.61
6.48
7.41
8.56
9.97
11.63
13.47
15.36
17.19
18.90
20.39
21.63
22.58
23.15
23.20
22.62
21.35
19.52
17.34
15.11
13.05
11.24
9.49
7.54
5.11
2.12
-1.26
-4.65
-7.54
-9.53
-10.34
-9.95
-8.48
-6.11
-3.08
0.39
4.07
7.67
10.94
13.57
15.38
16.33
16.55
16.26
15.70
15.09
14.50
13.97
13.48
13.05
12.69
12.38
12.06
11.62
10.97
10.06
8.92
7.64
6.33
5.01
3.67
2.29
0.89
-0.46
-1.67
-2.65
-3.46
-4.23
-5.16
-6.43
-8.05
-9.85
-11.51
-12.68
-13.02
-12.40
-10.83
-8.49
-5.62
-2.49
0.63
3.56
6.15
8.32
10.03
11.29
12.17
12.75
13.18
13.55
13.87
14.07
14.01
13.56
12.72
11.59
10.39
9.31
8.43
7.72
7.04
6.27
5.36
4.28
3.01
1.46
-0.44
-2.65
-4.98
-7.14
-8.87
-10.12
-11.09
-12.14
-13.54
-15.38
-17.41
-19.28
-20.65
-21.32
-21.24
-20.50
-19.13
-17.18
-14.72
-11.86
-8.81
-5.80
-3.01
-0.55
1.53
3.18
4.37
5.07
5.32
5.22
4.94
4.63
4.40
4.33
4.47
4.84
5.46
6.27
7.20
8.09
8.77
9.05
8.86
8.20
7.13
5.80
4.36
2.88
1.43
-0.02
-1.52
-3.06
-4.59
-6.04
-7.31
-8.40
-9.37
-10.33
-11.34
-12.36
-13.15
-13.45
-12.98
-11.65
-9.56
-6.96
-4.12
-1.20
1.73
4.63
7.36
9.68
11.28
12.00
11.92
11.38
10.82
10.62
10.90
11.49
12.11
12.48
12.52
12.40
12.49
13.21
14.78
17.21
20.13
22.97
25.11
26.17
26.20
25.69
25.46
26.26
28.52
32.08
36.30
40.31
43.45
45.57
47.14
49.09
52.32
57.34
64.02
71.75
79.74
87.37
94.43
100.93
107.16
113.73
121.96
133.82
151.29
174.97
202.69
229.19
247.27
250.28
234.76
201.82
156.58
105.96
56.02
10.41
-29.87
-65.42
-97.18
-125.83
-152.10
-177.35
-203.84
-233.88
-268.60
-306.82
-344.84
-377.59
-400.55
-411.62
-411.87
-404.91
-395.10
-385.82
-378.31
-371.85
-364.73
-355.36
-342.74
-326.22
-304.87
-277.24
-241.76
-197.80
-146.83
-92.77
-41.45
1.25
31.27
47.75
53.28
53.01
52.92
58.00
71.19
92.66
120.23
150.14
178.31
201.67
219.03
231.45
241.55
252.26
265.41
280.61
295.19
304.80
304.76
291.54
264.36
226.04
182.80
142.56
112.28
95.32
90.28
91.90
93.72
91.26
83.57
72.86
62.38
54.33
49.05
45.68
43.87
44.44
49.14
59.27
74.43
92.16
108.77
120.62
125.32
122.17
112.04
96.95
79.40
61.74
45.63
31.60
18.98
6.46
-7.14
-22.13
-37.75
-52.40
-64.36
-72.47
-76.54
-77.36
-76.36
-75.07
-74.47
-74.66
-74.96
-74.32
-71.99
-67.98
-63.09
-58.59
-55.58
-54.59
-55.43
-57.39
-59.66
-61.58
-62.75
-62.98
-62.12
-60.04
-56.66
-51.96
-46.04
-39.09
-31.32
-22.93
-14.07
-4.70
5.33
16.29
28.43
41.87
56.51
71.92
87.45
102.44
116.32
128.71
139.28
147.42
152.01
151.48
144.18
129.08
106.24
77.02
43.88
9.78
-22.43
-50.40
-72.61
-88.49
-98.36
-103.40
-105.23
-105.51
-105.38
-105.31
-105.14
-104.47
-103.06
-100.95
-98.35
-95.44
-92.17
-88.44
-84.22
-79.86
-76.01
-73.50
-72.92
-74.45
-77.66
-81.70
-85.47
-87.94
-88.34
-86.28
-81.80
-75.32
-67.47
-59.02
-50.61
-42.72
-35.58
-29.23
-23.62
-18.72
-14.50
-10.99
-8.22
-6.26
-5.22
-5.25
-6.47
-8.84
-11.96
-15.14
-17.49
-18.33
-17.52
-15.54
-13.38
-12.03
-12.01
-13.16
-14.76
-15.96
-16.23
-15.60
-14.50
-13.39
-12.45
-11.47
-10.11
-8.16
-5.76
-3.34
-1.46
-0.50
-0.63
-1.72
-3.45
-5.44
-7.26
-8.55
-9.09
-8.84
-7.98
-6.85
-5.79
-4.94
-4.26
-3.47
-2.22
-0.23
2.70
6.70
11.80
17.90
24.67
31.50
37.52
41.80
43.67
42.91
39.80
34.98
29.24
23.31
17.78
13.09
9.52
7.10
5.63
4.64
3.55
1.84
-0.82
-4.45
-8.91
-13.91
-19.19
-24.55
-29.84
-34.90
-39.56
-43.66
-47.02
-49.38
-50.44
-49.86
-47.30
-42.55
-35.64
-26.94
-17.39
-8.36
-1.46
2.02
1.63
-2.01
-7.30
-12.31
-15.39
-15.78
-13.59
-9.54
-4.45
1.13
6.91
12.72
18.26
23.07
26.59
28.47
28.69
27.54
25.53
23.13
20.61
18.00
15.25
12.29
9.24
6.52
4.74
4.54
6.28
9.73
14.04
17.94
20.10
19.63
16.28
10.42
2.88
-5.24
-12.51
-17.10
-17.09
-10.87
1.98
20.24
40.98
60.52
75.49
83.92
85.65
82.06
75.29
67.47
60.26
54.67
51.19
49.74
49.65
49.59
47.67
42.04
31.46
15.99
-2.87
-22.42
-39.57
-51.65
-57.03
-55.40
-47.72
-36.04
-23.17
-12.30
-6.45
-7.84
-17.38
-34.46
-57.14
-82.63
-107.77
-129.44
-144.91
-152.03
-149.66
-137.89
-118.14
-92.80
-64.59
-35.94
-8.59
16.38
38.13
55.92
68.99
76.85
79.62
78.13
73.95
68.97
65.04
63.56
65.29
70.31
78.11
87.57
97.29
105.72
111.52
113.70
111.65
105.17
94.37
79.81
62.53
44.17
26.73
12.09
1.49
-4.98
-8.38
-10.50
-13.11
-17.13
-22.31
-27.48
-31.25
-32.80
-32.42
-31.54
-32.01
-35.33
-41.79
-50.29
-58.72
-64.74
-66.72
-64.45
-59.14
-53.05
-48.58
-47.47
-50.20
-55.53
-60.58
-61.07
-52.31
-30.69
4.34
49.00
95.60
134.80
159.29
166.73
160.66
148.49
137.87
133.37
135.26
140.78
146.72
151.28
154.38
156.38
156.66
153.01
142.40
122.49
92.95
55.90
15.36
-23.73
-56.82
-80.70
-94.16
-98.14
-95.36
-89.43
-83.84
-81.09
-82.37
-87.53
-95.52
-104.65
-113.00
-118.73
-120.62
-118.42
-113.21
-106.78
-101.05
-97.05
-94.68
-93.01
-91.23
-89.36
-88.48
-90.01
-94.58
-101.14
-106.73
-107.35
-99.29
-80.62
-51.91
-16.24
21.54
55.98
82.25
97.36
101.14
96.68
89.69
86.98
93.98
112.63
140.41
171.14
197.35
213.07
215.76
206.57
188.95
166.78
142.85
118.56
94.57
71.62
50.92
33.81
21.09
12.49
6.78
2.30
-2.27
-7.45
-12.92
-17.87
-21.60
-23.86
-25.06
-26.01
-27.61
-30.35
-34.04
-37.79
-40.36
-40.75
-38.75
-35.14
-31.45
-29.25
-29.46
-31.88
-35.34
-38.23
-39.23
-37.85
-34.50
-30.22
-26.14
-23.10
-21.39
-20.80
-20.81
-20.84
-20.42
-19.36
-17.85
-16.37
-15.58
-15.99
-17.73
-20.45
-23.50
-26.17
-28.02
-28.92
-28.95
-28.25
-26.90
-24.86
-22.13
-18.84
-15.26
-11.71
-8.42
-5.52
-3.01
-0.81
1.21
3.17
5.15
7.13
8.87
10.03
10.25
9.42
7.74
5.71
3.94
2.86
2.66
3.25
4.38
5.80
7.23
8.49
9.39
9.76
9.52
8.66
7.26
5.31
2.72
-0.76
-5.29
-10.88
-17.17
-23.56
-29.35
-33.95
-37.03
-38.56
-38.82
-38.18
-37.01
-35.57
-33.88
-31.69
-28.66
-24.42
-18.78
-11.90
-4.29
3.28
10.03
15.45
19.38
22.09
24.05
25.74
27.35
28.84
29.95
30.49
30.43
30.01
29.54
29.29
29.33
29.55
29.79
29.85
29.55
28.67
26.93
24.06
19.94
14.68
8.64
2.28
-3.99
-9.93
-15.47
-20.60
-25.26
-29.31
-32.53
-34.82
-36.32
-37.41
-38.63
-40.41
-42.74
-45.06
-46.42
-45.82
-42.60
-36.77
-28.86
-19.53
-9.33
1.46
12.52
23.09
31.80
37.05
37.70
33.69
26.23
17.29
8.76
1.72
-3.72
-8.08
-11.83
-14.98
-17.10
-17.73
-16.83
-14.92
-12.86
-11.32
-10.49
-9.94
-9.02
-7.20
-4.41
-1.09
2.07
4.43
5.83
6.82
8.59
12.68
20.44
32.22
46.97
62.32
75.31
83.62
86.67
85.95
84.53
85.81
92.06
103.73
119.42
136.62
152.63
165.22
172.83
174.62
170.35
160.31
145.36
126.90
106.70
86.59
68.06
51.97
38.33
26.42
15.08
3.31
-9.29
-22.24
-34.29
-44.00
-50.46
-53.80
-55.27
-56.89
-60.70
-67.94
-78.55
-91.03
-102.77
-110.71
-112.18
-105.69
-91.41
-71.26
-48.35
-26.40
-8.74
2.23
5.43
1.20
-9.00
-22.86
-37.72
-51.00
-60.70
-65.75
-66.07
-62.50
-56.44
-49.39
-42.56
-36.64
-31.73
-27.52
-23.60
-19.71
-16.03
-13.07
-11.51
-11.81
-13.98
-17.53
-21.62
-25.32
-27.92
-29.06
-28.73
-27.19
-24.89
-22.23
-19.38
-16.14
-11.90
-5.91
2.30
12.38
22.94
31.61
35.59
32.53
21.25
2.16
-22.89
-51.22
-80.12
-107.73
-133.40
-157.70
-181.90
-207.10
-233.46
-259.50
-282.23
-297.76
-302.42
-294.06
-272.58
-239.93
-199.10
-153.27
-105.18
-57.32
-12.37
26.62
56.83
76.57
86.33
88.73
87.51
86.04
86.01
87.36
89.01
89.93
89.96
89.69
89.94
91.02
92.50
93.36
92.64
89.88
85.31
79.73
74.07
68.99
64.64
60.66
56.42
51.43
45.55
39.02
32.40
26.24
20.86
16.26
12.21
8.32
4.26
-0.16
-4.94
-9.76
-14.19
-17.65
-19.67
-19.97
-18.63
-15.89
-12.18
-7.98
-3.63
0.59
4.45
7.78
10.45
12.38
13.63
14.37
14.84
15.27
15.79
16.34
16.86
17.34
17.86
18.58
19.56
20.68
21.60
21.91
21.42
20.28
18.95
17.95
17.57
17.71
18.01
18.03
17.46
16.30
14.76
13.04
11.28
9.49
7.71
6.01
4.48
3.26
2.28
1.43
0.50
-0.65
-1.91
-3.06
-3.66
-3.36
-1.93
0.59
3.96
7.77
11.61
15.11
18.07
20.43
22.22
23.57
24.47
24.88
24.69
23.82
22.34
20.41
18.36
16.52
15.18
14.47
14.41
14.94
16.02
17.57
19.54
21.79
24.11
26.25
27.94
28.98
29.39
29.30
29.02
28.87
29.04
29.54
30.12
30.39
30.08
29.17
28.02
27.23
27.31
28.30
29.65
30.47
30.07
28.46
26.69
26.49
29.61
36.66
46.50
56.11
61.27
57.75
42.32
13.46
-28.48
-81.11
-139.94
-198.54
-249.13
-284.09
-297.72
-287.95
-256.99
-210.51
-156.00
-100.77
-50.59
-9.36
20.56
38.07
43.46
38.86
28.34
17.30
11.04
13.06
24.08
41.89
62.39
80.79
92.94
96.14
89.49
73.93
51.96
27.05
2.71
-18.41
-35.30
-48.58
-59.92
-71.05
-82.95
-95.67
-108.71
-121.65
-134.33
-146.54
-157.42
-165.08
-167.01
-161.07
-146.53
-124.51
-97.57
-68.25
-37.61
-4.83
31.86
73.10
116.89
158.21
190.45
207.97
208.31
193.06
167.05
136.49
107.23
83.72
68.84
64.06
69.42
83.29
102.38
122.32
138.89
149.22
152.35
148.78
139.54
125.53
107.43
86.28
64.22
44.53
30.61
24.10
23.52
24.06
19.22
3.32
-26.13
-67.34
-115.06
-162.63
-204.16
-235.94
-256.59
-266.17
-265.16
-254.00
-233.38
-204.98
-171.78
-137.85
-107.19
-82.46
-64.22
-51.01
-40.48
-30.64
-20.55
-10.09
0.69
12.28
25.84
42.63
63.07
86.38
110.66
133.74
154.07
171.25
185.71
197.80
207.37
213.91
217.60
220.19
224.99
235.50
253.19
275.77
296.98
308.53
303.38
278.89
237.96
187.64
136.04
89.37
50.49
19.47
-4.94
-23.75
-37.44
-46.53
-52.16
-56.12
-60.21
-65.31
-71.04
-76.16
-79.68
-81.70
-83.73
-87.97
-95.95
-107.40
-119.86
-129.57
-132.96
-128.22
-115.84
-98.15
-78.06
-57.98
-39.36
-22.86
-8.68
3.34
13.85
23.89
34.29
44.90
54.09
59.33
58.60
51.63
40.22
27.07
14.22
2.18
-9.82
-22.60
-36.11
-49.33
-61.15
-71.17
-79.94
-88.33
-96.52
-103.58
-107.77
-107.40
-101.78
-91.62
-78.66
-64.83
-51.51
-39.21
-27.71
-16.60
-5.88
3.91
11.69
16.27
16.74
12.82
5.10
-4.90
-14.76
-21.56
-22.80
-17.31
-5.88
8.89
23.60
35.28
42.21
44.06
41.12
33.85
22.61
8.16
-8.10
-24.21
-38.41
-49.89
-58.78
-65.57
-70.17
-71.67
-69.01
-62.20
-53.26
-46.18
-45.77
-55.92
-77.94
-109.93
-147.01
-182.51
-209.50
-222.14
-216.47
-191.12
-147.52
-90.30
-27.20
31.68
75.56
95.13
84.66
43.72
-22.43
-103.66
-187.24
-260.62
-314.18
-342.91
-346.61
-328.79
-294.81
-250.02
-198.54
-143.03
-85.10
-25.84
33.77
93.29
153.32
215.53
281.81
352.66
425.56
494.52
551.48
588.89
602.90
595.24
572.70
544.36
517.63
495.43
475.88
454.45
427.32
393.76
356.37
319.32
285.83
256.75
230.71
205.55
179.79
153.23
126.48
99.82
72.54
43.09
10.14
-26.43
-65.17
-103.60
-139.14
-169.75
-194.06
-211.08
-219.99
-220.38
-212.76
-199.03
-182.32
-166.17
-153.34
-145.16
-141.65
-142.23
-146.48
-154.38
-165.89
-180.39
-196.45
-212.12
-225.48
-234.92
-239.26
-237.46
-228.72
-212.81
-190.66
-164.66
-138.52
-116.27
-101.13
-94.46
-95.46
-101.64
-109.77
-116.82
-120.58
-119.80
-113.97
-103.09
-87.62
-68.64
-48.08
-28.49
-12.41
-1.48
4.09
5.56
4.97
4.28
4.73
6.62
9.55
12.77
15.48
16.96
16.85
15.22
12.84
11.04
11.23
14.22
19.85
26.97
34.07
40.05
44.73
48.87
53.66
60.00
67.88
76.28
83.57
88.20
89.47
87.69
83.75
78.49
72.07
64.05
53.99
42.31
30.58
21.21
16.31
16.63
21.08
27.25
32.53
35.34
35.61
34.35
32.84
31.76
31.01
30.19
29.17
28.60
29.66
33.47
40.29
49.19
58.28
65.51
69.54
70.24
68.72
66.68
65.67
66.43
68.69
71.47
73.71
74.87
75.22
75.78
77.79
82.04
88.54
96.42
104.40
111.41
117.18
122.44
128.64
137.34
149.47
164.97
182.72
200.94
217.71
231.24
239.94
242.67
239.26
231.05
220.83
211.95
206.56
204.13
201.10
192.32
173.62
143.99
106.29
65.83
27.75
-5.20
-33.24
-58.45
-82.79
-106.66
-128.85
-147.74
-162.66
-174.68
-186.28
-200.39
-219.31
-244.14
-274.85
-310.47
-349.21
-388.22
-423.42
-449.69
-461.93
-456.69
-433.64
-396.19
-350.56
-303.73
-261.23
-225.87
-197.82
-175.82
-158.41
-144.41
-132.31
-119.41
-101.52
-74.30
-35.38
13.73
67.30
117.03
155.05
176.52
180.76
170.51
150.09
123.46
93.20
60.57
26.35
-8.25
-41.28
-70.41
-93.63
-110.05
-120.29
-126.19
-130.06
-133.65
-137.49
-140.75
-142.00
-140.04
-134.56
-126.34
-116.82
-107.69
-100.45
-96.09
-94.97
-96.61
-99.65
-102.05
-101.58
-96.60
-86.72
-73.10
-57.92
-43.59
-31.80
-23.03
-16.73
-11.87
-7.73
-4.32
-2.31
-2.44
-4.95
-9.16
-13.52
-16.14
-15.48
-10.85
-2.58
8.07
19.45
29.96
38.62
45.28
50.63
55.71
61.16
66.67
71.01
72.62
70.63
65.63
59.65
55.15
53.76
55.37
58.32
60.57
60.74
58.53
54.15
47.72
38.98
27.89
15.32
3.07
-7.00
-13.90
-17.70
-18.62
-16.14
-9.13
2.66
16.89
28.28
30.60
19.96
-2.43
-30.18
-54.57
-68.51
-69.40
-59.27
-42.55
-23.33
-3.74
15.80
35.41
54.68
72.64
88.46
102.16
114.51
126.42
137.76
146.76
150.14
144.26
126.83
98.65
64.37
31.57
8.45
0.92
10.42
33.59
63.98
94.68
120.70
139.84
151.94
157.58
156.91
149.64
135.84
116.47
93.15
67.08
38.11
5.14
-32.48
-73.28
-113.22
-146.99
-170.56
-183.59
-190.05
-196.61
-209.34
-230.76
-258.62
-287.16
-310.19
-324.08
-329.19
-328.88
-326.92
-324.82
-320.67
-310.30
-290.01
-259.14
-221.00
-181.39
-145.57
-115.61
-89.59
-63.03
-31.35
7.98
54.98
108.47
167.58
232.30
302.28
374.75
443.31
498.70
531.72
536.95
515.33
473.97
423.40
373.68
331.15
297.30
269.98
245.64
221.48
196.32
170.34
144.21
118.48
93.55
69.95
48.53
30.38
16.32
6.43
-0.06
-4.43
-7.93
-11.26
-14.41
-16.80
-17.54
-15.74
-10.71
-2.08
9.90
24.16
38.88
51.82
61.18
66.36
68.31
68.96
70.02
71.57
71.35
65.55
50.53
24.88
-9.64
-48.97
-88.66
-125.91
-160.31
-192.90
-224.47
-254.49
-281.56
-305.14
-327.01
-351.17
-381.69
-419.77
-461.75
-499.77
-524.69
-529.79
-513.43
-479.19
-433.76
-383.83
-333.86
-285.35
-237.60
-189.31
-139.59
-88.11
-34.58
21.65
81.29
144.14
208.21
269.50
323.04
364.63
392.48
407.79
414.19
416.08
416.97
418.50
420.27
420.61
417.59
409.82
396.86
379.15
357.77
334.02
309.03
283.67
258.47
233.86
210.15
187.40
165.27
142.88
119.20
93.52
66.06
38.12
11.67
-11.35
-29.83
-43.80
-54.28
-62.67
-70.15
-77.27
-83.94
-89.79
-94.47
-97.91
-100.23
-101.68
-102.39
-102.39
-101.63
-100.01
-97.52
-94.28
-90.51
-86.53
-82.63
-78.97
-75.55
-72.28
-69.05
-65.84
-62.77
-60.00
-57.60
-55.51
-53.53
-51.39
-48.97
-46.32
-43.64
-41.21
-39.19
-37.62
-36.38
-35.28
-34.26
-33.31
-32.57
-32.15
-32.07
-32.15
-32.13
-31.67
-30.57
-28.77
-26.33
-23.39
-20.12
-16.66
-13.17
-9.85
-6.92
-4.60
-2.99
-2.09
-1.81
-2.01
-2.53
-3.24
-4.05
-4.85
-5.57
-6.16
-6.58
-6.85
-7.00
-7.04
-7.00
-6.85
-6.62
-6.39
-6.33
-6.63
-7.42
-8.76
-10.50
-12.43
-14.23
-15.68
-16.71
-17.44
-18.08
-18.83
-19.73
-20.65
-21.30
-21.42
-20.88
-19.67
-17.95
-15.90
-13.69
-11.44
-9.22
-7.12
-5.23
-3.62
-2.29
-1.21
-0.30
0.50
1.22
1.80
2.17
2.28
2.14
1.86
1.61
1.59
1.87
2.41
3.07
3.68
4.11
4.25
4.07
3.52
2.59
1.31
-0.16
-1.60
-2.79
-3.63
-4.20
-4.72
-5.48
-6.67
-8.30
-10.18
-11.97
-13.28
-13.82
-13.49
-12.40
-10.79
-8.96
-7.08
-5.23
-3.38
-1.53
0.24
1.77
2.92
3.62
3.96
4.08
4.11
4.08
3.96
3.70
3.33
2.90
2.48
2.08
1.69
1.27
0.89
0.68
0.76
1.13
1.65
2.10
2.29
2.13
1.67
1.02
0.26
-0.65
-1.84
-3.40
-5.39
-7.67
-9.99
-12.04
-13.51
-14.17
-13.95
-12.91
-11.20
-9.05
-6.65
-4.19
-1.79
0.46
2.44
4.08
5.34
6.24
6.89
7.38
7.81
8.19
8.45
8.57
8.56
8.49
8.46
8.58
8.90
9.40
9.99
10.48
10.63
10.20
9.03
7.11
4.63
1.95
-0.58
-2.75
-4.57
-6.28
-8.15
-10.32
-12.71
-15.07
-17.11
-18.66
-19.64
-20.14
-20.21
-19.89
-19.15
-17.97
-16.33
-14.31
-12.02
-9.61
-7.23
-5.01
-2.99
-1.18
0.57
2.46
4.64
7.09
9.63
11.87
13.47
14.24
14.25
13.76
13.13
12.60
12.19
11.76
11.07
10.00
8.58
7.01
5.52
4.28
3.31
2.48
1.66
0.75
-0.26
-1.32
-2.42
-3.60
-4.94
-6.48
-8.14
-9.72
-10.95
-11.59
-11.54
-10.81
-9.48
-7.66
-5.42
-2.85
-0.12
2.43
4.40
5.50
5.60
4.97
4.08
3.41
3.26
3.63
4.25
4.76
4.97
4.89
4.78
4.91
5.36
6.06
6.71
7.06
6.97
6.56
5.96
5.32
4.60
3.63
2.26
0.47
-1.54
-3.42
-4.90
-5.90
-6.57
-7.22
-8.15
-9.45
-11.01
-12.57
-13.82
-14.52
-14.53
-13.81
-12.37
-10.25
-7.53
-4.36
-0.95
2.41
5.47
8.04
10.03
11.40
12.19
12.43
12.15
11.40
10.27
8.91
7.49
6.23
5.28
4.74
4.56
4.61
4.73
4.78
4.70
4.49
4.22
3.91
3.55
3.10
2.51
1.79
0.94
-0.01
-1.00
-1.98
-2.91
-3.72
-4.38
-4.92
-5.45
-6.12
-7.07
-8.35
-9.83
-11.27
-12.40
-12.94
-12.79
-11.98
-10.71
-9.24
-7.75
-6.34
-4.93
-3.41
-1.70
0.13
1.88
3.32
4.30
4.86
5.19
5.53
6.05
6.74
7.45
7.98
8.21
8.12
7.81
7.40
6.99
6.62
6.25
5.82
5.28
4.60
3.80
2.96
2.11
1.27
0.38
-0.58
-1.62
-2.64
-3.53
-4.19
-4.64
-5.00
-5.45
-6.11
-7.02
-8.10
-9.20
-10.23
-11.03
-11.53
-11.59
-11.14
-10.16
-8.79
-7.22
-5.67
-4.24
-2.90
-1.55
-0.14
1.25
2.43
3.21
3.58
3.74
4.04
4.67
5.64
6.66
7.36
7.58
7.46
7.35
7.57
8.13
8.67
8.72
7.95
6.50
4.85
3.59
3.03
3.07
3.28
3.18
2.49
1.26
-0.27
-1.84
-3.28
-4.54
-5.62
-6.46
-7.01
-7.29
-7.43
-7.72
-8.42
-9.68
-11.40
-13.25
-14.86
-15.87
-16.14
-15.63
-14.45
-12.73
-10.55
-8.01
-5.26
-2.50
-0.00
2.04
3.56
4.61
5.35
5.96
6.58
7.30
8.18
9.21
10.36
11.49
12.41
12.91
12.89
12.36
11.51
10.53
9.55
8.58
7.49
6.17
4.56
2.77
0.97
-0.59
-1.78
-2.59
-3.13
-3.59
-4.08
-4.61
-5.12
-5.49
-5.69
-5.75
-5.84
-6.11
-6.71
-7.66
-8.93
-10.36
-11.79
-13.00
-13.77
-13.94
-13.39
-12.15
-10.30
-7.99
-5.43
-2.85
-0.42
1.70
3.47
4.92
6.11
7.12
7.96
8.57
8.84
8.72
8.31
7.79
7.41
7.34
7.64
8.23
8.97
9.70
10.30
10.65
10.70
10.36
9.64
8.62
7.42
6.22
5.13
4.21
3.36
2.47
1.48
0.36
-0.79
-1.88
-2.78
-3.47
-4.00
-4.52
-5.25
-6.38
-8.05
-10.28
-12.92
-15.73
-18.36
-20.49
-21.90
-22.45
-22.14
-20.98
-19.04
-16.42
-13.29
-9.88
-6.46
-3.29
-0.56
1.67
3.40
4.72
5.73
6.49
7.07
7.50
7.84
8.12
8.38
8.68
9.03
9.48
10.01
10.63
11.29
11.92
12.43
12.71
12.70
12.34
11.66
10.67
9.43
8.04
6.57
5.12
3.79
2.58
1.46
0.34
-0.85
-2.13
-3.50
-4.91
-6.36
-7.89
-9.59
-11.56
-13.83
-16.33
-18.85
-21.07
-22.67
-23.35
-22.95
-21.43
-18.93
-15.65
-11.87
-7.91
-4.04
-0.50
2.57
5.12
7.14
8.71
9.89
10.72
11.23
11.47
11.53
11.52
11.56
11.73
12.07
12.57
13.16
13.82
14.49
15.14
15.72
16.14
16.35
16.32
16.10
15.77
15.41
15.05
14.66
14.13
13.33
12.25
11.01
9.81
8.83
8.14
7.63
7.05
6.15
4.76
2.84
0.51
-2.04
-4.60
-6.95
-8.97
-10.59
-11.87
-12.92
-13.85
-14.76
-15.68
-16.71
-17.96
-19.56
-21.53
-23.69
-25.67
-26.98
-27.21
-26.25
-24.25
-21.55
-18.50
-15.28
-11.97
-8.56
-5.06
-1.64
1.51
4.22
6.41
8.14
9.53
10.65
11.51
12.00
12.07
11.72
11.12
10.55
10.25
10.35
10.83
11.45
11.99
12.25
12.17
11.81
11.28
10.66
9.97
9.19
8.28
7.23
6.05
4.71
3.18
1.38
-0.70
-2.97
-5.28
-7.49
-9.43
-11.09
-12.53
-13.89
-15.31
-16.91
-18.73
-20.66
-22.52
-23.98
-24.73
-24.50
-23.18
-20.86
-17.75
-14.14
-10.24
-6.20
-2.07
2.04
5.96
9.44
12.19
14.03
14.95
15.16
15.00
14.76
14.61
14.54
14.42
14.13
13.67
13.15
12.80
12.75
13.04
13.50
13.88
13.93
13.52
12.67
11.55
10.41
9.39
8.54
7.80
7.01
6.01
4.70
3.05
1.12
-1.02
-3.24
-5.43
-7.52
-9.49
-11.34
-13.14
-14.97
-16.88
-18.85
-20.84
-22.68
-24.14
-24.94
-24.80
-23.51
-21.05
-17.56
-13.35
-8.82
-4.29
-0.07
3.65
6.74
9.08
10.65
11.50
11.79
11.76
11.66
11.71
12.01
12.55
13.23
13.95
14.64
15.27
15.90
16.57
17.27
17.97
18.53
18.79
18.64
17.99
16.81
15.13
13.08
10.83
8.60
6.55
4.79
3.32
2.04
0.83
-0.44
-1.87
-3.52
-5.35
-7.31
-9.35
-11.38
-13.38
-15.40
-17.50
-19.72
-22.04
-24.29
-26.23
-27.56
-28.01
-27.41
-25.62
-22.64
-18.63
-13.83
-8.67
-3.64
0.87
4.62
7.64
10.09
12.17
13.98
15.55
16.81
17.75
18.45
19.02
19.53
20.01
20.40
20.61
20.60
20.37
19.95
19.37
18.67
17.82
16.85
15.78
14.61
13.35
11.98
10.56
9.13
7.73
6.35
4.93
3.39
1.70
-0.10
-1.86
-3.46
-4.88
-6.25
-7.79
-9.67
-11.97
-14.56
-17.27
-19.88
-22.25
-24.27
-25.80
-26.70
-26.77
-25.89
-23.98
-21.12
-17.47
-13.30
-8.91
-4.56
-0.50
3.10
6.19
8.76
10.83
12.43
13.56
14.28
14.73
15.12
15.67
16.49
17.47
18.37
18.93
19.00
18.67
18.23
17.94
17.96
18.20
18.40
18.23
17.54
16.34
14.76
13.01
11.23
9.51
7.87
6.30
4.81
3.34
1.83
0.20
-1.64
-3.74
-6.06
-8.51
-11.00
-13.48
-15.96
-18.52
-21.23
-24.12
-27.04
-29.72
-31.73
-32.60
-32.03
-29.89
-26.35
-21.81
-16.72
-11.52
-6.55
-2.01
2.00
5.48
8.40
10.79
12.66
14.04
14.98
15.52
15.77
15.79
15.64
15.39
15.08
14.82
14.68
14.71
14.93
15.31
15.75
16.11
16.22
15.96
15.20
13.96
12.35
10.60
8.98
7.68
6.76
6.11
5.55
4.87
3.95
2.78
1.42
-0.04
-1.53
-3.04
-4.61
-6.30
-8.21
-10.36
-12.75
-15.26
-17.70
-19.81
-21.28
-21.84
-21.24
-19.39
-16.34
-12.37
-7.91
-3.47
0.54
3.88
6.54
8.66
10.41
11.89
13.06
13.82
14.10
13.97
13.58
13.15
12.83
12.70
12.76
13.01
13.43
14.03
14.75
15.45
15.93
15.97
15.37
14.11
12.29
10.12
7.85
5.70
3.79
2.14
0.65
-0.83
-2.42
-4.19
-6.06
-7.91
-9.61
-11.09
-12.43
-13.83
-15.54
-17.76
-20.59
-23.92
-27.53
-31.12
-34.29
-36.65
-37.84
-37.59
-35.81
-32.62
-28.30
-23.24
-17.81
-12.36
-7.15
-2.39
1.76
5.29
8.26
10.82
13.14
15.33
17.33
18.99
20.15
20.73
20.80
20.58
20.31
20.18
20.24
20.41
20.50
20.32
19.74
18.68
17.20
15.37
13.33
11.17
8.97
6.84
4.84
3.05
1.45
-0.02
-1.47
-3.01
-4.71
-6.59
-8.62
-10.79
-13.10
-15.58
-18.26
-21.10
-23.95
-26.52
-28.45
-29.34
-28.91
-27.05
-23.88
-19.71
-14.96
-10.07
-5.42
-1.22
2.38
5.33
7.66
9.35
10.49
11.21
11.65
11.99
12.33
12.71
13.09
13.39
13.61
13.78
13.97
14.23
14.52
14.71
14.68
14.36
13.79
13.11
12.45
11.86
11.28
10.58
9.64
8.43
7.02
5.51
3.98
2.49
1.02
-0.44
-1.89
-3.34
-4.87
-6.57
-8.57
-10.86
-13.32
-15.68
-17.54
-18.56
-18.48
-17.26
-15.00
-11.86
-8.07
-3.76
0.90
5.76
10.61
15.20
19.26
22.56
24.94
26.33
26.77
26.41
25.40
23.94
22.18
20.33
18.47
16.66
14.90
13.12
11.29
9.40
7.54
5.82
4.36
3.21
2.31
1.48
0.48
-0.88
-2.68
-4.91
-7.44
-10.08
-12.66
-15.03
-17.10
-18.82
-20.17
-21.14
-21.77
-22.19
-22.59
-23.20
-24.14
-25.38
-26.68
-27.59
-27.68
-26.65
-24.42
-21.16
-17.18
-12.82
-8.36
-3.96
0.26
4.23
7.86
11.04
13.63
15.45
16.40
16.47
15.81
14.70
13.51
12.52
11.85
11.41
10.95
10.23
9.08
7.50
5.64
3.68
1.74
-0.15
-2.02
-3.96
-6.01
-8.14
-10.27
-12.35
-14.30
-16.07
-17.65
-18.98
-20.02
-20.67
-20.94
-20.85
-20.54
-20.21
-20.08
-20.34
-21.14
-22.54
-24.52
-26.99
-29.80
-32.79
-35.74
-38.37
-40.39
-41.44
-41.26
-39.81
-37.36
-34.41
-31.58
-29.34
-27.80
-26.63
-25.15
-22.49
-17.81
-10.56
-0.60
11.64
25.19
38.70
50.72
60.11
66.24
68.96
68.52
65.16
59.15
50.66
40.00
27.75
14.82
2.29
-8.81
-17.81
-24.65
-29.98
-35.04
-41.21
-49.43
-59.46
-69.64
-77.16
-79.01
-73.03
-58.74
-37.52
-12.12
14.14
38.18
57.68
71.41
79.36
82.58
83.05
82.97
84.11
87.24
91.95
97.13
101.57
104.64
106.39
107.25
107.43
106.65
104.31
100.20
94.90
89.92
86.90
86.64
88.35
89.62
87.38
79.15
64.15
43.48
19.59
-4.75
-27.38
-47.12
-63.67
-77.19
-87.97
-96.36
-102.82
-108.03
-112.64
-116.98
-120.57
-121.92
-118.93
-109.79
-93.96
-72.92
-49.85
-28.62
-12.23
-1.81
3.54
5.83
6.90
7.59
7.71
6.84
5.08
3.39
3.10
5.10
9.21
14.22
18.59
21.33
22.51
23.18
24.68
27.84
32.47
37.44
41.29
42.92
42.04
39.15
35.12
30.79
26.77
23.58
21.86
22.45
25.93
32.02
39.11
44.62
45.99
41.88
32.75
20.43
6.79
-7.47
-23.13
-41.71
-64.21
-90.14
-117.74
-144.68
-168.92
-188.94
-203.23
-209.81
-206.26
-190.57
-162.35
-123.43
-77.55
-29.14
17.82
60.59
97.48
127.39
149.42
163.04
168.48
166.98
160.61
151.62
141.73
131.80
121.92
111.96
102.09
93.00
85.71
81.03
79.04
78.95
79.25
78.26
74.60
67.61
57.35
44.56
30.27
15.59
1.35
-11.99
-24.40
-36.15
-47.57
-58.87
-69.96
-80.45
-89.75
-97.25
-102.56
-105.57
-106.46
-105.53
-103.04
-99.13
-93.84
-87.26
-79.64
-71.51
-63.63
-56.77
-51.48
-47.87
-45.59
-43.89
-41.95
-39.10
-35.11
-30.26
-25.26
-21.06
-18.54
-18.24
-20.11
-23.51
-27.31
-30.19
-31.01
-29.06
-24.37
-17.64
-10.04
-2.85
2.98
7.00
9.37
10.62
11.34
12.05
12.94
14.01
15.10
15.92
16.19
15.65
14.17
11.84
9.04
6.34
4.30
3.24
3.13
3.58
4.08
4.15
3.60
2.43
0.84
-0.93
-2.70
-4.31
-5.67
-6.74
-7.54
-8.13
-8.60
-9.01
-9.32
-9.35
-8.88
-7.69
-5.69
-3.04
-0.09
2.74
5.07
6.76
7.87
8.61
9.21
9.84
10.54
11.30
12.09
12.87
13.64
14.36
14.93
15.28
15.39
15.34
15.28
15.36
15.61
15.96
16.23
16.22
15.88
15.27
14.55
13.90
13.43
13.16
13.04
12.94
12.70
12.13
10.99
9.10
6.41
3.01
-0.84
-4.81
-8.64
-12.17
-15.29
-17.90
-19.85
-20.88
-20.74
-19.26
-16.45
-12.54
-7.89
-2.91
2.04
6.74
11.13
15.25
19.25
23.26
27.35
31.43
35.25
38.48
40.78
41.92
41.91
40.98
39.54
38.06
36.94
36.45
36.67
37.52
38.83
40.40
42.07
43.79
45.59
47.52
49.45
51.13
52.18
52.21
50.94
48.10
43.41
36.62
27.63
16.74
4.72
-7.40
-18.74
-28.92
-38.15
-46.81
-54.97
-62.04
-66.99
-68.93
-67.85
-64.75
-61.27
-58.93
-58.38
-59.27
-60.68
-61.76
-62.31
-62.80
-63.95
-66.17
-69.19
-72.05
-73.54
-72.75
-69.51
-64.52
-59.11
-54.69
-52.23
-51.82
-52.68
-53.41
-52.69
-49.74
-44.69
-38.41
-32.07
-26.52
-22.12
-18.70
-15.67
-11.86
-5.24
6.86
26.82
55.08
88.76
121.46
144.96
152.35
140.98
113.85
78.40
43.30
15.15
-3.43
-13.50
-17.79
-18.72
-17.34
-13.64
-7.70
-0.50
6.01
9.66
9.16
4.87
-1.29
-6.85
-9.85
-9.84
-7.88
-5.88
-5.50
-7.26
-10.32
-12.99
-13.66
-11.64
-7.39
-2.35
1.83
3.88
3.25
0.15
-4.55
-9.70
-14.15
-17.09
-18.31
-18.23
-17.63
-17.26
-17.56
-18.52
-19.94
-21.57
-23.24
-24.79
-25.94
-26.23
-25.29
-23.16
-20.39
-17.94
-16.69
-16.98
-18.40
-19.97
-20.59
-19.55
-16.71
-12.49
-7.53
-2.43
2.52
7.30
11.99
16.58
20.81
24.24
26.41
27.13
26.59
25.31
23.91
22.86
22.28
22.00
21.71
21.24
20.53
19.63
18.55
17.22
15.54
13.46
11.10
8.64
6.24
3.98
1.80
-0.36
-2.58
-4.80
-6.96
-8.97
-10.81
-12.48
-13.97
-15.29
-16.42
-17.40
-18.29
-19.14
-19.98
-20.75
-21.27
-21.33
-20.67
-19.13
-16.63
-13.19
-9.02
-4.39
0.30
4.68
8.39
11.24
13.17
14.33
14.98
15.44
15.96
16.64
17.41
18.08
18.46
18.45
18.10
17.53
16.93
16.44
16.14
16.00
15.91
15.73
15.28
14.45
13.22
11.63
9.81
7.88
5.94
4.07
2.37
0.96
-0.08
-0.72
-1.12
-1.56
-2.35
-3.83
-6.19
-9.46
-13.57
-18.22
-23.00
-27.33
-30.51
-31.96
-31.33
-28.71
-24.53
-19.56
-14.52
-9.92
-5.92
-2.31
1.24
4.99
8.98
13.02
16.81
20.13
22.98
25.55
28.11
30.84
33.73
36.64
39.40
41.94
44.39
46.94
49.81
53.17
57.10
61.72
67.08
73.16
79.76
86.38
92.37
97.08
100.16
101.71
102.28
102.60
103.22
104.25
105.33
105.88
105.62
104.86
104.43
105.23
107.53
110.62
112.93
112.93
110.10
105.44
101.16
99.61
101.94
107.26
112.73
114.50
108.88
93.32
66.85
30.14
-14.64
-63.64
-111.66
-152.82
-182.23
-197.90
-201.96
-200.07
-198.94
-202.96
-211.80
-220.78
-223.59
-216.01
-198.27
-174.62
-150.78
-130.86
-116.00
-105.04
-96.48
-89.84
-85.76
-84.79
-86.31
-88.41
-88.91
-86.59
-81.84
-76.30
-71.80
-69.48
-69.45
-70.80
-72.02
-71.42
-67.54
-60.10
-50.95
-44.29
-45.72
-59.88
-87.84
-125.78
-165.57
-197.69
-215.12
-216.19
-204.95
-188.91
-175.04
-166.30
-160.69
-152.86
-137.56
-112.46
-78.93
-40.57
-0.89
38.16
75.82
110.92
140.47
160.04
165.75
157.05
137.99
115.98
98.85
91.84
96.15
109.67
128.84
150.24
171.04
188.65
200.43
204.41
200.30
190.19
178.02
167.85
162.02
160.27
160.45
160.20
158.46
156.02
154.69
155.96
160.06
165.86
171.77
176.54
179.63
180.86
179.89
175.89
167.93
155.49
138.91
119.21
97.31
73.13
45.45
12.61
-26.07
-69.15
-112.84
-152.20
-183.19
-204.30
-217.04
-224.90
-231.48
-238.84
-246.85
-253.93
-258.32
-259.17
-256.89
-252.59
-247.35
-241.66
-235.47
-228.51
-220.63
-211.72
-201.68
-190.20
-177.08
-162.48
-147.38
-133.46
-122.41
-115.29
-111.83
-110.33
-108.19
-102.80
-92.32
-76.24
-55.40
-31.69
-7.61
14.35
32.13
44.49
51.25
53.19
51.90
49.30
47.21
47.12
49.98
56.15
65.33
76.50
87.96
97.77
104.34
107.14
106.96
105.74
105.82
109.07
116.30
127.05
139.77
152.16
161.57
165.63
162.86
153.23
138.23
120.39
102.22
85.24
69.46
53.81
37.08
18.92
0.21
-17.36
-32.19
-43.57
-51.92
-58.30
-63.62
-68.10
-71.16
-72.04
-70.37
-66.60
-61.86
-57.36
-53.76
-50.77
-47.51
-43.16
-37.64
-31.80
-27.03
-24.52
-24.33
-25.30
-25.33
-22.46
-15.69
-5.54
6.20
17.16
25.21
29.16
29.03
25.91
21.42
17.18
14.29
13.20
13.85
15.80
18.51
21.40
23.94
25.63
26.11
25.16
22.74
19.12
14.78
10.52
7.13
5.31
5.27
6.66
8.65
10.25
10.89
10.61
10.07
10.04
10.92
12.57
14.50
16.38
18.24
20.37
22.82
25.10
26.22
25.43
22.64
18.71
14.93
12.36
11.28
11.28
11.72
12.29
13.12
14.43
16.14
17.84
19.16
20.28
22.11
25.75
31.71
39.27
46.66
51.92
53.94
53.10
50.90
49.11
48.59
48.92
48.58
45.79
39.23
28.48
14.03
-2.76
-19.81
-34.48
-44.13
-46.97
-42.90
-33.86
-23.38
-15.29
-12.24
-14.70
-20.98
-28.26
-33.90
-36.54
-36.18
-33.62
-29.53
-23.77
-15.58
-4.24
9.67
23.46
32.46
31.54
17.32
-9.81
-45.18
-81.14
-109.63
-124.89
-124.81
-110.62
-85.09
-51.22
-11.87
29.38
67.46
96.50
112.24
114.87
110.06
107.08
114.24
134.53
163.95
193.49
213.77
219.22
209.68
188.80
160.97
129.06
94.53
59.04
25.90
-0.11
-14.73
-16.40
-7.18
8.23
24.74
38.95
49.81
57.72
63.33
66.43
65.93
60.74
50.69
37.09
22.46
9.59
0.31
-5.11
-7.75
-9.06
-9.89
-10.09
-9.07
-6.95
-5.46
-7.67
-16.46
-32.51
-52.98
-72.06
-83.31
-82.54
-69.90
-49.88
-29.35
-14.75
-9.90
-15.29
-28.95
-48.13
-70.60
-95.04
-120.55
-145.79
-168.68
-186.83
-198.51
-203.59
-203.80
-202.20
-202.11
-205.53
-212.13
-219.09
-222.15
-217.54
-203.95
-183.46
-160.84
-141.31
-127.96
-120.37
-115.13
-108.35
-98.06
-85.50
-74.00
-66.62
-64.02
-63.95
-62.74
-57.37
-46.88
-32.00
-13.92
7.02
31.41
59.99
92.64
127.97
163.86
198.20
229.32
255.92
276.85
291.30
299.21
301.54
299.91
295.61
288.79
278.41
263.29
243.48
221.03
199.28
181.31
168.37
159.39
151.96
143.82
134.10
123.40
113.06
104.18
97.13
91.76
87.95
85.93
86.08
88.34
91.77
94.61
94.89
91.22
83.27
71.67
57.60
42.24
26.62
11.81
-1.04
-10.69
-16.30
-17.85
-16.29
-13.29
-10.57
-9.40
-10.26
-13.03
-17.36
-22.90
-29.47
-36.95
-45.11
-53.50
-61.42
-67.94
-72.05
-72.89
-70.07
-63.78
-54.93
-44.85
-35.03
-26.74
-20.66
-16.80
-14.55
-12.92
-11.04
-8.64
-6.48
-6.27
-10.10
-19.50
-34.60
-53.91
-74.80
-94.43
-110.78
-123.13
-132.04
-138.92
-145.63
-154.04
-165.40
-179.55
-194.40
-206.18
-210.80
-205.89
-192.48
-174.94
-159.15
-149.59
-147.13
-148.92
-150.32
-147.62
-139.83
-128.63
-116.65
-105.50
-94.95
-83.25
-68.53
-49.85
-27.50
-2.67
23.06
48.09
70.96
90.45
105.91
117.73
127.51
137.83
151.34
169.63
192.51
217.82
242.19
262.36
276.48
284.79
289.28
292.56
296.41
300.59
302.73
299.16
286.37
262.31
227.06
182.41
131.00
75.24
16.63
-44.21
-107.22
-172.53
-240.44
-311.36
-385.30
-460.86
-534.28
-599.17
-647.70
-672.93
-671.29
-643.89
-595.98
-534.77
-467.00
-397.35
-328.19
-260.48
-194.75
-131.39
-70.50
-11.32
47.84
109.00
173.42
240.41
306.82
367.22
415.45
446.62
458.90
454.16
437.24
413.86
388.59
363.48
338.28
311.74
283.13
253.22
224.02
197.74
175.65
157.35
141.05
124.39
105.50
83.76
59.87
35.36
11.79
-9.89
-29.57
-47.60
-64.28
-79.40
-92.18
-101.72
-107.53
-109.90
-109.84
-108.68
-107.44
-106.47
-105.35
-103.27
-99.46
-93.68
-86.33
-78.28
-70.53
-63.84
-58.48
-54.24
-50.61
-47.06
-43.27
-39.31
-35.44
-32.04
-29.32
-27.21
-25.38
-23.33
-20.73
-17.49
-13.87
-10.32
-7.29
-5.05
-3.61
-2.86
-2.60
-2.74
-3.29
-4.29
-5.75
-7.55
-9.50
-11.42
-13.12
-14.55
-15.72
-16.69
-17.53
-18.22
-18.66
-18.69
-18.12
-16.82
-14.78
-12.13
-9.11
-6.00
-3.00
-0.19
2.41
4.79
6.92
8.65
9.86
10.51
10.68
10.53
10.30
10.15
10.10
10.07
9.85
9.34
8.49
7.42
6.32
5.38
4.69
4.21
3.83
3.41
2.88
2.23
1.48
0.66
-0.25
-1.27
-2.40
-3.60
-4.81
-5.96
-7.00
-7.94
-8.81
-9.59
-10.21
-10.51
-10.34
-9.56
-8.19
-6.29
-4.06
-1.70
0.55
2.47
3.85
4.54
4.56
4.01
3.12
2.09
1.06
0.10
-0.70
-1.14
-0.97
0.07
1.90
3.99
5.42
5.20
2.68
-2.18
-8.76
-15.89
-22.04
-25.57
-25.03
-19.61
-9.55
3.64
17.43
28.90
35.50
35.79
29.80
18.91
5.37
-8.38
-20.55
-30.71
-39.89
-50.01
-62.52
-77.14
-91.66
-103.03
-109.16
-110.12
-107.92
-105.02
-102.79
-101.12
-99.13
-96.27
-92.58
-87.76
-79.96
-65.67
-41.20
-5.20
39.82
87.87
131.93
166.82
190.80
205.19
212.56
215.00
213.47
208.31
200.21
190.71
182.05
176.43
175.17
178.35
184.67
191.86
197.09
197.58
191.44
178.19
159.17
137.11
115.36
96.50
81.48
69.30
57.67
44.37
28.38
10.30
-8.09
-25.16
-40.24
-53.87
-67.12
-80.68
-94.38
-107.37
-118.81
-128.40
-136.23
-142.19
-145.34
-143.93
-136.24
-121.75
-101.89
-79.81
-59.31
-43.43
-33.57
-29.47
-29.89
-33.42
-38.98
-45.77
-53.05
-59.94
-65.58
-69.39
-71.28
-71.75
-71.48
-71.15
-71.08
-71.24
-71.36
-71.19
-70.58
-69.51
-68.05
-66.24
-64.03
-61.28
-57.78
-53.37
-48.03
-41.87
-35.19
-28.36
-21.75
-15.73
-10.50
-6.19
-2.71
0.13
2.50
4.49
5.98
6.73
6.50
5.29
3.40
1.34
-0.39
-1.50
-2.04
-2.30
-2.52
-2.78
-3.00
-3.06
-2.99
-2.97
-3.18
-3.62
-4.03
-4.03
-3.36
-2.03
-0.39
1.08
1.94
1.91
0.97
-0.74
-2.83
-4.82
-6.19
-6.49
-5.46
-3.07
0.57
5.24
10.63
16.23
21.35
25.22
27.28
27.44
26.20
24.36
22.64
21.34
20.26
18.93
16.98
14.34
11.21
7.88
4.62
1.54
-1.19
-3.28
-4.43
-4.36
-3.13
-1.05
1.36
3.66
5.53
6.83
7.42
7.12
5.82
3.58
0.81
-1.84
-3.64
-4.17
-3.48
-2.12
-0.81
-0.16
-0.50
-1.72
-3.54
-5.54
-7.35
-8.60
-8.88
-7.81
-5.10
-0.76
4.95
11.49
18.32
24.91
30.83
35.72
39.24
41.09
41.16
39.61
36.88
33.63
30.57
28.31
27.16
27.06
27.55
27.83
27.05
24.55
20.25
14.58
8.35
2.33
-3.20
-8.47
-14.15
-20.82
-28.78
-37.76
-47.12
-56.01
-63.58
-69.26
-72.76
-74.29
-74.43
-74.14
-74.40
-75.94
-78.95
-83.01
-87.26
-90.73
-92.56
-92.28
-89.70
-84.89
-78.08
-69.63
-60.04
-50.04
-40.43
-31.93
-24.94
-19.40
-14.91
-10.90
-6.92
-2.79
1.36
5.22
8.53
11.18
13.27
15.05
16.82
18.82
21.15
23.76
26.43
28.89
30.84
32.08
32.55
32.27
31.39
30.09
28.51
26.78
24.96
23.08
21.09
18.96
16.67
14.28
11.90
9.65
7.63
5.85
4.17
2.40
0.33
-2.13
-4.92
-7.71
-10.02
-11.33
-11.25
-9.72
-6.96
-3.47
0.19
3.59
6.52
9.00
11.11
12.93
14.46
15.73
16.74
17.60
18.43
19.21
19.88
20.30
20.41
20.27
20.06
19.94
19.99
20.14
20.24
20.16
19.85
19.35
18.65
17.77
16.69
15.36
13.84
12.17
10.47
8.81
7.21
5.65
4.04
2.25
0.17
-2.21
-4.83
-7.47
-9.92
-12.02
-13.77
-15.30
-16.75
-18.16
-19.38
-20.07
-19.84
-18.44
-15.85
-12.35
-8.44
-4.61
-1.27
1.41
3.45
5.01
6.33
7.60
8.92
10.35
11.90
13.53
15.22
16.86
18.35
19.52
20.21
20.41
20.18
19.74
19.30
18.96
18.66
18.22
17.50
16.45
15.21
13.96
12.85
11.90
10.98
9.98
8.81
7.50
6.14
4.81
3.53
2.24
0.80
-0.92
-3.03
-5.52
-8.31
-11.22
-13.96
-16.27
-17.89
-18.67
-18.57
-17.62
-15.87
-13.43
-10.45
-7.12
-3.71
-0.48
2.34
4.61
6.31
7.48
8.15
8.39
8.28
7.95
7.59
7.41
7.49
7.78
8.11
8.27
8.14
7.81
7.44
7.15
6.98
6.79
6.43
5.84
5.10
4.38
3.80
3.36
2.99
2.62
2.33
2.30
2.68
3.49
4.49
5.27
5.40
4.65
3.01
0.65
-2.17
-5.25
-8.33
-11.14
-13.28
-14.38
-14.18
-12.65
-10.06
-6.82
-3.41
-0.16
2.73
5.20
7.28
9.05
10.54
11.77
12.78
13.56
14.11
14.45
14.60
14.62
14.58
14.51
14.43
14.35
14.31
14.41
14.71
15.23
15.86
16.40
16.64
16.42
15.73
14.74
13.67
12.71
11.87
11.10
10.21
9.06
7.60
5.89
4.05
2.22
0.49
-1.13
-2.68
-4.25
-5.94
-7.83
-9.92
-12.12
-14.25
-16.12
-17.48
-18.16
-18.02
-17.00
-15.12
-12.52
-9.43
-6.14
-2.94
-0.03
2.51
4.64
6.41
7.85
8.96
9.75
10.24
10.46
10.45
10.27
9.97
9.64
9.34
9.15
9.09
9.17
9.38
9.64
9.95
10.26
10.52
10.65
10.55
10.11
9.28
8.10
6.73
5.39
4.25
3.38
2.69
1.97
1.02
-0.28
-1.84
-3.45
-4.89
-6.10
-7.22
-8.48
-10.10
-12.05
-14.11
-15.85
-16.86
-16.91
-16.00
-14.32
-12.11
-9.60
-7.02
-4.53
-2.28
-0.36
1.18
2.39
3.36
4.16
4.82
5.31
5.61
5.75
5.82
5.91
6.09
6.36
6.73
7.19
7.78
8.53
9.39
10.21
10.77
10.87
10.45
9.61
8.52
7.37
6.22
5.07
3.88
2.63
1.37
0.20
-0.84
-1.78
-2.79
-4.02
-5.53
-7.31
-9.27
-11.35
-13.55
-15.90
-18.43
-21.01
-23.37
-25.13
-25.90
-25.44
-23.72
-20.81
-16.91
-12.26
-7.13
-1.89
3.02
7.16
10.24
12.17
13.12
13.39
13.31
13.09
12.83
12.56
12.27
12.03
11.90
11.98
12.31
12.86
13.55
14.25
14.82
15.17
15.23
14.99
14.42
13.48
12.15
10.42
8.36
6.12
3.91
1.92
0.24
-1.06
-2.06
-2.82
-3.46
-4.06
-4.74
-5.62
-6.79
-8.33
-10.23
-12.42
-14.71
-16.81
-18.40
-19.13
-18.79
-17.37
-15.05
-12.16
-9.04
-5.95
-3.03
-0.33
2.08
4.11
5.67
6.72
7.34
7.68
7.93
8.22
8.56
8.90
9.18
9.37
9.52
9.68
9.85
10.01
10.11
10.10
10.04
10.02
10.09
10.26
10.40
10.35
9.95
9.17
8.05
6.76
5.43
4.13
2.83
1.47
-0.00
-1.51
-2.94
-4.17
-5.21
-6.26
-7.58
-9.45
-11.87
-14.63
-17.26
-19.25
-20.20
-19.94
-18.53
-16.23
-13.36
-10.26
-7.19
-4.39
-2.03
-0.18
1.16
2.08
2.72
3.29
3.97
4.91
6.15
7.57
8.91
9.92
10.41
10.45
10.24
10.07
10.15
10.47
10.85
11.06
10.96
10.57
10.03
9.48
8.95
8.35
7.54
6.48
5.25
4.01
2.92
2.01
1.14
0.12
-1.20
-2.80
-4.56
-6.30
-7.93
-9.50
-11.12
-12.88
-14.74
-16.49
-17.81
-18.39
-18.08
-16.89
-14.99
-12.54
-9.64
-6.32
-2.62
1.26
4.99
8.12
10.24
11.19
11.09
10.35
9.47
8.88
8.79
9.23
10.02
10.95
11.85
12.65
13.33
13.94
14.52
15.07
15.55
15.87
16.00
15.92
15.70
15.42
15.11
14.77
14.29
13.59
12.64
11.48
10.17
8.70
6.92
4.60
1.47
-2.62
-7.70
-13.61
-20.14
-26.99
-33.84
-40.27
-45.80
-49.98
-52.44
-53.01
-51.71
-48.72
-44.31
-38.78
-32.35
-25.20
-17.44
-9.19
-0.61
7.89
15.78
22.50
27.65
31.21
33.44
34.79
35.54
35.72
35.09
33.36
30.44
26.55
22.09
17.54
13.26
9.43
6.12
3.32
1.00
-0.78
-1.98
-2.53
-2.40
-1.67
-0.56
0.54
1.19
1.02
-0.11
-2.05
-4.46
-6.92
-9.10
-10.87
-12.31
-13.62
-15.04
-16.70
-18.61
-20.63
-22.48
-23.84
-24.35
-23.73
-21.77
-18.47
-14.06
-8.96
-3.68
1.26
5.51
8.95
11.68
13.89
15.80
17.56
19.26
20.97
22.68
24.47
26.40
28.65
31.41
34.88
39.03
43.50
47.53
50.13
50.43
48.03
43.27
37.09
30.76
25.32
21.25
18.33
15.86
13.06
9.39
4.74
-0.65
-6.35
-11.93
-17.09
-21.68
-25.81
-29.72
-33.83
-38.46
-43.73
-49.44
-55.06
-59.94
-63.53
-65.53
-65.85
-64.54
-61.68
-57.45
-52.15
-46.23
-40.21
-34.49
-29.27
-24.39
-19.56
-14.45
-8.80
-2.63
3.84
10.07
15.44
19.35
21.54
22.28
22.31
22.50
23.48
25.27
27.33
28.90
29.40
28.80
27.63
26.57
26.19
26.61
27.53
28.49
29.16
29.45
29.46
29.35
29.10
28.56
27.53
25.87
23.63
20.94
17.97
14.79
11.38
7.81
4.30
1.23
-1.09
-2.56
-3.41
-3.97
-4.43
-4.55
-3.79
-1.51
2.60
8.25
14.62
20.61
25.20
27.75
28.08
26.38
23.14
19.02
14.81
11.32
9.25
8.96
10.35
12.91
15.91
18.64
20.68
21.95
22.62
23.02
23.39
23.82
24.31
24.73
24.90
24.53
23.28
20.76
16.77
11.44
5.28
-0.89
-6.23
-10.17
-12.58
-13.75
-14.26
-14.77
-15.83
-17.78
-20.73
-24.55
-28.90
-33.34
-37.39
-40.71
-43.11
-44.54
-45.02
-44.45
-42.63
-39.21
-33.93
-26.74
-17.91
-8.04
2.05
11.47
19.48
25.61
29.71
31.94
32.74
32.63
32.06
31.30
30.31
28.88
26.73
23.72
19.88
15.41
10.53
5.48
0.51
-3.98
-7.40
-9.12
-8.70
-6.28
-2.67
0.89
3.16
3.40
1.67
-1.33
-4.54
-7.09
-8.62
-9.46
-10.35
-12.12
-15.21
-19.54
-24.49
-29.19
-32.76
-34.53
-34.20
-31.77
-27.60
-22.30
-16.58
-11.12
-6.42
-2.66
0.19
2.28
3.65
4.22
3.86
2.63
0.86
-1.00
-2.46
-3.28
-3.53
-3.45
-3.30
-3.29
-3.47
-3.91
-4.70
-5.99
-7.88
-10.20
-12.55
-14.35
-15.20
-15.09
-14.42
-13.80
-13.67
-14.14
-14.86
-15.28
-14.90
-13.51
-11.23
-8.51
-5.92
-4.01
-3.15
-3.47
-4.80
-6.74
-8.80
-10.52
-11.67
-12.20
-12.19
-11.78
-11.13
-10.42
-9.88
-9.75
-10.15
-11.03
-12.06
-12.73
-12.57
-11.30
-9.00
-6.10
-3.07
-0.28
2.33
5.14
8.61
12.96
18.00
23.10
27.48
30.48
31.86
31.69
30.30
28.02
25.07
21.61
17.71
13.49
9.14
4.88
1.00
-2.33
-5.01
-7.17
-9.12
-11.20
-13.60
-16.25
-18.81
-20.89
-22.28
-23.06
-23.50
-23.90
-24.34
-24.67
-24.60
-23.92
-22.61
-20.78
-18.66
-16.37
-14.06
-11.83
-9.81
-8.13
-6.87
-5.97
-5.25
-4.47
-3.43
-2.01
-0.22
1.88
4.16
6.49
8.68
10.53
11.88
12.66
12.91
12.79
12.46
12.04
11.59
11.07
10.46
9.76
9.04
8.30
7.45
6.25
4.44
1.86
-1.39
-4.94
-8.36
-11.20
-13.25
-14.42
-14.74
-14.25
-12.98
-11.04
-8.65
-6.14
-3.81
-1.84
-0.14
1.54
3.46
5.71
8.15
10.46
12.38
13.83
14.89
15.73
16.47
17.09
17.50
17.65
17.63
17.62
17.81
18.25
18.76
19.10
18.99
18.31
17.08
15.45
13.56
11.46
9.13
6.53
3.69
0.66
-2.43
-5.51
-8.53
-11.54
-14.60
-17.69
-20.75
-23.60
-25.99
-27.60
-28.12
-27.36
-25.24
-21.99
-18.01
-13.85
-9.98
-6.69
-3.98
-1.69
0.42
2.49
4.54
6.51
8.31
9.87
11.19
12.28
13.12
13.66
13.85
13.74
13.44
13.12
12.92
12.89
12.95
12.96
12.72
12.14
11.17
9.96
8.67
7.42
6.28
5.12
3.82
2.24
0.36
-1.70
-3.77
-5.70
-7.46
-9.11
-10.78
-12.61
-14.62
-16.76
-18.88
-20.79
-22.30
-23.25
-23.59
-23.27
-22.37
-20.91
-18.86
-16.14
-12.60
-8.21
-3.03
2.63
8.35
13.62
17.99
21.13
22.85
23.13
22.14
20.21
17.85
15.62
14.01
13.26
13.29
13.74
14.10
13.95
13.03
11.40
9.28
7.01
4.84
2.90
1.16
-0.48
-2.13
-3.87
-5.69
-7.53
-9.28
-10.80
-11.92
-12.50
-12.50
-12.00
-11.26
-10.59
-10.34
-10.74
-11.84
-13.48
-15.30
-16.82
-17.52
-17.09
-15.36
-12.48
-8.88
-5.09
-1.64
1.05
2.81
3.69
3.99
4.12
4.49
5.37
6.79
8.51
10.18
11.49
12.30
12.66
12.75
12.73
12.66
12.50
12.19
11.72
11.11
10.40
9.51
8.34
6.80
4.95
3.04
1.40
0.26
-0.36
-0.71
-1.13
-1.95
-3.25
-4.90
-6.62
-8.17
-9.43
-10.42
-11.35
-12.44
-13.86
-15.69
-17.80
-19.95
-21.78
-22.92
-23.15
-22.38
-20.73
-18.40
-15.63
-12.62
-9.55
-6.61
-3.93
-1.64
0.22
1.73
3.01
4.17
5.27
6.25
7.03
7.52
7.73
7.74
7.64
7.56
7.54
7.59
7.65
7.66
7.52
7.21
6.73
6.15
5.56
5.03
4.56
4.03
3.36
2.46
1.34
0.06
-1.28
-2.62
-3.98
-5.41
-6.98
-8.70
-10.56
-12.51
-14.47
-16.41
-18.24
-19.80
-20.88
-21.23
-20.69
-19.23
-16.98
-14.17
-11.09
-7.97
-4.97
-2.20
0.27
2.38
4.11
5.46
6.50
7.31
7.93
8.38
8.66
8.79
8.82
8.83
8.88
8.98
9.08
9.06
8.83
8.33
7.61
6.80
6.04
5.42
4.97
4.63
4.28
3.82
3.22
2.51
1.72
0.89
0.02
-0.93
-2.00
-3.22
-4.56
-6.05
-7.66
-9.42
-11.31
-13.26
-15.16
-16.83
-18.07
-18.67
-18.45
-17.39
-15.59
-13.32
-10.90
-8.58
-6.51
-4.68
-2.98
-1.29
0.48
2.31
4.14
5.86
7.36
8.51
9.20
9.43
9.26
8.91
8.57
8.41
8.51
8.82
9.26
9.67
9.89
9.75
9.13
8.01
6.52
4.91
3.48
2.45
1.87
1.60
1.42
1.07
0.35
-0.79
-2.28
-3.93
-5.52
-6.88
-8.01
-9.12
-10.50
-12.43
-14.93
-17.74
-20.35
-22.22
-22.94
-22.41
-20.77
-18.35
-15.48
-12.41
-9.31
-6.32
-3.61
-1.28
0.63
2.17
3.50
4.74
5.99
7.19
8.22
8.93
9.28
9.35
9.27
9.24
9.28
9.39
9.51
9.60
9.64
9.66
9.69
9.71
9.59
9.21
8.49
7.43
6.17
4.85
3.64
2.55
1.55
0.50
-0.76
-2.28
-4.04
-5.92
-7.76
-9.44
-10.91
-12.21
-13.42
-14.65
-15.94
-17.23
-18.40
-19.18
-19.31
-18.58
-16.93
-14.48
-11.47
-8.22
-5.05
-2.21
0.13
1.91
3.22
4.24
5.21
6.33
7.64
9.03
10.28
11.21
11.75
11.95
11.97
11.91
11.80
11.60
11.29
10.89
10.45
9.99
9.45
8.66
7.49
5.87
3.93
1.93
0.21
-1.01
-1.65
-1.90
-2.05
-2.44
-3.26
-4.49
-5.90
-7.20
-8.21
-8.98
-9.76
-10.90
-12.55
-14.67
-16.90
-18.74
-19.79
-19.82
-18.89
-17.23
-15.12
-12.79
-10.36
-7.90
-5.41
-2.94
-0.53
1.74
3.78
5.49
6.80
7.63
8.01
8.01
7.81
7.58
7.46
7.48
7.58
7.71
7.85
8.07
8.45
9.00
9.62
10.10
10.23
9.94
9.26
8.32
7.27
6.25
5.28
4.32
3.33
2.23
0.97
-0.46
-2.04
-3.66
-5.23
-6.66
-7.99
-9.32
-10.79
-12.48
-14.37
-16.29
-17.96
-19.04
-19.23
-18.33
-16.39
-13.65
-10.55
-7.56
-5.03
-3.05
-1.45
0.07
1.70
3.45
5.09
6.34
7.01
7.18
7.09
7.03
7.18
7.52
7.91
8.19
8.28
8.24
8.18
8.17
8.26
8.39
8.51
8.55
8.46
8.19
7.67
6.87
5.77
4.46
2.99
1.46
-0.05
-1.50
-2.79
-3.87
-4.74
-5.55
-6.51
-7.83
-9.61
-11.76
-14.02
-16.06
-17.58
-18.40
-18.42
-17.63
-16.02
-13.68
-10.77
-7.54
-4.30
-1.25
1.53
4.09
6.48
8.71
10.68
12.26
13.33
13.88
14.01
13.85
13.51
13.04
12.44
11.72
10.98
10.34
9.96
9.95
10.28
10.83
11.39
11.71
11.66
11.13
10.21
9.00
7.68
6.39
5.19
4.11
3.11
2.14
1.11
-0.01
-1.21
-2.47
-3.75
-5.02
-6.34
-7.83
-9.65
-11.84
-14.29
-16.69
-18.58
-19.55
-19.31
-17.86
-15.45
-12.51
-9.45
-6.60
-4.10
-1.95
-0.09
1.56
3.05
4.45
5.80
7.14
8.52
9.90
11.18
12.23
12.96
13.36
13.53
13.61
13.76
14.07
14.55
15.13
15.68
16.04
16.00
15.43
14.30
12.73
10.98
9.35
8.08
7.22
6.63
6.09
5.35
4.33
3.06
1.61
0.07
-1.52
-3.20
-4.98
-6.94
-9.11
-11.54
-14.19
-16.96
-19.57
-21.69
-22.94
-23.10
-22.12
-20.17
-17.51
-14.45
-11.22
-7.99
-4.89
-2.05
0.42
2.50
4.19
5.56
6.71
7.72
8.67
9.56
10.43
11.32
12.21
13.08
13.92
14.67
15.31
15.83
16.25
16.60
16.87
17.02
16.98
16.65
15.95
14.83
13.32
11.55
9.68
7.84
6.13
4.55
3.06
1.61
0.19
-1.18
-2.45
-3.60
-4.70
-5.87
-7.29
-9.15
-11.53
-14.31
-17.22
-19.87
-21.89
-23.00
-23.09
-22.16
-20.33
-17.82
-14.88
-11.81
-8.83
-6.09
-3.59
-1.21
1.13
3.51
5.84
7.98
9.79
11.20
12.26
13.07
13.75
14.32
14.79
15.14
15.40
15.70
16.13
16.73
17.37
17.80
17.69
16.90
15.50
13.76
12.08
10.70
9.67
8.86
8.01
6.93
5.52
3.84
2.00
0.17
-1.56
-3.09
-4.39
-5.49
-6.47
-7.48
-8.73
-10.40
-12.59
-15.25
-18.10
-20.72
-22.61
-23.36
-22.79
-21.01
-18.38
-15.41
-12.50
-9.86
-7.51
-5.28
-3.03
-0.68
1.72
4.01
5.98
7.48
8.46
8.98
9.19
9.27
9.40
9.68
10.17
10.85
11.61
12.35
12.94
13.29
13.37
13.16
12.71
12.07
11.28
10.41
9.51
8.65
7.85
7.08
6.23
5.15
3.74
2.02
0.14
-1.64
-3.12
-4.21
-5.05
-5.90
-7.05
-8.74
-11.01
-13.75
-16.69
-19.53
-21.92
-23.61
-24.38
-24.13
-22.85
-20.72
-17.98
-14.96
-11.94
-9.05
-6.31
-3.64
-1.00
1.57
3.93
5.95
7.57
8.83
9.89
10.92
12.00
13.09
14.08
14.89
15.49
15.97
16.43
16.92
17.39
17.72
17.76
17.41
16.69
15.69
14.53
13.35
12.21
11.11
10.00
8.81
7.45
5.90
4.16
2.31
0.48
-1.28
-2.97
-4.64
-6.39
-8.30
-10.36
-12.54
-14.77
-16.96
-19.00
-20.70
-21.81
-22.08
-21.38
-19.76
-17.47
-14.83
-12.13
-9.48
-6.86
-4.18
-1.43
1.24
3.60
5.39
6.55
7.21
7.66
8.18
8.95
9.94
11.00
11.92
12.55
12.87
12.95
12.92
12.94
13.11
13.46
13.94
14.41
14.66
14.50
13.85
12.74
11.30
9.69
8.04
6.44
4.89
3.37
1.87
0.38
-1.11
-2.55
-3.92
-5.21
-6.38
-7.49
-8.63
-9.95
-11.58
-13.58
-15.90
-18.37
-20.68
-22.51
-23.54
-23.53
-22.36
-20.11
-17.08
-13.67
-10.32
-7.33
-4.80
-2.67
-0.78
1.01
2.73
4.35
5.75
6.90
7.73
8.30
8.66
8.95
9.26
9.71
10.33
11.08
11.86
12.53
13.01
13.28
13.34
13.21
12.88
12.29
11.44
10.35
9.15
7.98
6.93
6.00
5.10
4.16
3.05
1.73
0.26
-1.28
-2.77
-4.17
-5.50
-6.86
-8.39
-10.20
-12.28
-14.49
-16.61
-18.40
-19.71
-20.45
-20.59
-20.10
-18.95
-17.16
-14.84
-12.23
-9.61
-7.27
-5.34
-3.78
-2.42
-1.06
0.37
1.80
3.05
3.98
4.58
5.06
5.70
6.70
8.00
9.29
10.12
10.19
9.51
8.38
7.26
6.49
6.16
6.06
5.95
5.66
5.24
4.86
4.70
4.73
4.75
4.51
3.86
2.84
1.64
0.50
-0.46
-1.27
-2.11
-3.17
-4.62
-6.51
-8.82
-11.44
-14.23
-16.97
-19.40
-21.24
-22.19
-22.07
-20.81
-18.57
-15.71
-12.67
-9.81
-7.29
-5.05
-2.90
-0.68
1.58
3.67
5.39
6.63
7.51
8.26
9.05
9.89
10.62
11.04
11.11
10.98
10.91
11.09
11.53
12.07
12.46
12.53
12.23
11.64
10.85
9.90
8.80
7.56
6.25
4.96
3.83
2.88
2.04
1.17
0.14
-1.08
-2.38
-3.61
-4.67
-5.63
-6.71
-8.18
-10.23
-12.80
-15.60
-18.14
-19.94
-20.65
-20.19
-18.68
-16.49
-13.98
-11.48
-9.16
-7.04
-4.98
-2.84
-0.50
2.05
4.72
7.28
9.53
11.30
12.51
13.21
13.52
13.62
13.65
13.66
13.69
13.72
13.77
13.83
13.87
13.77
13.38
12.60
11.40
9.93
8.45
7.24
6.48
6.14
6.01
5.72
4.81
2.87
-0.30
-4.57
-9.45
-14.21
-18.13
-20.86
-22.53
-23.71
-25.14
-27.35
-30.38
-33.76
-36.63
-38.11
-37.54
-34.80
-30.24
-24.58
-18.64
-13.04
-8.04
-3.53
0.74
4.93
8.97
12.62
15.70
18.16
20.15
21.86
23.32
24.33
24.62
24.03
22.66
20.88
19.18
17.95
17.28
17.00
16.72
15.99
14.48
12.09
8.93
5.35
1.77
-1.43
-4.08
-6.28
-8.30
-10.52
-13.23
-16.53
-20.34
-24.41
-28.50
-32.37
-35.84
-38.89
-41.70
-44.65
-48.32
-53.35
-60.08
-68.42
-77.69
-86.86
-94.98
-101.47
-106.33
-110.07
-113.31
-116.49
-119.50
-121.73
-122.22
-120.11
-114.95
-106.85
-96.37
-84.27
-71.15
-57.40
-43.21
-28.72
-14.23
-0.03
13.66
26.92
40.05
53.39
67.03
80.72
93.99
106.50
118.15
129.12
139.59
149.45
158.23
165.23
169.73
171.44
170.44
167.14
162.04
155.51
147.78
138.98
129.29
118.94
108.19
97.29
86.42
75.67
65.10
54.78
44.77
35.20
26.25
18.24
11.53
6.47
3.22
1.54
0.86
0.42
-0.31
-1.52
-2.93
-4.11
-4.79
-4.97
-5.00
-5.26
-5.98
-7.06
-8.24
-9.22
-9.88
-10.28
-10.54
-10.73
-10.81
-10.64
-10.14
-9.37
-8.52
-7.88
-7.65
-7.91
-8.58
-9.50
-10.50
-11.47
-12.35
-13.11
-13.67
-13.98
-14.01
-13.79
-13.49
-13.35
-13.65
-14.63
-16.36
-18.78
-21.57
-24.35
-26.67
-28.20
-28.76
-28.35
-27.06
-24.97
-22.16
-18.72
-14.83
-10.78
-6.94
-3.62
-0.96
1.05
2.53
3.65
4.50
5.09
5.40
5.42
5.23
4.99
4.84
4.91
5.21
5.67
6.13
6.45
6.54
6.39
6.12
5.83
5.61
5.44
5.26
4.94
4.36
3.49
2.35
1.01
-0.48
-2.08
-3.76
-5.50
-7.25
-8.97
-10.66
-12.38
-14.23
-16.29
-18.52
-20.78
-22.78
-24.18
-24.65
-23.96
-22.05
-19.04
-15.25
-11.08
-6.91
-3.10
0.15
2.77
4.73
6.09
6.90
7.22
7.18
6.98
6.78
6.71
6.77
6.91
7.06
7.27
7.71
8.53
9.78
11.24
12.54
13.28
13.25
12.49
11.27
9.86
8.43
6.96
5.35
3.55
1.67
-0.14
-1.73
-3.10
-4.42
-5.94
-7.89
-10.34
-13.16
-16.13
-19.01
-21.61
-23.87
-25.78
-27.27
-28.23
-28.49
-27.89
-26.38
-24.11
-21.33
-18.28
-15.16
-12.05
-8.96
-5.92
-3.02
-0.40
1.84
3.61
4.94
5.84
6.41
6.74
6.96
7.28
7.86
8.80
10.04
11.38
12.55
13.36
13.72
13.72
13.49
13.13
12.65
11.96
10.97
9.63
8.01
6.27
4.55
3.00
1.60
0.29
-1.03
-2.46
-4.07
-5.91
-8.02
-10.39
-12.95
-15.49
-17.70
-19.18
-19.65
-18.90
-17.00
-14.16
-10.72
-7.04
-3.41
-0.03
3.04
5.80
8.31
10.61
12.69
14.48
15.91
16.92
17.52
17.79
17.88
17.91
18.00
18.26
18.78
19.63
20.82
22.26
23.75
25.02
25.81
25.97
25.48
24.52
23.33
22.18
21.22
20.49
19.91
19.26
18.30
16.77
14.54
11.54
7.88
3.72
-0.80
-5.64
-10.77
-16.15
-21.59
-26.73
-31.14
-34.48
-36.62
-37.68
-37.92
-37.55
-36.65
-35.16
-33.02
-30.25
-27.03
-23.65
-20.42
-17.52
-15.02
-12.89
-11.04
-9.40
-7.98
-6.82
-5.97
-5.42
-5.02
-4.55
-3.86
-2.92
-1.90
-1.02
-0.46
-0.26
-0.28
-0.36
-0.43
-0.57
-0.96
-1.75
-2.99
-4.51
-6.09
-7.53
-8.79
-9.96
-11.15
-12.40
-13.58
-14.57
-15.38
-16.19
-17.32
-18.98
-21.06
-23.12
-24.58
-25.06
-24.62
-23.70
-22.84
-22.43
-22.56
-23.04
-23.72
-24.48
-25.38
-26.32
-27.07
-27.20
-26.25
-23.93
-20.31
-15.77
-10.94
-6.40
-2.56
0.59
3.38
6.34
9.95
14.45
19.74
25.48
31.24
36.71
41.70
46.01
49.39
51.52
52.08
50.98
48.41
44.78
40.58
36.19
31.79
27.44
23.13
18.89
14.78
10.82
6.95
3.06
-0.98
-5.13
-9.18
-12.76
-15.41
-16.79
-16.81
-15.66
-13.74
-11.44
-9.04
-6.61
-4.11
-1.51
1.07
3.38
5.15
6.26
6.82
7.08
7.25
7.43
7.51
7.35
6.88
6.22
5.61
5.32
5.44
5.89
6.45
6.92
7.25
7.54
7.95
8.53
9.18
9.61
9.57
8.92
7.79
6.43
5.07
3.80
2.51
1.01
-0.82
-2.88
-4.92
-6.63
-7.93
-8.98
-10.16
-11.85
-14.19
-17.01
-19.83
-22.12
-23.53
-23.99
-23.66
-22.74
-21.36
-19.54
-17.23
-14.54
-11.69
-9.03
-6.82
-5.11
-3.75
-2.45
-1.00
0.68
2.49
4.23
5.77
7.06
8.17
9.14
9.96
10.58
10.92
11.02
10.99
11.02
11.21
11.52
11.74
11.60
10.89
9.60
7.86
5.98
4.20
2.65
1.32
0.11
-1.13
-2.51
-4.08
-5.82
-7.66
-9.56
-11.43
-13.22
-14.88
-16.36
-17.64
-18.70
-19.54
-20.08
-20.17
-19.66
-18.46
-16.58
-14.19
-11.57
-8.98
-6.63
-4.55
-2.66
-0.84
0.96
2.73
4.32
5.57
6.37
6.71
6.75
6.72
6.82
7.18
7.79
8.53
9.23
9.78
10.09
10.16
10.01
9.65
9.17
8.74
8.56
8.77
9.41
10.23
10.91
11.05
10.41
9.03
7.13
5.09
3.21
1.63
0.30
-0.93
-2.28
-3.90
-5.85
-8.12
-10.54
-12.92
-14.99
-16.47
-17.16
-16.96
-15.92
-14.17
-11.96
-9.49
-6.93
-4.43
-2.09
0.01
1.78
3.20
4.33
5.30
6.31
7.51
8.96
10.56
12.14
13.52
14.59
15.35
15.83
16.14
16.32
16.40
16.39
16.30
16.17
16.00
15.70
15.16
14.22
12.87
11.14
9.21
7.21
5.24
3.32
1.44
-0.37
-2.07
-3.62
-5.08
-6.58
-8.36
-10.59
-13.39
-16.72
-20.48
-24.41
-28.19
-31.40
-33.61
-34.43
-33.70
-31.57
-28.44
-24.84
-21.21
-17.76
-14.54
-11.47
-8.56
-5.88
-3.56
-1.67
-0.19
0.98
1.97
2.88
3.67
4.31
4.77
5.05
5.22
5.37
5.59
5.92
6.36
6.89
7.44
7.91
8.24
8.39
8.35
8.15
7.81
7.30
6.57
5.59
4.38
3.07
1.82
0.79
0.02
-0.63
-1.41
-2.57
-4.29
-6.54
-9.13
-11.84
-14.44
-16.78
-18.73
-20.13
-20.77
-20.44
-19.00
-16.54
-13.41
-10.08
-6.97
-4.36
-2.22
-0.36
1.44
3.26
5.05
6.62
7.79
8.51
8.83
8.93
8.99
9.14
9.44
9.82
10.23
10.58
10.86
11.07
11.22
11.29
11.21
10.86
10.18
9.22
8.15
7.12
6.22
5.43
4.59
3.57
2.32
0.91
-0.52
-1.82
-2.92
-3.83
-4.55
-5.14
-5.69
-6.34
-7.28
-8.71
-10.72
-13.17
-15.77
-18.04
-19.49
-19.76
-18.66
-16.21
-12.61
-8.21
-3.44
1.24
5.38
8.64
10.90
12.28
13.07
13.62
14.15
14.72
15.20
15.47
15.51
15.47
15.60
16.13
17.14
18.45
19.81
20.93
21.65
21.97
22.00
21.84
21.57
21.21
20.72
20.08
19.23
18.06
16.40
14.11
11.11
7.49
3.50
-0.52
-4.27
-7.60
-10.58
-13.38
-16.14
-18.92
-21.64
-24.24
-26.72
-29.13
-31.51
-33.82
-35.79
-37.13
-37.50
-36.78
-35.02
-32.47
-29.39
-26.06
-22.64
-19.26
-16.05
-13.17
-10.73
-8.81
-7.37
-6.22
-5.12
-3.83
-2.30
-0.60
1.04
2.44
3.55
4.43
5.26
6.09
6.85
7.35
7.38
6.90
6.10
5.31
4.85
4.81
5.08
5.40
5.47
5.15
4.42
3.37
2.12
0.72
-0.76
-2.29
-3.78
-5.18
-6.48
-7.78
-9.21
-10.91
-12.87
-14.96
-16.89
-18.32
-18.96
-18.66
-17.43
-15.42
-12.88
-10.08
-7.20
-4.35
-1.59
1.11
3.68
6.01
7.92
9.24
9.96
10.20
10.22
10.26
10.53
11.06
11.80
12.63
13.42
14.12
14.65
15.00
15.15
15.11
14.94
14.70
14.41
14.06
13.61
13.00
12.22
11.26
10.17
8.95
7.59
6.14
4.63
3.16
1.81
0.60
-0.51
-1.65
-2.97
-4.57
-6.42
-8.49
-10.65
-12.75
-14.68
-16.28
-17.36
-17.73
-17.28
-16.00
-14.00
-11.53
-8.86
-6.23
-3.77
-1.55
0.43
2.15
3.64
4.88
5.95
6.92
7.84
8.68
9.30
9.60
9.55
9.28
9.05
9.12
9.61
10.46
11.50
12.48
13.26
13.80
14.14
14.29
14.22
13.90
13.28
12.38
11.27
9.94
8.34
6.40
4.06
1.42
-1.32
-3.90
-6.13
-7.95
-9.52
-11.10
-13.00
-15.42
-18.46
-22.02
-25.84
-29.54
-32.71
-34.94
-35.98
-35.78
-34.52
-32.56
-30.35
-28.30
-26.67
-25.52
-24.74
-24.09
-23.34
-22.27
-20.72
-18.57
-15.75
-12.23
-8.01
-3.25
1.84
7.01
12.01
16.66
20.88
24.68
28.17
31.47
34.72
37.96
41.16
44.17
46.84
49.06
50.83
52.25
53.45
54.43
55.11
55.26
54.66
53.21
50.97
48.13
44.92
41.49
37.90
34.12
30.05
25.65
20.91
15.95
10.88
5.90
1.23
-2.84
-6.06
-8.25
-9.33
-9.42
-8.72
-7.54
-6.10
-4.58
-3.04
-1.50
-0.03
1.33
2.47
3.34
3.93
4.29
4.48
4.57
4.58
4.55
4.48
4.36
4.18
3.92
3.61
3.29
3.03
2.84
2.69
2.46
2.05
1.40
0.51
-0.56
-1.74
-3.00
-4.30
-5.59
-6.79
-7.84
-8.74
-9.58
-10.51
-11.63
-12.96
-14.41
-15.81
-17.05
-18.15
-19.28
-20.62
-22.25
-24.11
-25.92
-27.34
-28.04
-27.84
-26.73
-24.88
-22.50
-19.75
-16.78
-13.67
-10.52
-7.45
-4.66
-2.29
-0.44
0.89
1.80
2.46
3.03
3.67
4.43
5.31
6.27
7.21
8.08
8.81
9.41
9.85
10.10
10.10
9.85
9.40
8.88
8.43
8.10
7.80
7.33
6.51
5.29
3.81
2.28
0.93
-0.23
-1.30
-2.46
-3.82
-5.36
-6.94
-8.44
-9.86
-11.33
-13.07
-15.18
-17.56
-19.91
-21.83
-22.91
-22.95
-21.96
-20.11
-17.71
-15.00
-12.18
-9.34
-6.58
-3.96
-1.53
0.62
2.44
3.92
5.11
6.10
6.95
7.75
8.50
9.15
9.69
10.10
10.47
10.88
11.42
12.03
12.52
12.68
12.35
11.48
10.23
8.86
7.62
6.63
5.90
5.31
4.73
4.04
3.20
2.22
1.14
0.01
-1.16
-2.34
-3.58
-4.92
-6.46
-8.25
-10.37
-12.84
-15.61
-18.50
-21.21
-23.44
-24.82
-25.12
-24.20
-22.10
-19.04
-15.36
-11.48
-7.75
-4.46
-1.68
0.61
2.53
4.20
5.65
6.86
7.77
8.40
8.86
9.30
9.87
10.62
11.52
12.48
13.40
14.26
15.01
15.66
16.12
16.34
16.22
15.71
14.82
13.57
12.01
10.15
8.07
5.81
3.50
1.24
-0.84
-2.66
-4.13
-5.22
-6.01
-6.65
-7.40
-8.51
-10.17
-12.41
-15.12
-18.01
-20.81
-23.21
-24.93
-25.72
-25.43
-24.01
-21.55
-18.32
-14.69
-11.02
-7.58
-4.48
-1.73
0.69
2.81
4.63
6.09
7.20
8.00
8.58
9.05
9.52
10.07
10.72
11.51
12.44
13.51
14.66
15.78
16.67
17.17
17.17
16.70
15.84
14.76
13.58
12.35
11.09
9.78
8.42
6.96
5.34
3.53
1.54
-0.50
-2.40
-3.99
-5.23
-6.22
-7.22
-8.52
-10.33
-12.71
-15.53
-18.53
-21.35
-23.62
-24.98
-25.20
-24.25
-22.23
-19.41
-16.08
-12.53
-8.97
-5.57
-2.48
0.18
2.36
4.09
5.46
6.56
7.46
8.19
8.74
9.15
9.57
10.10
10.90
11.97
13.19
14.40
15.40
16.04
16.26
16.04
15.43
14.50
13.36
12.10
10.82
9.50
8.08
6.45
4.57
2.46
0.27
-1.80
-3.63
-5.19
-6.57
-7.93
-9.37
-10.98
-12.81
-14.88
-17.21
-19.74
-22.28
-24.55
-26.22
-27.06
-27.01
-26.12
-24.56
-22.47
-19.98
-17.24
-14.44
-11.83
-9.64
-8.05
-7.07
-6.60
-6.48
-6.48
-6.39
-6.00
-5.18
-3.91
-2.31
-0.59
1.01
2.39
3.58
4.66
5.72
6.75
7.67
8.29
8.50
8.18
7.30
5.76
3.50
0.45
-3.37
-7.83
-12.66
-17.57
-22.33
-26.75
-30.72
-34.14
-36.94
-39.09
-40.64
-41.81
-42.95
-44.39
-46.34
-48.76
-51.35
-53.67
-55.31
-56.04
-55.85
-54.87
-53.31
-51.32
-48.96
-46.25
-43.23
-39.95
-36.43
-32.65
-28.38
-23.29
-16.97
-9.12
0.30
11.03
22.51
34.16
45.51
56.35
66.68
76.58
85.99
94.66
102.15
107.97
111.78
113.48
113.12
110.90
107.04
101.80
95.47
88.41
80.98
73.54
66.29
59.36
52.78
46.61
40.90
35.67
30.84
26.23
21.60
16.80
11.85
6.91
2.21
-2.07
-5.83
-9.01
-11.58
-13.42
-14.39
-14.38
-13.42
-11.61
-9.21
-6.52
-3.86
-1.49
0.42
1.82
2.86
3.70
4.52
5.43
6.39
7.25
7.87
8.21
8.33
8.38
8.55
8.90
9.38
9.83
10.08
10.06
9.78
9.35
8.89
8.42
7.88
7.11
6.06
4.72
3.20
1.65
0.13
-1.37
-2.97
-4.73
-6.64
-8.58
-10.41
-12.02
-13.47
-14.96
-16.70
-18.84
-21.33
-23.93
-26.32
-28.14
-29.17
-29.31
-28.59
-27.08
-24.86
-21.99
-18.51
-14.56
-10.41
-6.35
-2.70
0.37
2.82
4.78
6.41
7.82
8.99
9.83
10.29
10.38
10.26
10.17
10.32
10.80
11.58
12.50
13.38
14.02
14.29
14.11
13.45
12.39
11.02
9.49
7.96
6.52
5.21
3.98
2.72
1.37
-0.07
-1.52
-2.89
-4.09
-5.19
-6.34
-7.74
-9.53
-11.71
-14.21
-16.88
-19.58
-22.18
-24.56
-26.49
-27.72
-28.01
-27.23
-25.43
-22.81
-19.63
-16.15
-12.51
-8.83
-5.23
-1.84
1.15
3.60
5.47
6.80
7.72
8.40
8.96
9.50
10.02
10.52
11.00
11.44
11.86
12.27
12.67
13.01
13.23
13.27
13.12
12.77
12.22
11.46
10.46
9.20
7.68
5.91
3.96
1.91
-0.14
-2.09
-3.89
-5.47
-6.88
-8.18
-9.49
-10.95
-12.68
-14.77
-17.19
-19.81
-22.42
-24.69
-26.32
-27.08
-26.83
-25.60
-23.51
-20.77
-17.56
-14.09
-10.49
-6.87
-3.36
-0.04
2.96
5.53
7.59
9.14
10.26
11.10
11.85
12.64
13.52
14.38
15.07
15.48
15.63
15.65
15.73
15.96
16.26
16.43
16.23
15.52
14.35
12.91
11.39
9.94
8.56
7.14
5.62
3.90
1.98
-0.10
-2.24
-4.34
-6.26
-7.89
-9.24
-10.42
-11.70
-13.39
-15.69
-18.60
-21.88
-25.06
-27.64
-29.22
-29.63
-28.85
-27.02
-24.27
-20.73
-16.54
-11.94
-7.22
-2.75
1.19
4.46
7.05
9.07
10.61
11.75
12.54
13.08
13.46
13.77
14.10
14.46
14.79
15.04
15.18
15.22
15.19
15.16
15.11
15.02
14.80
14.36
13.62
12.54
11.20
9.74
8.37
7.21
6.28
5.48
4.63
3.60
2.36
0.99
-0.39
-1.67
-2.91
-4.26
-5.97
-8.17
-10.86
-13.83
-16.76
-19.25
-20.95
-21.63
-21.14
-19.48
-16.75
-13.17
-9.03
-4.60
-0.12
4.30
8.63
12.95
17.29
21.54
25.55
29.08
32.04
34.54
36.92
39.62
43.03
47.25
52.13
57.31
62.38
67.12
71.56
75.89
80.34
85.02
89.90
94.82
99.67
104.40
109.05
113.66
118.25
122.81
127.34
131.77
135.85
139.01
140.24
138.25
131.86
120.48
104.47
85.21
64.62
44.52
26.00
9.31
-5.90
-19.93
-32.68
-43.49
-51.58
-56.59
-58.90
-59.60
-60.09
-61.61
-65.04
-70.78
-78.79
-88.43
-98.31
-106.27
-109.99
-107.82
-99.59
-86.96
-72.85
-60.41
-51.70
-47.08
-45.19
-43.96
-41.62
-37.50
-32.09
-26.58
-22.10
-19.16
-17.47
-16.29
-14.95
-13.18
-11.20
-9.43
-8.19
-7.62
-7.93
-9.50
-12.99
-18.94
-27.36
-37.46
-47.84
-57.21
-64.99
-71.68
-78.57
-87.09
-98.07
-111.37
-125.92
-140.18
-152.63
-162.17
-168.53
-172.27
-174.63
-176.91
-180.02
-184.11
-188.73
-193.40
-197.96
-202.12
-204.90
-204.53
-199.32
-189.21
-176.76
-166.33
-161.74
-163.66
-168.63
-170.53
-164.07
-147.85
-125.09
-101.60
-82.29
-68.60
-58.43
-48.30
-35.98
-21.85
-8.15
3.03
11.44
19.24
30.22
48.27
75.88
113.33
158.79
208.57
257.54
299.87
330.37
345.76
345.72
332.72
310.90
284.19
254.86
222.96
187.12
146.83
104.14
64.04
32.88
16.32
17.00
33.63
61.00
91.20
116.14
130.10
131.10
120.61
102.57
81.46
62.22
50.24
48.06
53.85
63.41
73.43
81.12
86.21
87.94
85.17
77.00
62.81
43.85
21.84
-1.65
-26.02
-51.94
-81.14
-115.08
-153.66
-194.46
-232.41
-261.09
-275.25
-273.48
-259.03
-238.57
-219.04
-204.81
-196.62
-192.12
-187.93
-181.45
-171.97
-160.21
-147.49
-134.66
-121.83
-108.72
-94.97
-80.40
-65.20
-49.99
-35.80
-23.65
-13.95
-6.07
1.59
10.87
22.69
36.42
50.07
61.24
68.19
70.44
68.81
64.69
59.43
54.05
49.42
46.50
46.28
49.40
55.57
63.48
71.21
76.96
79.83
80.08
78.81
77.22
76.06
75.33
74.53
72.97
70.18
66.09
60.99
55.30
49.51
44.06
39.37
35.88
33.80
33.11
33.32
33.58
32.98
30.88
27.19
22.35
17.05
11.87
7.12
3.03
-0.03
-1.52
-0.91
1.78
5.87
10.18
13.73
16.23
18.17
20.34
23.20
26.53
29.62
31.72
32.53
32.22
31.26
29.97
28.40
26.53
24.40
22.32
20.72
19.80
19.46
19.26
18.73
17.66
16.10
14.30
12.44
10.56
8.53
6.23
3.67
0.98
-1.50
-3.40
-4.47
-4.66
-4.21
-3.59
-3.35
-3.91
-5.37
-7.56
-10.10
-12.70
-15.27
-17.93
-20.86
-24.09
-27.44
-30.50
-32.75
-33.69
-32.96
-30.36
-25.99
-20.26
-13.81
-7.41
-1.78
2.70
5.99
8.42
10.42
12.32
14.17
15.78
16.85
17.22
16.92
16.24
15.53
15.10
15.04
15.28
15.58
15.70
15.50
15.01
14.32
13.56
12.75
11.77
10.42
8.57
6.30
3.96
2.05
1.00
0.89
1.40
1.90
1.81
0.91
-0.57
-2.11
-3.28
-3.97
-4.54
-5.56
-7.54
-10.66
-14.68
-19.02
-22.95
-25.78
-26.95
-26.18
-23.41
-18.91
-13.22
-7.06
-1.22
3.67
7.33
9.85
11.62
13.16
14.88
16.87
18.92
20.65
21.68
21.88
21.42
20.68
20.07
19.83
20.01
20.39
20.73
20.88
20.79
20.54
20.17
19.67
18.96
17.99
16.77
15.44
14.13
12.94
11.86
10.77
9.56
8.12
6.46
4.60
2.55
0.33
-2.02
-4.34
-6.50
-8.45
-10.35
-12.51
-15.25
-18.66
-22.38
-25.73
-27.89
-28.25
-26.64
-23.39
-19.19
-14.80
-10.80
-7.49
-4.84
-2.64
-0.60
1.53
3.90
6.57
9.46
12.41
15.17
17.46
19.02
19.76
19.79
19.41
18.99
18.85
19.08
19.58
20.07
20.27
19.99
19.22
18.04
16.58
14.93
13.20
11.49
9.94
8.62
7.52
6.52
5.43
4.10
2.48
0.69
-1.09
-2.63
-3.87
-4.90
-5.95
-7.33
-9.30
-12.01
-15.34
-18.97
-22.36
-24.89
-26.00
-25.31
-22.79
-18.80
-13.93
-8.86
-4.16
-0.12
3.18
5.78
7.75
9.09
9.81
10.01
9.97
10.02
10.40
11.18
12.18
13.12
13.77
14.11
14.27
14.47
14.83
15.31
15.71
15.85
15.58
14.93
13.99
12.93
11.82
10.72
9.60
8.42
7.17
5.87
4.54
3.17
1.77
0.32
-1.20
-2.74
-4.22
-5.62
-6.98
-8.46
-10.33
-12.74
-15.67
-18.82
-21.63
-23.52
-24.09
-23.23
-21.09
-18.09
-14.69
-11.30
-8.20
-5.54
-3.30
-1.32
0.54
2.35
4.05
5.47
6.49
7.14
7.68
8.44
9.65
11.31
13.13
14.70
15.70
16.08
16.06
15.97
16.06
16.34
16.58
16.42
15.60
14.11
12.18
10.21
8.50
7.16
6.04
4.84
3.31
1.41
-0.70
-2.71
-4.38
-5.62
-6.49
-7.17
-7.81
-8.59
-9.65
-11.13
-13.09
-15.48
-18.00
-20.18
-21.46
-21.42
-19.90
-17.11
-13.48
-9.54
-5.69
-2.18
0.94
3.66
5.94
7.70
8.89
9.52
9.75
9.84
10.02
10.45
11.15
11.94
12.61
12.98
12.98
12.71
12.37
12.20
12.37
12.85
13.47
13.92
13.95
13.43
12.40
11.07
9.63
8.22
6.90
5.66
4.49
3.42
2.48
1.65
0.84
-0.09
-1.19
-2.43
-3.73
-5.03
-6.42
-8.14
-10.37
-13.13
-16.17
-18.93
-20.80
-21.28
-20.29
-18.08
-15.14
-12.02
-9.11
-6.60
-4.46
-2.61
-0.95
0.58
1.91
3.00
3.79
4.31
4.64
4.90
5.18
5.52
5.98
6.57
7.34
8.32
9.48
10.72
11.88
12.76
13.21
13.15
12.58
11.56
10.19
8.65
7.09
5.69
4.53
3.59
2.71
1.67
0.30
-1.38
-3.20
-4.85
-6.06
-6.79
-7.22
-7.73
-8.73
-10.49
-13.04
-16.13
-19.30
-21.96
-23.58
-23.71
-22.15
-18.97
-14.60
-9.67
-4.88
-0.76
2.47
4.89
6.73
8.21
9.41
10.29
10.77
10.87
10.70
10.43
10.19
9.98
9.71
9.32
8.85
8.46
8.35
8.63
9.23
9.93
10.44
10.54
10.13
9.30
8.25
7.17
6.25
5.55
5.05
4.68
4.30
3.75
2.91
1.69
0.17
-1.51
-3.14
-4.47
-5.44
-6.13
-6.80
-7.78
-9.36
-11.57
-14.19
-16.74
-18.65
-19.44
-18.89
-17.08
-14.35
-11.14
-7.86
-4.79
-2.07
0.27
2.23
3.89
5.33
6.67
7.95
9.15
10.15
10.80
11.03
10.89
10.54
10.18
9.97
9.98
10.17
10.44
10.69
10.86
10.89
10.71
10.26
9.51
8.51
7.37
6.26
5.30
4.52
3.86
3.20
2.39
1.42
0.32
-0.83
-1.98
-3.16
-4.44
-5.90
-7.58
-9.53
-11.74
-14.17
-16.70
-19.09
-20.97
-21.92
-21.61
-19.96
-17.13
-13.55
-9.69
-5.98
-2.65
0.20
2.60
4.65
6.45
8.03
9.32
10.23
10.68
10.67
10.29
9.73
9.16
8.68
8.31
7.96
7.62
7.34
7.25
7.45
7.94
8.53
9.00
9.12
8.82
8.19
7.44
6.76
6.26
5.92
5.55
4.93
3.88
2.34
0.41
-1.70
-3.72
-5.43
-6.72
-7.59
-8.16
-8.62
-9.16
-9.94
-11.05
-12.46
-14.04
-15.51
-16.54
-16.88
-16.39
-15.11
-13.16
-10.74
-8.05
-5.21
-2.40
0.24
2.54
4.40
5.81
6.80
7.49
7.95
8.26
8.47
8.62
8.81
9.10
9.50
9.94
10.29
10.45
10.39
10.23
10.08
10.07
10.17
10.24
10.10
9.61
8.73
7.61
6.41
5.28
4.28
3.34
2.32
1.14
-0.21
-1.64
-2.96
-4.04
-4.82
-5.35
-5.78
-6.33
-7.20
-8.57
-10.47
-12.78
-15.23
-17.41
-18.88
-19.28
-18.52
-16.77
-14.42
-11.91
-9.57
-7.55
-5.78
-4.11
-2.43
-0.75
0.80
2.02
2.72
2.80
2.24
1.19
-0.04
-0.99
-1.21
-0.40
1.41
3.88
6.44
8.55
9.86
10.38
10.30
9.91
9.41
8.88
8.33
7.80
7.33
7.00
6.76
6.47
5.92
4.93
3.52
1.83
0.16
-1.24
-2.22
-2.88
-3.44
-4.23
-5.54
-7.50
-10.04
-12.93
-15.71
-17.92
-19.10
-19.00
-17.62
-15.22
-12.24
-9.15
-6.29
-3.82
-1.68
0.25
2.10
3.90
5.57
6.98
8.03
8.70
9.05
9.19
9.22
9.21
9.16
9.09
9.01
8.95
8.94
9.02
9.15
9.25
9.20
8.87
8.23
7.27
6.11
4.91
3.83
2.95
2.29
1.78
1.30
0.78
0.21
-0.37
-0.90
-1.39
-1.97
-2.77
-3.93
-5.53
-7.52
-9.78
-12.14
-14.39
-16.31
-17.66
-18.21
-17.82
-16.46
-14.30
-11.57
-8.59
-5.60
-2.73
-0.00
2.59
5.02
7.20
9.02
10.34
11.13
11.41
11.34
11.10
10.89
10.86
11.01
11.27
11.52
11.64
11.58
11.35
11.00
10.55
9.97
9.17
8.14
6.89
5.62
4.50
3.65
3.03
2.46
1.69
0.60
-0.81
-2.35
-3.76
-4.83
-5.48
-5.77
-5.93
-6.17
-6.74
-7.76
-9.30
-11.26
-13.41
-15.37
-16.74
-17.22
-16.65
-15.12
-12.88
-10.24
-7.50
-4.88
-2.49
-0.36
1.52
3.16
4.52
5.59
6.30
6.65
6.67
6.53
6.40
6.47
6.82
7.45
8.23
9.00
9.65
10.13
10.48
10.75
10.94
10.99
10.76
10.14
9.13
7.86
6.57
5.48
4.69
4.12
3.54
2.68
1.38
-0.38
-2.45
-4.60
-6.56
-8.12
-9.22
-9.90
-10.40
-11.03
-12.07
-13.66
-15.66
-17.69
-19.26
-19.97
-19.69
-18.48
-16.60
-14.33
-11.82
-9.19
-6.47
-3.74
-1.08
1.41
3.60
5.40
6.70
7.41
7.52
7.11
6.41
5.71
5.23
5.13
5.44
6.09
6.93
7.86
8.71
9.35
9.68
9.64
9.30
8.77
8.15
7.48
6.78
6.04
5.29
4.56
3.86
3.16
2.32
1.26
-0.06
-1.54
-3.01
-4.36
-5.54
-6.66
-7.86
-9.25
-10.85
-12.61
-14.40
-16.07
-17.46
-18.41
-18.77
-18.44
-17.42
-15.78
-13.71
-11.41
-9.06
-6.76
-4.55
-2.45
-0.50
1.28
2.78
3.95
4.73
5.12
5.17
4.99
4.72
4.52
4.46
4.59
4.87
5.20
5.50
5.71
5.87
6.00
6.14
6.23
6.16
5.80
5.11
4.17
3.12
2.11
1.22
0.39
-0.50
-1.61
-2.99
-4.55
-6.11
-7.43
-8.33
-8.83
-9.13
-9.57
-10.45
-11.92
-13.89
-16.06
-18.01
-19.38
-19.92
-19.53
-18.25
-16.22
-13.65
-10.79
-7.94
-5.37
-3.21
-1.47
-0.01
1.33
2.65
3.87
4.81
5.31
5.41
5.31
5.31
5.68
6.44
7.42
8.32
8.90
9.14
9.20
9.29
9.53
9.82
9.93
9.62
8.80
7.57
6.18
4.85
3.72
2.79
2.00
1.29
0.58
-0.11
-0.77
-1.43
-2.13
-2.91
-3.80
-4.81
-5.95
-7.29
-8.88
-10.70
-12.61
-14.34
-15.57
-16.04
-15.65
-14.47
-12.67
-10.51
-8.12
-5.61
-2.99
-0.29
2.41
4.94
7.10
8.70
9.71
10.17
10.27
10.21
10.15
10.14
10.12
10.01
9.78
9.50
9.31
9.28
9.42
9.59
9.61
9.32
8.67
7.73
6.64
5.57
4.62
3.84
3.23
2.72
2.25
1.74
1.15
0.39
-0.59
-1.85
-3.35
-4.96
-6.48
-7.72
-8.59
-9.21
-9.81
-10.67
-11.98
-13.69
-15.53
-17.05
-17.87
-17.73
-16.61
-14.70
-12.32
-9.77
-7.29
-4.97
-2.81
-0.78
1.18
3.06
4.82
6.34
7.53
8.24
8.44
8.18
7.64
7.09
6.71
6.61
6.79
7.14
7.63
8.23
8.95
9.70
10.30
10.52
10.20
9.36
8.17
6.94
5.85
4.95
4.12
3.15
1.93
0.44
-1.20
-2.82
-4.26
-5.47
-6.50
-7.43
-8.37
-9.36
-10.39
-11.43
-12.47
-13.51
-14.56
-15.54
-16.32
-16.72
-16.58
-15.84
-14.57
-12.94
-11.11
-9.18
-7.14
-4.96
-2.66
-0.35
1.78
3.54
4.76
5.39
5.51
5.34
5.14
5.16
5.48
6.02
6.58
6.97
7.10
7.04
6.99
7.15
7.59
8.20
8.78
9.11
9.06
8.63
7.92
7.06
6.21
5.45
4.76
4.05
3.16
1.99
0.53
-1.12
-2.81
-4.38
-5.81
-7.09
-8.31
-9.52
-10.75
-12.02
-13.33
-14.68
-15.99
-17.16
-18.00
-18.32
-18.00
-16.98
-15.33
-13.20
-10.77
-8.25
-5.85
-3.69
-1.85
-0.29
1.02
2.14
3.06
3.76
4.22
4.52
4.84
5.32
6.06
7.01
7.99
8.81
9.34
9.55
9.52
9.36
9.12
8.76
8.20
7.37
6.32
5.16
4.09
3.24
2.63
2.15
1.63
0.96
0.11
-0.81
-1.70
-2.47
-3.11
-3.64
-4.11
-4.49
-4.79
-4.99
-5.14
-5.31
-5.56
-5.93
-6.36
-6.83
-7.25
-7.62
-7.92
-8.16
-8.41
-8.79
-9.47
-10.51
-11.85
-13.22
-14.20
-14.40
-13.62
-11.97
-9.74
-7.38
-5.17
-3.28
-1.64
-0.15
1.23
2.45
3.37
3.92
4.11
4.14
4.20
4.45
4.88
5.39
5.84
6.15
6.35
6.50
6.69
6.90
7.08
7.14
7.03
6.77
6.44
6.10
5.77
5.39
4.94
4.39
3.78
3.14
2.49
1.79
0.96
-0.04
-1.19
-2.45
-3.71
-4.92
-6.07
-7.18
-8.27
-9.38
-10.55
-11.79
-13.10
-14.35
-15.32
-15.70
-15.31
-14.13
-12.34
-10.23
-8.06
-5.96
-3.89
-1.81
0.30
2.36
4.29
6.00
7.50
8.81
9.87
10.61
10.93
10.85
10.52
10.14
9.91
9.92
10.12
10.39
10.61
10.75
10.75
10.62
10.35
9.93
9.39
8.81
8.23
7.69
7.11
6.39
5.45
4.30
3.06
1.86
0.83
-0.05
-0.84
-1.63
-2.47
-3.37
-4.28
-5.22
-6.29
-7.62
-9.28
-11.21
-13.18
-14.82
-15.79
-15.95
-15.32
-14.08
-12.48
-10.67
-8.70
-6.54
-4.17
-1.65
0.84
3.06
4.79
5.94
6.57
6.83
6.96
7.14
7.43
7.79
8.11
8.29
8.32
8.24
8.14
8.14
8.26
8.47
8.68
8.76
8.62
8.20
7.50
6.60
5.61
4.69
3.91
3.25
2.58
1.76
0.65
-0.74
-2.24
-3.64
-4.73
-5.44
-5.87
-6.24
-6.84
-7.88
-9.42
-11.36
-13.40
-15.24
-16.54
-17.14
-16.98
-16.14
-14.73
-12.91
-10.80
-8.55
-6.27
-4.07
-2.00
-0.09
1.65
3.20
4.50
5.50
6.18
6.58
6.81
6.95
7.06
7.14
7.19
7.24
7.37
7.67
8.14
8.67
9.06
9.14
8.83
8.22
7.45
6.71
6.10
5.63
5.19
4.66
3.92
2.95
1.78
0.46
-0.90
-2.23
-3.49
-4.63
-5.69
-6.74
-7.91
-9.34
-11.16
-13.34
-15.69
-17.88
-19.50
-20.24
-20.01
-18.96
-17.39
-15.62
-13.82
-12.02
-10.12
-8.01
-5.66
-3.12
-0.56
1.86
3.93
5.54
6.64
7.21
7.37
7.26
7.01
6.74
6.53
6.40
6.40
6.55
6.87
7.31
7.73
7.96
7.84
7.34
6.58
5.72
4.93
4.23
3.59
2.85
1.88
0.62
-0.91
-2.58
-4.24
-5.71
-6.88
-7.77
-8.47
-9.19
-10.12
-11.35
-12.82
-14.33
-15.59
-16.32
-16.36
-15.68
-14.41
-12.75
-10.93
-9.14
-7.46
-5.90
-4.46
-3.07
-1.73
-0.42
0.87
2.12
3.31
4.38
5.26
5.87
6.18
6.27
6.26
6.33
6.64
7.22
8.03
8.91
9.72
10.33
10.72
10.94
11.08
11.18
11.21
11.08
10.68
10.00
9.10
8.15
7.24
6.39
5.45
4.27
2.79
1.12
-0.52
-1.89
-2.92
-3.80
-4.84
-6.30
-8.25
-10.44
-12.45
-13.85
-14.38
-13.98
-12.79
-11.04
-8.93
-6.63
-4.28
-1.94
0.35
2.56
4.70
6.75
8.66
10.33
11.60
12.35
12.56
12.35
11.88
11.35
10.87
10.47
10.15
9.92
9.84
9.96
10.26
10.62
10.81
10.64
9.99
8.95
7.68
6.41
5.28
4.33
3.53
2.84
2.24
1.71
1.20
0.62
-0.16
-1.21
-2.51
-4.00
-5.59
-7.27
-9.10
-11.17
-13.47
-15.81
-17.89
-19.31
-19.85
-19.47
-18.35
-16.71
-14.73
-12.46
-9.90
-7.08
-4.10
-1.21
1.40
3.57
5.24
6.46
7.28
7.83
8.19
8.48
8.81
9.25
9.77
10.29
10.73
11.04
11.27
11.47
11.68
11.82
11.74
11.25
10.27
8.88
7.30
5.79
4.53
3.47
2.42
1.13
-0.49
-2.34
-4.12
-5.52
-6.34
-6.66
-6.74
-6.88
-7.31
-8.14
-9.36
-10.91
-12.62
-14.26
-15.42
-15.68
-14.80
-12.91
-10.54
-8.43
-7.08
-6.51
-6.17
-5.21
-2.98
0.65
5.20
9.81
13.61
16.08
17.06
16.75
15.49
13.71
11.83
10.28
9.38
9.30
9.95
11.04
12.20
13.06
13.40
13.13
12.28
10.96
9.36
7.72
6.32
5.41
5.13
5.40
5.86
6.01
5.33
3.51
0.57
-3.10
-6.93
-10.32
-12.91
-14.59
-15.52
-15.96
-16.15
-16.25
-16.29
-16.25
-16.04
-15.63
-15.01
-14.24
-13.45
-12.79
-12.29
-11.89
-11.37
-10.45
-9.01
-7.11
-5.02
-3.16
-1.81
-1.06
-0.73
-0.53
-0.19
0.32
0.79
0.96
0.69
0.14
-0.27
0.03
1.40
3.93
7.34
11.11
14.65
17.42
18.98
19.02
17.37
14.11
9.62
4.55
-0.31
-4.36
-7.30
-9.20
-10.33
-10.94
-11.13
-10.85
-10.09
-9.00
-7.94
-7.32
-7.40
-8.19
-9.45
-10.81
-11.94
-12.65
-12.87
-12.61
-11.87
-10.66
-9.02
-7.08
-5.00
-2.96
-1.06
0.70
2.40
4.14
5.91
7.63
9.16
10.42
11.38
12.15
12.82
13.37
13.71
13.73
13.36
12.72
12.00
11.40
10.97
10.66
10.29
9.71
8.89
7.94
7.03
6.35
6.02
5.99
6.10
6.09
5.72
4.83
3.43
1.71
-0.09
-1.75
-3.15
-4.31
-5.36
-6.48
-7.77
-9.26
-10.86
-12.43
-13.74
-14.58
-14.78
-14.28
-13.17
-11.60
-9.82
-7.97
-6.17
-4.41
-2.61
-0.73
1.23
3.16
4.94
6.40
7.43
8.06
8.34
8.39
8.33
8.24
8.16
8.12
8.15
8.28
8.55
8.96
9.45
9.83
9.90
9.44
8.41
6.95
5.38
4.08
3.28
3.00
2.97
2.87
2.37
1.36
-0.06
-1.65
-3.18
-4.50
-5.60
-6.51
-7.34
-8.22
-9.25
-10.55
-12.13
-13.88
-15.59
-16.95
-17.66
-17.58
-16.70
-15.16
-13.23
-11.19
-9.26
-7.59
-6.22
-5.07
-4.00
-2.87
-1.60
-0.18
1.29
2.72
4.11
5.53
7.13
9.03
11.25
13.63
15.89
17.64
18.52
18.31
16.97
14.74
12.01
9.24
6.80
4.88
3.51
2.62
2.10
1.85
1.75
1.66
1.44
0.95
0.12
-1.01
-2.24
-3.33
-3.96
-3.87
-2.98
-1.45
0.36
1.94
2.83
2.74
1.61
-0.39
-2.93
-5.56
-7.76
-9.02
-8.92
-7.33
-4.47
-0.88
2.73
5.78
7.95
9.24
9.82
9.83
9.31
8.17
6.35
3.94
1.21
-1.45
-3.66
-5.16
-5.83
-5.71
-4.97
-3.76
-2.27
-0.66
0.90
2.26
3.29
3.92
4.10
3.88
3.34
2.62
1.83
1.12
0.53
0.05
-0.41
-0.99
-1.86
-3.05
-4.54
-6.20
-7.92
-9.65
-11.42
-13.34
-15.45
-17.66
-19.77
-21.45
-22.43
-22.53
-21.73
-20.14
-17.92
-15.30
-12.45
-9.59
-6.87
-4.42
-2.34
-0.69
0.50
1.22
1.51
1.50
1.42
1.51
1.93
2.69
3.67
4.63
5.40
5.90
6.15
6.27
6.36
6.46
6.59
6.77
6.98
7.18
7.27
7.13
6.65
5.80
4.63
3.28
1.93
0.72
-0.29
-1.09
-1.77
-2.44
-3.14
-3.91
-4.72
-5.60
-6.66
-8.02
-9.77
-11.76
-13.64
-14.89
-15.11
-14.18
-12.36
-10.11
-7.89
-5.96
-4.27
-2.68
-1.00
0.79
2.60
4.26
5.66
6.78
7.62
8.21
8.55
8.63
8.50
8.24
8.01
7.94
8.15
8.62
9.25
9.86
10.25
10.29
9.93
9.26
8.40
7.53
6.73
6.02
5.36
4.67
3.89
2.94
1.83
0.63
-0.59
-1.70
-2.66
-3.47
-4.25
-5.17
-6.38
-7.93
-9.73
-11.57
-13.13
-14.11
-14.30
-13.63
-12.20
-10.27
-8.14
-6.08
-4.24
-2.60
-1.03
0.65
2.48
4.41
6.23
7.67
8.54
8.80
8.63
8.27
8.02
8.06
8.40
8.93
9.52
10.04
10.48
10.90
11.28
11.51
11.43
10.85
9.73
8.26
6.73
5.43
4.50
3.86
3.27
2.48
1.38
0.02
-1.39
-2.63
-3.59
-4.31
-4.99
-5.88
-7.18
-8.97
-11.09
-13.22
-14.92
-15.82
-15.76
-14.80
-13.22
-11.36
-9.50
-7.74
-6.07
-4.39
-2.64
-0.78
1.13
2.99
4.63
5.93
6.77
7.16
7.21
7.11
7.06
7.18
7.49
7.94
8.45
8.93
9.30
9.48
9.39
8.95
8.19
7.18
6.12
5.17
4.42
3.92
3.58
3.26
2.86
2.29
1.49
0.48
-0.70
-1.95
-3.20
-4.40
-5.57
-6.75
-8.04
-9.54
-11.23
-12.97
-14.51
-15.51
-15.68
-14.95
-13.41
-11.37
-9.20
-7.14
-5.31
-3.63
-1.97
-0.22
1.59
3.35
4.88
6.06
6.84
7.28
7.45
7.46
7.41
7.43
7.65
8.11
8.74
9.36
9.65
9.37
8.48
7.09
5.50
3.99
2.75
1.79
1.01
0.26
-0.54
-1.41
-2.32
-3.20
-4.01
-4.70
-5.30
-5.87
-6.55
-7.45
-8.66
-10.21
-12.02
-13.95
-15.83
-17.47
-18.67
-19.25
-19.08
-18.15
-16.51
-14.36
-11.89
-9.30
-6.75
-4.27
-1.86
0.47
2.70
4.71
6.31
7.36
7.79
7.67
7.21
6.68
6.36
6.38
6.77
7.40
8.07
8.57
8.80
8.72
8.39
7.95
7.48
7.04
6.65
6.27
5.88
5.42
4.83
4.10
3.18
2.06
0.78
-0.60
-1.98
-3.28
-4.47
-5.59
-6.75
-8.05
-9.55
-11.17
-12.69
-13.82
-14.28
-13.93
-12.78
-11.00
-8.87
-6.62
-4.44
-2.39
-0.47
1.34
3.06
4.64
6.01
7.11
7.91
8.45
8.83
9.15
9.50
9.88
10.28
10.64
10.94
11.20
11.43
11.66
11.84
11.90
11.73
11.25
10.50
9.61
8.73
7.92
7.14
6.22
4.99
3.41
1.59
-0.17
-1.64
-2.69
-3.39
-3.98
-4.70
-5.71
-7.08
-8.74
-10.54
-12.36
-13.98
-15.13
-15.59
-15.20
-13.94
-11.97
-9.54
-6.95
-4.39
-1.98
0.29
2.43
4.44
6.27
7.85
9.09
9.96
10.50
10.76
10.85
10.85
10.86
10.94
11.20
11.63
12.18
12.71
13.01
12.90
12.31
11.32
10.13
8.96
7.95
7.12
6.34
5.49
4.50
3.37
2.16
0.90
-0.36
-1.66
-2.95
-4.19
-5.30
-6.27
-7.18
-8.17
-9.40
-10.95
-12.72
-14.43
-15.74
-16.36
-16.11
-15.02
-13.27
-11.10
-8.79
-6.55
-4.50
-2.68
-1.03
0.53
2.09
3.66
5.14
6.40
7.34
7.91
8.15
8.21
8.26
8.45
8.83
9.37
9.96
10.49
10.83
10.92
10.72
10.31
9.77
9.19
8.65
8.16
7.67
7.10
6.35
5.38
4.19
2.85
1.46
0.15
-1.03
-2.06
-2.96
-3.81
-4.70
-5.75
-7.06
-8.71
-10.63
-12.60
-14.29
-15.39
-15.69
-15.19
-14.04
-12.49
-10.76
-8.96
-7.15
-5.32
-3.47
-1.56
0.38
2.33
4.19
5.84
7.13
7.98
8.38
8.46
8.39
8.30
8.24
8.20
8.13
7.99
7.80
7.57
7.30
7.01
6.66
6.21
5.61
4.85
3.94
2.92
1.87
0.83
-0.19
-1.27
-2.48
-3.87
-5.39
-6.85
-8.03
-8.75
-9.08
-9.24
-9.62
-10.51
-12.01
-13.91
-15.84
-17.36
-18.19
-18.19
-17.42
-15.99
-14.03
-11.67
-9.06
-6.36
-3.74
-1.31
0.91
2.99
4.97
6.81
8.34
9.36
9.69
9.34
8.47
7.39
6.36
5.57
5.06
4.81
4.72
4.78
4.95
5.19
5.44
5.62
5.66
5.55
5.26
4.79
4.10
3.15
1.97
0.59
-0.88
-2.32
-3.63
-4.76
-5.70
-6.53
-7.33
-8.21
-9.29
-10.61
-12.11
-13.64
-14.95
-15.82
-16.12
-15.87
-15.14
-14.01
-12.56
-10.78
-8.72
-6.44
-4.06
-1.69
0.57
2.69
4.66
6.43
7.93
9.05
9.77
10.12
10.22
10.23
10.29
10.48
10.80
11.21
11.57
11.78
11.72
11.35
10.72
9.94
9.12
8.33
7.53
6.60
5.44
4.01
2.38
0.73
-0.77
-1.98
-2.92
-3.68
-4.35
-5.05
-5.84
-6.77
-7.93
-9.40
-11.19
-13.22
-15.24
-16.93
-17.97
-18.14
-17.41
-15.94
-13.96
-11.78
-9.64
-7.69
-5.94
-4.35
-2.83
-1.33
0.15
1.47
2.55
3.29
3.75
4.11
4.57
5.41
6.77
8.69
11.05
13.63
16.12
18.23
19.72
20.44
20.34
19.46
17.92
15.96
13.85
11.83
10.05
8.46
6.86
5.01
2.75
0.08
-2.81
-5.71
-8.50
-11.13
-13.63
-16.05
-18.29
-20.16
-21.44
-21.94
-21.59
-20.39
-18.42
-15.74
-12.49
-8.81
-4.84
-0.79
3.20
7.01
10.54
13.73
16.48
18.63
20.04
20.63
20.45
19.67
18.58
17.43
16.36
15.36
14.35
13.26
12.09
10.96
10.02
9.38
8.97
8.61
8.04
7.16
6.03
4.87
3.90
3.26
2.84
2.39
1.66
0.47
-1.15
-3.05
-5.00
-6.85
-8.53
-10.11
-11.70
-13.43
-15.34
-17.44
-19.59
-21.64
-23.39
-24.66
-25.35
-25.36
-24.73
-23.51
-21.89
-20.08
-18.31
-16.75
-15.45
-14.38
-13.54
-12.99
-12.89
-13.38
-14.47
-15.94
-17.47
-18.74
-19.66
-20.42
-21.45
-23.21
-25.95
-29.57
-33.70
-37.84
-41.58
-44.71
-47.30
-49.63
-52.09
-55.07
-58.93
-63.89
-69.90
-76.47
-82.54
-86.61
-87.09
-82.94
-74.11
-61.70
-47.56
-33.57
-20.85
-9.41
1.65
13.54
27.03
42.15
58.25
74.54
90.40
105.53
119.67
132.20
142.11
148.27
149.97
147.39
141.56
133.93
125.65
117.19
108.32
98.60
87.95
76.85
66.18
56.77
48.94
42.44
36.73
31.35
26.16
21.37
17.21
13.74
10.75
7.87
4.78
1.37
-2.22
-5.76
-9.03
-11.91
-14.37
-16.48
-18.24
-19.68
-20.84
-21.77
-22.53
-23.11
-23.44
-23.40
-22.93
-22.07
-20.98
-19.87
-18.90
-18.08
-17.33
-16.51
-15.52
-14.35
-13.01
-11.47
-9.61
-7.27
-4.37
-0.94
2.83
6.66
10.32
13.72
16.89
19.96
23.07
26.27
29.52
32.74
35.78
38.42
40.48
41.80
42.37
42.38
42.11
41.87
41.78
41.77
41.62
41.13
40.21
38.93
37.45
35.90
34.32
32.76
31.33
30.25
29.80
30.13
31.25
33.02
35.28
37.96
40.92
43.79
45.84
46.15
43.89
38.70
30.78
20.66
8.77
-4.78
-20.15
-37.34
-55.76
-74.12
-90.79
-104.31
-113.92
-119.64
-122.03
-121.78
-119.46
-115.46
-110.14
-104.09
-98.04
-92.73
-88.60
-85.60
-83.18
-80.55
-77.03
-72.38
-66.91
-61.30
-56.32
-52.43
-49.66
-47.70
-46.07
-44.40
-42.62
-40.83
-39.25
-38.12
-37.58
-37.80
-38.96
-41.28
-44.81
-49.31
-54.12
-58.29
-60.90
-61.48
-60.32
-58.30
-56.52
-55.71
-55.81
-56.05
-55.24
-52.52
-47.69
-41.35
-34.54
-28.21
-22.87
-18.48
-14.74
-11.48
-8.79
-6.87
-5.55
-4.11
-1.44
3.32
10.15
17.96
25.21
30.85
34.91
38.22
41.53
44.58
45.98
44.03
38.07
29.29
20.56
15.05
14.78
19.76
28.21
37.63
45.85
51.62
54.51
54.58
52.04
47.20
40.59
33.01
25.60
19.64
16.39
16.74
21.00
28.71
38.69
49.35
59.08
66.50
70.65
71.00
67.55
60.98
52.70
44.62
38.52
35.36
34.87
35.80
36.61
36.31
34.86
32.95
31.32
30.15
28.97
26.99
23.71
19.28
14.33
9.51
5.13
1.06
-2.99
-7.17
-11.25
-14.74
-17.24
-18.65
-19.35
-19.98
-21.22
-23.41
-26.32
-29.05
-30.17
-28.13
-21.87
-11.35
2.18
16.51
29.25
38.70
44.45
47.30
48.69
49.90
51.61
53.72
55.66
56.66
55.97
53.16
48.25
41.82
34.81
28.08
22.05
16.38
10.22
2.85
-5.73
-14.57
-22.14
-27.08
-28.89
-28.05
-25.73
-23.06
-20.69
-18.67
-16.77
-15.00
-13.69
-13.40
-14.50
-16.89
-19.83
-22.28
-23.28
-22.42
-19.94
-16.53
-12.99
-9.83
-7.16
-4.73
-2.22
0.58
3.69
6.86
9.69
11.69
12.44
11.80
9.98
7.46
4.80
2.36
0.22
-1.81
-3.93
-6.15
-8.25
-9.92
-10.99
-11.57
-11.89
-12.15
-12.30
-12.00
-10.91
-8.88
-6.09
-2.97
0.01
2.49
4.34
5.61
6.41
6.83
6.95
6.80
6.47
6.07
5.79
5.79
6.17
6.90
7.84
8.77
9.55
10.14
10.58
10.98
11.34
11.57
11.44
10.80
9.58
7.94
6.10
4.30
2.59
0.93
-0.85
-2.79
-4.84
-6.82
-8.54
-9.99
-11.23
-12.41
-13.55
-14.51
-15.04
-14.91
-14.06
-12.63
-10.85
-8.93
-6.97
-4.97
-2.97
-1.15
0.27
1.09
1.32
1.18
1.05
1.21
1.76
2.60
3.53
4.41
5.18
5.88
6.52
7.03
7.29
7.21
6.79
6.20
5.65
5.30
5.21
5.26
5.29
5.12
4.64
3.83
2.71
1.30
-0.33
-2.13
-3.94
-5.61
-6.98
-7.95
-8.52
-8.81
-8.97
-9.21
-9.66
-10.35
-11.22
-12.08
-12.63
-12.63
-11.90
-10.46
-8.49
-6.29
-4.15
-2.27
-0.70
0.61
1.74
2.73
3.54
4.15
4.55
4.83
5.12
5.50
5.94
6.28
6.34
6.03
5.37
4.55
3.79
3.28
3.09
3.23
3.69
4.49
5.63
6.97
8.25
9.07
9.05
8.00
5.97
3.24
0.24
-2.66
-5.18
-7.23
-8.84
-10.14
-11.34
-12.62
-14.09
-15.70
-17.28
-18.52
-19.11
-18.87
-17.72
-15.75
-13.22
-10.38
-7.51
-4.80
-2.41
-0.41
1.18
2.41
3.35
4.08
4.67
5.13
5.44
5.58
5.54
5.34
5.02
4.65
4.30
4.04
3.90
3.89
3.94
3.91
3.66
3.07
2.12
0.86
-0.59
-2.10
-3.54
-4.78
-5.80
-6.64
-7.49
-8.56
-10.02
-11.80
-13.57
-14.85
-15.23
-14.66
-13.52
-12.45
-11.98
-12.26
-12.90
-13.23
-12.58
-10.67
-7.67
-4.12
-0.65
2.30
4.58
6.27
7.60
8.73
9.69
10.43
10.91
11.20
11.49
12.01
12.90
14.10
15.40
16.43
16.90
16.73
16.02
15.01
13.94
12.96
12.10
11.30
10.48
9.58
8.57
7.45
6.21
4.83
3.30
1.61
-0.19
-2.02
-3.76
-5.32
-6.63
-7.73
-8.72
-9.72
-10.88
-12.21
-13.62
-14.93
-15.92
-16.39
-16.17
-15.22
-13.58
-11.39
-8.83
-6.14
-3.49
-1.06
1.07
2.82
4.15
5.04
5.54
5.74
5.82
5.92
6.13
6.39
6.54
6.44
6.08
5.68
5.57
6.07
7.26
8.91
10.54
11.63
11.82
11.02
9.37
7.07
4.35
1.37
-1.67
-4.52
-6.89
-8.57
-9.56
-10.02
-10.24
-10.42
-10.52
-10.30
-9.51
-8.05
-6.11
-4.12
-2.53
-1.60
-1.32
-1.37
-1.28
-0.69
0.60
2.49
4.68
6.82
8.66
10.16
11.50
12.92
14.57
16.41
18.13
19.38
19.88
19.59
18.72
17.54
16.26
14.96
13.53
11.88
9.98
7.94
5.96
4.18
2.70
1.46
0.40
-0.57
-1.41
-2.11
-2.58
-2.80
-2.80
-2.67
-2.53
-2.52
-2.77
-3.37
-4.33
-5.53
-6.81
-8.00
-9.04
-9.97
-10.95
-12.12
-13.57
-15.24
-16.97
-18.52
-19.65
-20.17
-19.99
-19.11
-17.68
-15.90
-13.99
-12.10
-10.28
-8.52
-6.82
-5.24
-3.91
-2.92
-2.26
-1.77
-1.24
-0.58
0.16
0.73
0.89
0.57
-0.09
-0.74
-1.02
-0.73
0.05
1.03
1.87
2.30
2.23
1.74
1.01
0.29
-0.19
-0.20
0.44
1.80
3.78
6.08
8.25
9.85
10.55
10.31
9.26
7.74
6.05
4.43
3.01
1.80
0.75
-0.22
-1.20
-2.20
-3.20
-4.04
-4.57
-4.58
-4.01
-2.83
-1.15
0.88
3.08
5.20
7.05
8.42
9.21
9.43
9.24
8.89
8.64
8.69
9.06
9.59
10.04
10.17
9.81
8.96
7.74
6.38
5.08
4.06
3.38
3.05
2.95
2.92
2.77
2.29
1.35
-0.13
-2.15
-4.59
-7.21
-9.63
-11.48
-12.42
-12.39
-11.57
-10.39
-9.35
-8.87
-9.16
-10.15
-11.56
-13.02
-14.17
-14.78
-14.73
-13.99
-12.66
-10.85
-8.69
-6.29
-3.71
-1.01
1.70
4.27
6.52
8.31
9.57
10.34
10.74
10.90
10.87
10.59
9.94
8.85
7.27
5.33
3.24
1.24
-0.44
-1.67
-2.48
-3.00
-3.35
-3.69
-4.04
-4.35
-4.52
-4.45
-4.12
-3.53
-2.76
-1.92
-1.13
-0.46
0.05
0.41
0.64
0.70
0.58
0.22
-0.36
-1.13
-1.97
-2.75
-3.42
-3.96
-4.39
-4.69
-4.81
-4.71
-4.35
-3.74
-2.87
-1.64
0.12
2.63
5.95
9.96
14.28
18.43
21.95
24.49
25.81
25.77
24.26
21.32
17.16
12.28
7.35
3.09
0.02
-1.65
-2.06
-1.60
-0.73
0.10
0.52
0.30
-0.64
-2.21
-4.13
-6.03
-7.57
-8.53
-8.93
-8.97
-8.96
-9.16
-9.71
-10.59
-11.67
-12.73
-13.58
-14.01
-13.83
-12.88
-11.13
-8.74
-6.07
-3.62
-1.91
-1.29
-1.87
-3.46
-5.67
-8.02
-10.09
-11.58
-12.30
-12.20
-11.35
-9.92
-8.19
-6.47
-5.03
-4.05
-3.55
-3.47
-3.67
-3.99
-4.31
-4.56
-4.65
-4.57
-4.24
-3.60
-2.53
-0.95
1.15
3.61
6.12
8.26
9.66
10.08
9.53
8.23
6.56
4.92
3.64
2.91
2.65
2.63
2.48
1.87
0.65
-1.11
-3.14
-5.11
-6.73
-7.94
-8.76
-9.25
-9.48
-9.53
-9.55
-9.82
-10.68
-12.34
-14.66
-17.13
-18.94
-19.32
-17.87
-14.67
-10.30
-5.53
-1.08
2.58
5.26
6.91
7.54
7.20
6.04
4.35
2.51
0.95
-0.04
-0.48
-0.63
-0.88
-1.52
-2.57
-3.78
-4.74
-5.11
-4.82
-4.05
-3.15
-2.45
-2.13
-2.17
-2.43
-2.69
-2.73
-2.36
-1.41
0.17
2.37
5.06
8.04
11.11
14.09
16.92
19.70
22.69
26.35
31.20
37.69
45.91
55.49
65.66
75.48
84.21
91.53
97.73
103.45
109.39
116.00
123.26
130.75
137.70
143.23
146.44
146.60
143.35
136.83
127.85
117.74
108.02
99.90
93.91
89.74
86.37
82.50
76.99
69.14
58.84
46.34
32.08
16.40
-0.55
-18.65
-37.67
-57.10
-76.14
-93.92
-109.87
-123.85
-136.23
-147.56
-158.22
-168.10
-176.65
-183.08
-186.80
-187.64
-185.94
-182.30
-177.29
-171.25
-164.16
-155.83
-146.07
-134.91
-122.63
-109.70
-96.65
-83.98
-72.07
-61.23
-51.69
-43.55
-36.77
-31.21
-26.64
-22.77
-19.34
-16.09
-12.82
-9.39
-5.81
-2.22
1.12
3.95
6.10
7.51
8.32
8.70
8.85
8.90
8.92
8.90
8.81
8.60
8.26
7.81
7.31
6.83
6.40
6.02
5.61
5.08
4.38
3.50
2.52
1.50
0.44
-0.72
-2.08
-3.66
-5.36
-6.92
-8.02
-8.43
-8.07
-7.02
-5.50
-3.74
-1.95
-0.30
1.14
2.34
3.30
4.07
4.71
5.26
5.72
6.10
6.39
6.63
6.89
7.22
7.68
8.24
8.83
9.37
9.82
10.20
10.56
10.91
11.19
11.30
11.09
10.49
9.55
8.44
7.42
6.69
6.32
6.20
6.06
5.67
4.90
3.82
2.59
1.42
0.42
-0.44
-1.29
-2.28
-3.50
-4.95
-6.50
-8.00
-9.29
-10.22
-10.67
-10.58
-9.87
-8.59
-6.82
-4.75
-2.59
-0.55
1.26
2.82
4.21
5.51
6.74
7.87
8.87
9.70
10.37
10.88
11.23
11.38
11.28
10.98
10.60
10.30
10.20
10.28
10.41
10.36
10.01
9.36
8.54
7.74
7.05
6.51
6.06
5.62
5.17
4.71
4.26
3.86
3.47
3.03
2.45
1.71
0.80
-0.22
-1.25
-2.23
-3.11
-3.88
-4.60
-5.30
-5.96
-6.51
-6.82
-6.79
-6.32
-5.44
-4.20
-2.66
-0.92
0.95
2.86
4.71
6.37
7.71
8.57
8.91
8.76
8.26
7.65
7.18
7.04
7.28
7.83
8.55
9.28
9.87
10.23
10.32
10.14
9.73
9.14
8.46
7.79
7.19
6.68
6.25
5.84
5.39
4.81
4.05
3.06
1.86
0.54
-0.79
-1.99
-2.96
-3.67
-4.16
-4.58
-5.09
-5.83
-6.87
-8.16
-9.49
-10.55
-11.01
-10.69
-9.56
-7.82
-5.73
-3.58
-1.55
0.28
1.95
3.47
4.83
5.99
6.89
7.52
7.90
8.09
8.16
8.20
8.27
8.45
8.77
9.28
9.95
10.70
11.41
11.92
12.11
11.94
11.46
10.82
10.19
9.73
9.46
9.33
9.22
8.97
8.52
7.90
7.23
6.66
6.25
5.95
5.67
5.28
4.75
4.08
3.32
2.47
1.52
0.48
-0.62
-1.63
-2.40
-2.77
-2.63
-1.95
-0.77
0.84
2.80
4.94
7.12
9.17
10.95
12.40
13.51
14.27
14.71
14.80
14.54
13.98
13.23
12.44
11.70
11.06
10.47
9.84
9.11
8.29
7.48
6.78
6.24
5.83
5.45
5.01
4.42
3.69
2.83
1.93
1.04
0.25
-0.43
-1.00
-1.52
-2.11
-2.83
-3.72
-4.73
-5.77
-6.74
-7.62
-8.45
-9.35
-10.41
-11.68
-13.10
-14.54
-15.82
-16.75
-17.22
-17.08
-16.31
-14.92
-13.03
-10.80
-8.45
-6.12
-3.94
-1.96
-0.21
1.29
2.53
3.55
4.41
5.18
5.88
6.45
6.77
6.79
6.57
6.26
6.10
6.23
6.66
7.24
7.78
8.11
8.14
7.89
7.39
6.70
5.83
4.82
3.73
2.63
1.58
0.63
-0.23
-1.07
-1.95
-2.94
-4.08
-5.32
-6.60
-7.82
-8.90
-9.86
-10.72
-11.56
-12.35
-13.04
-13.52
-13.71
-13.58
-13.19
-12.54
-11.58
-10.24
-8.38
-5.97
-3.13
-0.10
2.82
5.30
7.20
8.46
9.19
9.60
9.85
10.05
10.20
10.21
10.02
9.63
9.11
8.62
8.25
7.99
7.74
7.35
6.78
6.12
5.52
5.08
4.74
4.30
3.50
2.25
0.66
-0.99
-2.41
-3.45
-4.18
-4.85
-5.69
-6.85
-8.26
-9.74
-11.10
-12.25
-13.20
-14.00
-14.72
-15.37
-15.95
-16.44
-16.84
-17.14
-17.25
-17.00
-16.17
-14.60
-12.28
-9.42
-6.39
-3.61
-1.37
0.24
1.31
2.01
2.55
3.04
3.52
4.00
4.46
4.85
5.13
5.26
5.27
5.21
5.22
5.41
5.81
6.36
6.87
7.14
7.08
6.68
6.06
5.39
4.76
4.17
3.52
2.72
1.69
0.46
-0.86
-2.12
-3.18
-4.00
-4.63
-5.19
-5.85
-6.71
-7.83
-9.16
-10.58
-11.95
-13.09
-13.86
-14.13
-13.83
-12.93
-11.47
-9.56
-7.32
-4.91
-2.45
-0.02
2.28
4.37
6.16
7.60
8.68
9.49
10.17
10.81
11.45
12.03
12.46
12.71
12.83
12.94
13.20
13.69
14.37
15.06
15.52
15.58
15.15
14.33
13.30
12.27
11.40
10.73
10.21
9.72
9.16
8.47
7.60
6.56
5.34
3.95
2.41
0.78
-0.84
-2.41
-3.92
-5.43
-7.00
-8.66
-10.32
-11.82
-12.93
-13.50
-13.45
-12.87
-11.82
-10.38
-8.54
-6.22
-3.43
-0.26
3.07
6.26
9.06
11.26
12.79
13.68
14.05
14.05
13.87
13.64
13.41
13.17
12.83
12.34
11.70
11.01
10.47
10.23
10.34
10.69
11.04
11.16
10.88
10.18
9.19
8.06
6.91
5.73
4.43
2.89
1.08
-0.89
-2.82
-4.49
-5.79
-6.74
-7.53
-8.37
-9.45
-10.86
-12.56
-14.42
-16.27
-17.91
-19.18
-19.92
-20.04
-19.47
-18.18
-16.24
-13.77
-10.93
-7.93
-4.98
-2.26
0.07
1.90
3.20
4.02
4.51
4.82
5.14
5.53
5.99
6.47
6.85
7.09
7.21
7.29
7.40
7.58
7.79
7.95
7.99
7.84
7.51
7.02
6.36
5.57
4.64
3.65
2.66
1.73
0.88
0.10
-0.66
-1.43
-2.24
-3.11
-4.04
-5.06
-6.16
-7.34
-8.60
-9.94
-11.40
-12.98
-14.63
-16.22
-17.53
-18.30
-18.29
-17.38
-15.62
-13.22
-10.47
-7.69
-5.11
-2.85
-0.95
0.64
1.96
3.06
3.96
4.69
5.31
5.84
6.34
6.78
7.07
7.14
6.97
6.65
6.40
6.43
6.82
7.46
8.07
8.34
8.10
7.38
6.38
5.36
4.41
3.50
2.55
1.52
0.47
-0.46
-1.17
-1.68
-2.14
-2.69
-3.43
-4.36
-5.44
-6.65
-7.96
-9.38
-10.81
-12.06
-12.92
-13.20
-12.82
-11.87
-10.50
-8.90
-7.15
-5.27
-3.23
-1.07
1.12
3.19
4.96
6.28
7.12
7.51
7.61
7.57
7.56
7.69
7.93
8.21
8.40
8.44
8.35
8.23
8.17
8.20
8.27
8.25
8.07
7.69
7.17
6.55
5.85
5.03
4.06
2.96
1.80
0.74
-0.13
-0.80
-1.37
-2.04
-2.93
-4.10
-5.46
-6.90
-8.32
-9.75
-11.26
-12.93
-14.74
-16.55
-18.16
-19.35
-19.98
-20.02
-19.46
-18.31
-16.58
-14.27
-11.53
-8.64
-5.97
-3.83
-2.37
-1.42
-0.59
0.55
2.27
4.57
7.13
9.46
11.24
12.32
12.84
13.02
13.08
13.10
13.11
13.16
13.31
13.64
14.13
14.57
14.67
14.17
12.98
11.27
9.40
7.73
6.45
5.47
4.47
3.09
1.11
-1.50
-4.55
-7.75
-10.86
-13.72
-16.33
-18.71
-20.89
-22.81
-24.37
-25.42
-25.86
-25.70
-25.07
-24.27
-23.65
-23.55
-24.14
-25.42
-27.22
-29.39
-31.90
-34.86
-38.47
-42.84
-47.87
-53.20
-58.38
-63.04
-67.11
-70.87
-74.89
-79.72
-85.66
-92.67
-100.40
-108.39
-116.34
-124.09
-131.57
-138.72
-145.38
-151.47
-157.07
-162.38
-167.33
-171.09
-171.72
-166.53
-152.76
-128.52
-93.57
-49.44
0.86
53.64
105.32
152.83
194.02
227.68
253.59
272.44
285.59
294.77
301.57
307.19
312.16
316.36
319.28
320.28
319.02
315.57
310.28
303.51
295.38
285.68
274.15
260.86
246.32
231.41
217.07
203.88
191.94
181.01
170.88
161.58
153.43
146.78
141.75
138.03
135.11
132.49
130.08
128.24
127.61
128.72
131.60
135.78
140.39
144.57
147.69
149.40
149.48
147.58
143.00
134.66
121.27
101.62
74.81
40.60
-0.38
-46.53
-95.41
-144.13
-189.86
-230.31
-264.05
-290.52
-309.85
-322.49
-328.77
-328.84
-322.64
-310.34
-292.72
-271.26
-247.96
-224.81
-203.31
-184.30
-168.09
-154.96
-145.43
-140.20
-139.67
-143.42
-149.96
-157.15
-162.90
-166.08
-166.87
-166.51
-166.57
-168.05
-170.87
-173.92
-175.64
-174.80
-171.08
-165.18
-158.34
-151.80
-146.15
-141.17
-136.12
-130.12
-122.78
-114.37
-105.74
-97.90
-91.68
-87.45
-85.30
-85.32
-87.80
-93.07
-101.00
-110.62
-120.01
-127.06
-130.41
-130.13
-127.50
-123.82
-119.04
-111.28
-97.80
-77.03
-50.32
-22.13
1.78
17.11
23.25
23.49
23.26
27.50
38.75
56.79
79.73
105.29
131.65
157.35
180.81
200.29
214.28
222.26
225.12
224.80
223.48
222.54
222.13
221.25
218.47
212.68
203.60
191.81
178.28
163.84
148.84
133.20
116.83
100.20
84.51
71.46
62.57
58.55
58.85
61.95
65.94
69.25
70.98
70.94
69.29
66.32
62.34
57.77
53.17
49.08
45.45
41.36
34.99
24.40
8.69
-11.16
-32.22
-50.75
-63.99
-71.51
-75.42
-79.10
-85.24
-94.28
-104.15
-111.56
-113.80
-110.22
-102.33
-92.80
-84.10
-77.56
-73.32
-70.97
-70.11
-70.55
-71.99
-73.76
-74.85
-74.38
-72.09
-68.45
-64.40
-60.70
-57.63
-55.02
-52.59
-50.37
-48.73
-48.11
-48.65
-50.04
-51.57
-52.60
-52.80
-52.28
-51.35
-50.26
-48.94
-47.05
-44.13
-39.91
-34.47
-28.23
-21.90
-16.13
-11.40
-7.84
-5.25
-3.25
-1.41
0.51
2.60
4.74
6.70
8.29
9.44
10.27
10.99
11.82
12.88
14.09
15.23
16.07
16.42
16.25
15.68
14.89
14.04
13.19
12.36
11.48
10.53
9.49
8.31
6.98
5.54
4.08
2.80
1.86
1.31
0.96
0.47
-0.64
-2.67
-5.62
-9.13
-12.59
-15.36
-16.97
-17.24
-16.26
-14.30
-11.65
-8.55
-5.21
-1.78
1.59
4.76
7.61
10.04
11.96
13.37
14.35
15.03
15.63
16.32
17.15
18.08
18.97
19.63
19.97
19.96
19.68
19.21
18.65
18.07
17.49
16.91
16.28
15.51
14.51
13.23
11.67
9.93
8.15
6.49
5.04
3.78
2.64
1.46
0.11
-1.47
-3.24
-5.07
-6.81
-8.35
-9.68
-10.80
-11.69
-12.15
-11.86
-10.54
-8.11
-4.91
-1.58
1.23
3.20
4.48
5.58
6.93
8.63
10.39
11.83
12.80
13.58
14.64
16.27
18.28
20.12
21.21
21.33
20.75
19.96
19.33
18.86
18.37
17.70
17.04
16.84
17.61
19.52
22.32
25.39
27.98
29.51
29.67
28.58
26.73
24.82
23.61
23.51
24.44
25.79
26.80
26.98
26.47
25.95
26.24
27.78
30.39
33.46
36.42
39.20
42.26
46.27
51.63
58.11
64.93
71.17
76.15
79.61
81.64
82.40
81.85
79.78
75.97
70.39
63.38
55.59
47.85
40.83
34.91
30.07
25.99
22.27
18.64
15.06
11.69
8.70
6.19
4.08
2.17
0.24
-1.83
-4.09
-6.52
-9.04
-11.58
-14.06
-16.43
-18.68
-20.85
-23.03
-25.29
-27.63
-29.90
-31.85
-33.23
-33.81
-33.54
-32.48
-30.78
-28.59
-26.04
-23.18
-20.06
-16.76
-13.46
-10.33
-7.59
-5.33
-3.59
-2.30
-1.31
-0.47
0.32
1.15
2.00
2.83
3.53
3.99
4.14
3.90
3.25
2.20
0.83
-0.76
-2.42
-4.00
-5.44
-6.74
-8.00
-9.36
-10.88
-12.58
-14.31
-15.97
-17.46
-18.81
-20.12
-21.51
-23.07
-24.85
-26.84
-28.95
-31.06
-32.93
-34.27
-34.73
-34.06
-32.19
-29.25
-25.60
-21.64
-17.75
-14.15
-10.89
-7.93
-5.20
-2.67
-0.39
1.57
3.14
4.28
5.02
5.43
5.61
5.71
5.84
6.10
6.52
7.02
7.46
7.70
7.66
7.36
6.89
6.37
5.83
5.25
4.53
3.62
2.49
1.18
-0.23
-1.68
-3.14
-4.60
-6.09
-7.63
-9.26
-11.04
-13.00
-15.18
-17.50
-19.85
-21.98
-23.61
-24.43
-24.26
-23.07
-21.03
-18.43
-15.61
-12.83
-10.18
-7.66
-5.25
-2.94
-0.80
1.07
2.58
3.75
4.65
5.37
6.00
6.55
6.99
7.31
7.50
7.61
7.71
7.85
7.99
8.08
8.05
7.83
7.42
6.87
6.27
5.65
4.95
4.07
2.84
1.23
-0.65
-2.57
-4.29
-5.70
-6.87
-7.98
-9.23
-10.66
-12.24
-13.89
-15.54
-17.22
-18.94
-20.61
-21.98
-22.73
-22.57
-21.42
-19.45
-16.93
-14.19
-11.44
-8.75
-6.14
-3.63
-1.33
0.61
2.05
2.95
3.40
3.60
3.74
3.95
4.25
4.57
4.80
4.87
4.83
4.81
5.01
5.57
6.52
7.74
8.97
9.95
10.49
10.60
10.40
10.09
9.80
9.54
9.17
8.52
7.51
6.17
4.72
3.37
2.28
1.46
0.77
-0.02
-1.09
-2.53
-4.36
-6.47
-8.67
-10.71
-12.25
-12.98
-12.66
-11.28
-9.04
-6.29
-3.38
-0.58
2.02
4.41
6.64
8.69
10.52
12.03
13.14
13.82
14.09
14.05
13.83
13.58
13.36
13.18
12.97
12.60
12.01
11.18
10.20
9.18
8.26
7.49
6.89
6.40
5.88
5.23
4.36
3.32
2.26
1.32
0.53
-0.24
-1.25
-2.72
-4.67
-6.82
-8.79
-10.22
-11.05
-11.57
-12.27
-13.53
-15.49
-17.89
-20.26
-22.12
-23.11
-23.10
-22.19
-20.52
-18.32
-15.75
-12.96
-10.11
-7.33
-4.75
-2.44
-0.42
1.31
2.81
4.11
5.21
6.07
6.65
6.89
6.80
6.48
6.10
5.82
5.79
6.07
6.60
7.24
7.79
8.03
7.83
7.23
6.35
5.42
4.59
3.92
3.36
2.77
2.04
1.10
-0.01
-1.23
-2.50
-3.81
-5.13
-6.49
-7.90
-9.36
-10.86
-12.42
-13.99
-15.49
-16.78
-17.72
-18.20
-18.18
-17.68
-16.74
-15.40
-13.67
-11.59
-9.19
-6.59
-3.89
-1.29
1.00
2.79
3.93
4.39
4.27
3.79
3.24
2.86
2.82
3.14
3.77
4.62
5.58
6.55
7.37
7.86
7.83
7.21
6.03
4.51
2.91
1.52
0.50
-0.12
-0.44
-0.64
-0.92
-1.45
-2.27
-3.35
-4.58
-5.81
-6.90
-7.76
-8.44
-9.08
-9.90
-11.11
-12.79
-14.80
-16.84
-18.49
-19.40
-19.35
-18.27
-16.30
-13.57
-10.34
-6.89
-3.50
-0.44
2.11
4.13
5.72
7.06
8.26
9.32
10.12
10.56
10.62
10.42
10.13
9.92
9.81
9.76
9.69
9.56
9.41
9.31
9.30
9.33
9.25
8.92
8.28
7.41
6.48
5.67
5.06
4.55
3.91
2.95
1.57
-0.09
-1.79
-3.24
-4.33
-5.15
-5.94
-6.97
-8.36
-10.10
-12.06
-14.06
-15.96
-17.62
-18.86
-19.46
-19.22
-18.04
-16.05
-13.53
-10.85
-8.31
-6.04
-4.09
-2.42
-1.01
0.15
1.08
1.85
2.61
3.50
4.58
5.77
6.94
7.89
8.53
8.89
9.09
9.28
9.59
10.05
10.62
11.18
11.57
11.66
11.33
10.56
9.40
7.95
6.33
4.70
3.17
1.81
0.67
-0.23
-0.96
-1.60
-2.29
-3.12
-4.16
-5.41
-6.86
-8.52
-10.40
-12.49
-14.67
-16.71
-18.27
-19.05
-18.94
-17.99
-16.48
-14.71
-12.85
-10.91
-8.77
-6.33
-3.63
-0.86
1.72
3.90
5.57
6.80
7.68
8.29
8.67
8.83
8.83
8.80
8.89
9.24
9.85
10.63
11.40
11.99
12.26
12.18
11.76
11.08
10.22
9.30
8.40
7.53
6.68
5.82
4.89
3.89
2.84
1.80
0.82
-0.09
-0.96
-1.87
-2.95
-4.32
-6.05
-8.14
-10.49
-12.91
-15.20
-17.19
-18.71
-19.63
-19.84
-19.23
-17.74
-15.44
-12.50
-9.20
-5.86
-2.73
-0.02
2.16
3.78
4.89
5.63
6.19
6.76
7.42
8.20
8.99
9.68
10.16
10.41
10.46
10.36
10.20
10.03
9.89
9.83
9.88
10.03
10.20
10.27
10.07
9.46
8.36
6.82
4.97
3.02
1.15
-0.52
-1.98
-3.27
-4.45
-5.59
-6.75
-8.00
-9.39
-10.97
-12.72
-14.57
-16.38
-17.99
-19.24
-19.96
-20.01
-19.30
-17.82
-15.68
-13.07
-10.22
-7.31
-4.43
-1.63
1.07
3.58
5.78
7.53
8.76
9.52
9.94
10.21
10.50
10.86
11.26
11.59
11.79
11.88
11.94
12.07
12.30
12.55
12.65
12.41
11.80
10.86
9.79
8.75
7.81
6.94
6.06
5.09
4.04
2.91
1.74
0.46
-0.98
-2.63
-4.42
-6.22
-7.91
-9.43
-10.87
-12.36
-14.04
-15.82
-17.47
-18.65
-19.02
-18.42
-16.90
-14.72
-12.19
-9.58
-7.05
-4.61
-2.25
0.02
2.17
4.08
5.69
6.97
7.99
8.87
9.73
10.61
11.47
12.26
12.92
13.43
13.86
14.25
14.63
14.94
15.11
15.02
14.63
13.99
13.17
12.30
11.44
10.60
9.72
8.69
7.45
5.97
4.30
2.53
0.74
-1.00
-2.62
-4.08
-5.35
-6.45
-7.46
-8.53
-9.83
-11.49
-13.54
-15.84
-18.14
-20.04
-21.18
-21.29
-20.30
-18.33
-15.67
-12.67
-9.61
-6.71
-4.02
-1.55
0.71
2.79
4.70
6.48
8.15
9.74
11.17
12.39
13.29
13.87
14.16
14.28
14.35
14.43
14.58
14.76
14.93
14.99
14.87
14.49
13.81
12.89
11.86
10.86
9.97
9.19
8.40
7.48
6.35
5.05
3.68
2.37
1.17
0.04
-1.08
-2.28
-3.58
-5.00
-6.53
-8.20
-10.06
-12.13
-14.37
-16.61
-18.56
-19.91
-20.39
-19.89
-18.48
-16.34
-13.75
-10.94
-8.09
-5.29
-2.59
-0.04
2.31
4.37
6.10
7.47
8.53
9.34
10.01
10.64
11.27
11.90
12.52
13.07
13.50
13.80
13.96
14.00
13.96
13.82
13.59
13.25
12.74
12.03
11.14
10.11
8.99
7.86
6.76
5.64
4.44
3.12
1.64
0.04
-1.57
-3.09
-4.44
-5.60
-6.63
-7.68
-8.93
-10.55
-12.62
-15.08
-17.70
-20.13
-21.98
-22.89
-22.63
-21.21
-18.79
-15.71
-12.36
-9.08
-6.14
-3.64
-1.59
0.07
1.44
2.60
3.57
4.40
5.13
5.84
6.59
7.40
8.23
8.99
9.60
10.03
10.32
10.54
10.76
10.96
11.13
11.21
11.21
11.16
11.08
10.92
10.59
9.96
9.01
7.81
6.56
5.37
4.34
3.37
2.35
1.19
-0.13
-1.52
-2.90
-4.22
-5.57
-7.06
-8.81
-10.87
-13.14
-15.44
-17.55
-19.20
-20.16
-20.25
-19.34
-17.47
-14.78
-11.57
-8.19
-4.94
-2.03
0.45
2.50
4.19
5.61
6.83
7.93
8.97
9.97
10.94
11.88
12.75
13.54
14.20
14.71
15.02
15.14
15.06
14.86
14.61
14.34
14.06
13.73
13.28
12.68
11.91
11.03
10.05
8.99
7.79
6.40
4.79
3.00
1.16
-0.62
-2.18
-3.48
-4.53
-5.39
-6.17
-7.02
-8.11
-9.57
-11.51
-13.89
-16.50
-19.01
-21.02
-22.21
-22.34
-21.39
-19.48
-16.84
-13.76
-10.50
-7.33
-4.47
-2.05
-0.10
1.43
2.69
3.83
4.96
6.15
7.38
8.58
9.68
10.61
11.35
11.88
12.21
12.31
12.22
12.03
11.91
12.02
12.52
13.38
14.41
15.29
15.66
15.32
14.24
12.62
10.79
9.04
7.55
6.30
5.13
3.83
2.25
0.39
-1.66
-3.72
-5.70
-7.55
-9.32
-11.09
-12.91
-14.75
-16.59
-18.38
-20.09
-21.62
-22.84
-23.58
-23.63
-22.88
-21.30
-18.99
-16.17
-13.15
-10.17
-7.43
-4.99
-2.81
-0.81
1.10
2.91
4.58
6.01
7.14
7.94
8.49
8.87
9.17
9.46
9.77
10.15
10.60
11.14
11.70
12.22
12.54
12.54
12.15
11.34
10.24
8.99
7.75
6.65
5.69
4.80
3.86
2.78
1.54
0.19
-1.16
-2.48
-3.74
-5.03
-6.40
-7.91
-9.61
-11.45
-13.39
-15.39
-17.31
-18.99
-20.25
-20.89
-20.78
-19.88
-18.26
-16.07
-13.52
-10.79
-8.05
-5.42
-2.97
-0.72
1.30
3.07
4.55
5.68
6.49
7.04
7.39
7.63
7.80
7.90
7.98
8.02
8.09
8.24
8.51
8.95
9.50
10.10
10.64
10.96
10.97
10.62
9.97
9.13
8.20
7.20
6.10
4.83
3.36
1.75
0.11
-1.40
-2.69
-3.78
-4.76
-5.76
-6.92
-8.30
-9.93
-11.74
-13.63
-15.48
-17.12
-18.38
-19.07
-19.07
-18.35
-16.96
-15.07
-12.84
-10.43
-7.96
-5.48
-3.07
-0.78
1.32
3.17
4.72
5.98
6.93
7.61
8.05
8.37
8.69
9.11
9.69
10.38
11.09
11.69
12.10
12.32
12.36
12.26
12.05
11.72
11.23
10.55
9.68
8.70
7.70
6.80
6.01
5.24
4.37
3.23
1.81
0.16
-1.57
-3.23
-4.76
-6.20
-7.69
-9.33
-11.20
-13.24
-15.38
-17.43
-19.23
-20.60
-21.35
-21.32
-20.43
-18.74
-16.40
-13.72
-10.98
-8.39
-6.05
-3.88
-1.77
0.37
2.49
4.53
6.33
7.83
9.04
10.05
10.99
11.90
12.76
13.48
13.98
14.23
14.28
14.22
14.13
14.03
13.85
13.55
13.07
12.44
11.69
10.84
9.86
8.72
7.41
5.97
4.49
3.08
1.79
0.65
-0.34
-1.21
-2.00
-2.77
-3.61
-4.63
-5.94
-7.58
-9.51
-11.64
-13.86
-16.02
-17.93
-19.39
-20.22
-20.25
-19.44
-17.87
-15.69
-13.15
-10.46
-7.73
-5.02
-2.37
0.19
2.53
4.55
6.15
7.34
8.23
8.99
9.75
10.58
11.44
12.23
12.86
13.27
13.49
13.57
13.59
13.63
13.70
13.77
13.75
13.55
13.06
12.26
11.23
10.08
8.94
7.90
7.00
6.22
5.49
4.70
3.77
2.60
1.16
-0.51
-2.27
-3.94
-5.41
-6.66
-7.84
-9.16
-10.80
-12.85
-15.23
-17.65
-19.76
-21.23
-21.81
-21.42
-20.12
-18.09
-15.59
-12.86
-10.10
-7.43
-4.90
-2.51
-0.25
1.88
3.83
5.51
6.83
7.76
8.35
8.71
9.01
9.37
9.82
10.32
10.76
11.06
11.17
11.16
11.06
10.93
10.73
10.39
9.86
9.10
8.18
7.18
6.23
5.37
4.63
3.95
3.28
2.55
1.67
0.59
-0.71
-2.18
-3.70
-5.13
-6.39
-7.52
-8.74
-10.25
-12.21
-14.54
-16.99
-19.16
-20.66
-21.27
-20.94
-19.77
-17.96
-15.68
-13.11
-10.41
-7.71
-5.10
-2.68
-0.47
1.53
3.33
4.97
6.45
7.78
8.96
10.04
11.02
11.92
12.73
13.43
14.02
14.47
14.76
14.86
14.75
14.41
13.91
13.27
12.53
11.70
10.77
9.72
8.55
7.34
6.16
5.08
4.17
3.39
2.64
1.82
0.84
-0.34
-1.64
-2.96
-4.21
-5.41
-6.68
-8.23
-10.20
-12.55
-15.09
-17.45
-19.28
-20.30
-20.45
-19.81
-18.55
-16.86
-14.86
-12.59
-10.02
-7.15
-4.07
-0.96
1.90
4.26
6.00
7.16
7.94
8.57
9.20
9.89
10.61
11.28
11.90
12.48
13.01
13.45
13.74
13.77
13.55
13.10
12.53
11.91
11.25
10.50
9.60
8.52
7.31
6.04
4.80
3.58
2.34
1.02
-0.39
-1.85
-3.26
-4.53
-5.67
-6.71
-7.71
-8.72
-9.81
-11.05
-12.51
-14.25
-16.21
-18.21
-19.90
-20.93
-21.05
-20.21
-18.58
-16.42
-13.99
-11.41
-8.70
-5.84
-2.88
0.02
2.60
4.66
6.13
7.11
7.82
8.48
9.22
9.97
10.61
11.06
11.34
11.58
11.94
12.47
13.09
13.61
13.88
13.87
13.67
13.44
13.24
13.02
12.59
11.79
10.56
8.99
7.30
5.65
4.14
2.76
1.43
0.17
-1.02
-2.05
-2.91
-3.67
-4.52
-5.68
-7.25
-9.24
-11.48
-13.78
-15.92
-17.74
-19.13
-20.02
-20.29
-19.88
-18.77
-17.00
-14.71
-12.13
-9.48
-6.90
-4.44
-2.11
0.11
2.15
3.95
5.38
6.41
7.06
7.48
7.82
8.20
8.66
9.15
9.60
9.92
10.11
10.18
10.16
10.08
9.92
9.70
9.40
9.04
8.61
8.11
7.55
6.90
6.16
5.33
4.43
3.47
2.47
1.38
0.16
-1.24
-2.80
-4.46
-6.14
-7.75
-9.33
-10.98
-12.78
-14.73
-16.66
-18.29
-19.35
-19.68
-19.27
-18.27
-16.86
-15.13
-13.17
-11.03
-8.84
-6.77
-4.98
-3.48
-2.20
-0.93
0.46
2.02
3.70
5.39
6.99
8.45
9.74
10.81
11.60
12.07
12.27
12.33
12.44
12.71
13.11
13.49
13.63
13.39
12.75
11.81
10.72
9.63
8.57
7.53
6.44
5.27
4.04
2.77
1.49
0.22
-1.05
-2.33
-3.63
-4.96
-6.36
-7.91
-9.71
-11.77
-14.00
-16.21
-18.08
-19.33
-19.74
-19.25
-17.93
-15.94
-13.49
-10.81
-8.09
-5.51
-3.16
-1.07
0.78
2.46
4.03
5.50
6.86
8.03
8.99
9.74
10.31
10.79
11.26
11.78
12.35
12.89
13.28
13.43
13.29
12.86
12.26
11.60
10.99
10.45
9.92
9.31
8.50
7.47
6.23
4.87
3.47
2.09
0.70
-0.69
-2.06
-3.36
-4.48
-5.39
-6.19
-7.08
-8.36
-10.19
-12.51
-15.09
-17.50
-19.34
-20.31
-20.29
-19.38
-17.76
-15.67
-13.37
-11.04
-8.83
-6.79
-4.87
-2.99
-1.05
0.96
2.98
4.84
6.43
7.69
8.68
9.52
10.35
11.18
11.97
12.61
12.97
13.06
12.95
12.76
12.58
12.37
12.01
11.36
10.37
9.13
7.85
6.76
5.97
5.44
4.98
4.40
3.59
2.55
1.36
0.13
-1.07
-2.24
-3.39
-4.55
-5.80
-7.22
-8.92
-10.94
-13.22
-15.62
-17.86
-19.66
-20.77
-21.04
-20.46
-19.12
-17.20
-14.93
-12.48
-9.97
-7.43
-4.87
-2.27
0.30
2.79
5.10
7.14
8.86
10.23
11.25
11.95
12.40
12.69
12.87
13.00
13.06
13.02
12.92
12.78
12.66
12.52
12.30
11.89
11.21
10.32
9.31
8.34
7.43
6.53
5.50
4.21
2.66
0.95
-0.72
-2.14
-3.20
-3.88
-4.25
-4.49
-4.83
-5.49
-6.69
-8.51
-10.88
-13.54
-16.10
-18.16
-19.42
-19.72
-19.07
-17.62
-15.56
-13.12
-10.49
-7.87
-5.41
-3.23
-1.38
0.13
1.38
2.46
3.49
4.53
5.55
6.50
7.29
7.89
8.29
8.58
8.82
9.07
9.32
9.49
9.48
9.20
8.64
7.88
7.03
6.21
5.47
4.83
4.26
3.73
3.24
2.78
2.32
1.78
1.08
0.18
-0.91
-2.08
-3.21
-4.23
-5.16
-6.15
-7.37
-8.98
-11.00
-13.30
-15.61
-17.59
-18.98
-19.57
-19.33
-18.33
-16.72
-14.68
-12.33
-9.77
-7.07
-4.30
-1.59
0.92
3.11
4.93
6.39
7.57
8.55
9.43
10.20
10.86
11.42
11.92
12.39
12.88
13.36
13.75
13.98
14.01
13.88
13.67
13.45
13.26
13.04
12.66
12.01
11.03
9.76
8.33
6.87
5.46
4.10
2.71
1.20
-0.48
-2.30
-4.18
-5.99
-7.63
-9.13
-10.58
-12.15
-13.95
-15.96
-18.03
-19.82
-21.00
-21.29
-20.57
-18.95
-16.66
-14.03
-11.31
-8.73
-6.37
-4.29
-2.46
-0.87
0.51
1.72
2.81
3.83
4.80
5.76
6.68
7.57
8.37
9.10
9.74
10.27
10.72
11.05
11.30
11.46
11.55
11.59
11.56
11.42
11.09
10.49
9.57
8.39
7.07
5.80
4.72
3.87
3.18
2.47
1.61
0.58
-0.55
-1.68
-2.75
-3.82
-5.01
-6.45
-8.16
-10.05
-11.99
-13.85
-15.56
-17.04
-18.18
-18.82
-18.77
-17.93
-16.33
-14.13
-11.56
-8.80
-6.00
-3.22
-0.52
1.98
4.14
5.85
7.06
7.86
8.40
8.85
9.31
9.83
10.38
10.89
11.26
11.47
11.50
11.40
11.25
11.10
10.94
10.68
10.26
9.62
8.80
7.92
7.06
6.24
5.39
4.41
3.23
1.89
0.50
-0.86
-2.20
-3.57
-5.07
-6.71
-8.40
-10.02
-11.43
-12.66
-13.79
-14.97
-16.29
-17.64
-18.79
-19.41
-19.24
-18.22
-16.47
-14.26
-11.88
-9.56
-7.35
-5.21
-3.10
-0.99
1.04
2.88
4.43
5.67
6.61
7.31
7.81
8.13
8.33
8.46
8.60
8.78
9.02
9.30
9.57
9.78
9.94
10.02
10.03
9.93
9.71
9.33
8.83
8.29
7.75
7.22
6.61
5.81
4.68
3.22
1.50
-0.29
-1.96
-3.35
-4.48
-5.50
-6.63
-8.10
-10.00
-12.27
-14.65
-16.77
-18.26
-18.91
-18.68
-17.69
-16.16
-14.30
-12.28
-10.19
-8.10
-6.05
-4.06
-2.15
-0.30
1.48
3.19
4.76
6.11
7.17
7.90
8.39
8.75
9.12
9.56
10.04
10.48
10.76
10.85
10.81
10.72
10.63
10.49
10.18
9.60
8.74
7.70
6.69
5.83
5.17
4.57
3.85
2.86
1.59
0.13
-1.30
-2.55
-3.57
-4.48
-5.48
-6.83
-8.68
-11.01
-13.62
-16.20
-18.42
-20.02
-20.85
-20.87
-20.11
-18.68
-16.75
-14.50
-12.14
-9.81
-7.56
-5.38
-3.24
-1.10
0.98
2.91
4.55
5.82
6.68
7.18
7.45
7.64
7.88
8.26
8.78
9.43
10.10
10.76
11.34
11.82
12.19
12.39
12.38
12.12
11.61
10.88
9.99
8.96
7.78
6.44
4.97
3.45
2.03
0.85
-0.06
-0.76
-1.43
-2.26
-3.43
-5.04
-7.06
-9.39
-11.86
-14.28
-16.43
-18.12
-19.16
-19.42
-18.87
-17.54
-15.62
-13.35
-10.96
-8.62
-6.37
-4.17
-1.93
0.32
2.47
4.29
5.63
6.44
6.92
7.34
7.94
8.84
9.95
11.08
12.01
12.67
13.07
13.26
13.27
13.06
12.54
11.67
10.48
9.12
7.80
6.67
5.81
5.15
4.56
3.86
2.90
1.65
0.15
-1.46
-3.05
-4.52
-5.83
-7.03
-8.24
-9.58
-11.13
-12.88
-14.75
-16.58
-18.17
-19.32
-19.86
-19.64
-18.66
-16.98
-14.76
-12.21
-9.56
-6.97
-4.54
-2.32
-0.30
1.53
3.17
4.56
5.68
6.51
7.12
7.60
8.06
8.57
9.12
9.64
10.03
10.22
10.19
10.02
9.78
9.56
9.37
9.17
8.90
8.49
7.97
7.36
6.72
6.07
5.37
4.56
3.58
2.38
0.98
-0.55
-2.13
-3.71
-5.26
-6.81
-8.44
-10.22
-12.17
-14.21
-16.13
-17.65
-18.49
-18.48
-17.60
-15.97
-13.85
-11.46
-8.98
-6.52
-4.16
-1.92
0.15
2.02
3.66
5.11
6.40
7.55
8.59
9.51
10.26
10.87
11.39
11.89
12.47
13.16
13.92
14.61
15.03
15.02
14.54
13.68
12.60
11.53
10.58
9.74
8.94
8.06
7.06
5.95
4.77
3.60
2.43
1.23
0.01
-1.24
-2.52
-3.87
-5.38
-7.17
-9.30
-11.74
-14.29
-16.69
-18.66
-19.94
-20.39
-19.96
-18.72
-16.81
-14.43
-11.77
-9.00
-6.20
-3.46
-0.85
1.50
3.47
4.96
5.95
6.57
7.02
7.48
8.08
8.84
9.72
10.67
11.62
12.55
13.43
14.23
14.88
15.35
15.57
15.54
15.28
14.82
14.25
13.62
12.98
12.37
11.84
11.43
11.17
11.02
10.85
10.47
9.70
8.48
6.90
5.19
3.57
2.14
0.88
-0.42
-2.00
-4.08
-6.73
-9.83
-12.98
-15.61
-17.08
-16.95
-15.15
-12.05
-8.22
-4.20
-0.17
4.05
8.79
14.24
20.09
25.58
29.77
32.03
32.36
31.51
30.65
30.86
32.61
35.55
38.71
41.05
41.99
41.64
40.64
39.73
39.41
39.84
40.98
42.69
44.47
45.18
42.95
35.76
22.57
4.38
-15.39
-31.90
-40.77
-40.11
-31.51
-19.52
-9.82
-7.03
-13.15
-27.35
-47.02
-69.36
-92.62
-115.96
-138.51
-158.23
-171.78
-175.69
-168.25
-150.69
-127.01
-102.13
-79.72
-61.10
-45.58
-31.98
-19.96
-10.06
-2.66
3.31
10.44
21.58
38.00
58.44
79.71
98.55
113.34
124.54
133.77
142.19
149.56
154.46
155.49
152.50
146.81
140.29
134.13
128.04
120.66
110.77
98.27
84.19
69.96
56.36
43.12
29.10
13.09
-5.75
-27.75
-53.05
-81.69
-113.31
-146.53
-178.66
-206.03
-225.10
-233.89
-232.93
-225.15
-214.74
-205.38
-198.75
-193.91
-188.00
-177.74
-161.08
-138.15
-111.02
-82.55
-55.22
-30.49
-9.03
8.64
21.62
28.88
29.90
25.39
17.41
8.76
1.85
-2.08
-3.42
-3.69
-4.65
-7.53
-12.44
-18.55
-24.51
-28.95
-31.07
-30.91
-29.34
-27.60
-26.59
-26.20
-25.11
-21.27
-12.92
0.41
17.47
35.74
52.51
65.86
75.19
80.91
83.87
84.97
85.00
84.72
84.83
85.65
86.92
87.84
87.59
85.67
82.15
77.24
71.10
63.72
55.36
46.87
39.70
35.29
34.14
35.29
36.66
36.04
32.35
26.22
19.60
14.71
12.88
13.93
16.40
18.30
18.11
15.35
10.72
5.56
1.22
-1.53
-2.81
-3.36
-4.03
-5.36
-7.40
-9.84
-12.28
-14.52
-16.56
-18.45
-20.07
-21.06
-20.99
-19.49
-16.49
-12.23
-7.12
-1.61
3.95
9.41
14.78
20.02
24.90
28.89
31.19
31.17
28.74
24.56
19.97
16.36
14.62
14.71
15.81
16.87
17.14
16.50
15.28
13.88
12.52
11.13
9.56
7.77
5.98
4.52
3.66
3.43
3.61
3.74
3.32
2.04
-0.08
-2.60
-4.88
-6.35
-6.87
-6.82
-6.93
-7.79
-9.46
-11.35
-12.55
-12.38
-10.77
-8.31
-5.85
-4.07
-3.19
-3.08
-3.56
-4.61
-6.27
-8.40
-10.42
-11.48
-10.81
-8.20
-4.16
0.34
4.38
7.47
9.66
11.31
12.65
13.71
14.25
14.05
13.19
11.98
10.86
10.13
9.85
9.82
9.73
9.22
8.05
6.08
3.35
0.16
-2.99
-5.53
-6.98
-7.24
-6.64
-5.87
-5.64
-6.36
-7.96
-9.96
-11.75
-12.92
-13.42
-13.43
-13.18
-12.66
-11.59
-9.61
-6.48
-2.43
1.95
5.87
8.65
10.01
10.09
9.39
8.45
7.71
7.36
7.39
7.65
8.03
8.44
8.84
9.19
9.42
9.44
9.21
8.77
8.24
7.73
7.29
6.85
6.28
5.40
4.12
2.46
0.61
-1.21
-2.78
-4.06
-5.14
-6.21
-7.50
-9.07
-10.92
-12.92
-14.96
-16.98
-18.84
-20.34
-21.17
-21.10
-20.06
-18.28
-16.18
-14.14
-12.28
-10.33
-7.75
-3.96
1.31
7.90
15.11
21.92
27.20
30.10
30.29
28.10
24.41
20.40
17.16
15.39
15.22
16.36
18.15
19.89
20.93
20.86
19.56
17.24
14.31
11.30
8.60
6.45
4.85
3.64
2.62
1.62
0.44
-1.06
-3.08
-5.67
-8.75
-12.00
-14.90
-16.81
-17.25
-16.06
-13.45
-9.97
-6.18
-2.45
1.26
5.22
9.69
14.66
19.73
24.25
27.58
29.38
29.66
28.65
26.61
23.65
19.76
14.95
9.39
3.42
-2.48
-7.89
-12.43
-15.89
-18.15
-19.28
-19.55
-19.50
-19.76
-20.81
-22.73
-25.12
-27.27
-28.49
-28.46
-27.39
-25.82
-24.34
-23.23
-22.40
-21.54
-20.47
-19.27
-18.33
-18.07
-18.62
-19.63
-20.36
-20.01
-17.99
-14.25
-9.22
-3.68
1.57
5.88
8.97
10.93
12.15
13.12
14.22
15.60
17.09
18.34
18.95
18.77
17.88
16.64
15.47
14.63
14.15
13.84
13.52
13.11
12.76
12.70
13.06
13.73
14.43
14.92
15.23
15.70
16.85
19.04
22.16
25.62
28.60
30.38
30.64
29.47
27.12
23.79
19.48
14.05
7.47
0.02
-7.68
-14.93
-21.19
-26.39
-30.98
-35.58
-40.59
-45.81
-50.37
-53.04
-52.87
-49.65
-44.14
-37.74
-31.89
-27.42
-24.35
-22.09
-20.05
-18.10
-16.59
-16.00
-16.43
-17.32
-17.74
-16.98
-15.12
-13.07
-12.04
-12.72
-14.73
-16.84
-17.69
-16.82
-15.05
-14.12
-15.85
-21.05
-29.28
-39.12
-49.02
-58.09
-66.27
-73.98
-81.42
-88.14
-93.21
-95.83
-96.11
-95.40
-95.83
-99.20
-105.69
-113.38
-118.73
-118.05
-109.11
-91.99
-68.83
-42.56
-15.63
10.76
36.58
62.24
88.02
113.98
140.47
168.31
198.47
230.99
264.17
294.44
317.40
329.42
328.96
316.91
295.98
269.55
240.68
211.58
183.66
157.72
134.17
113.07
94.30
77.66
62.93
49.76
37.44
24.72
10.05
-7.68
-28.57
-51.40
-74.14
-94.79
-112.26
-126.45
-137.72
-146.11
-150.95
-151.08
-145.50
-134.13
-118.05
-99.12
-79.42
-60.70
-44.14
-30.48
-20.17
-13.30
-9.53
-8.04
-7.76
-7.77
-7.70
-7.71
-8.27
-9.69
-11.95
-14.82
-18.10
-21.75
-25.82
-30.26
-34.63
-38.21
-40.29
-40.61
-39.58
-38.09
-37.08
-37.03
-37.76
-38.56
-38.68
-37.77
-36.05
-34.17
-32.83
-32.43
-32.89
-33.88
-34.99
-36.10
-37.26
-38.64
-40.21
-41.65
-42.44
-42.11
-40.49
-37.82
-34.64
-31.47
-28.62
-26.00
-23.25
-19.99
-16.07
-11.73
-7.48
-3.89
-1.26
0.44
1.59
2.61
3.74
4.97
6.07
6.86
7.35
7.69
8.12
8.69
9.27
9.54
9.27
8.39
7.04
5.51
4.06
2.83
1.79
0.82
-0.21
-1.38
-2.67
-4.05
-5.51
-7.06
-8.74
-10.53
-12.29
-13.78
-14.68
-14.73
-13.84
-12.15
-9.91
-7.46
-5.04
-2.76
-0.63
1.39
3.32
5.09
6.63
7.80
8.57
8.97
9.14
9.25
9.49
9.98
10.69
11.49
12.19
12.61
12.69
12.50
12.17
11.82
11.47
11.05
10.46
9.62
8.56
7.37
6.14
4.91
3.70
2.47
1.18
-0.20
-1.69
-3.29
-4.94
-6.53
-7.86
-8.76
-9.13
-8.98
-8.40
-7.51
-6.34
-4.84
-2.97
-0.77
1.57
3.77
5.57
6.85
7.69
8.28
8.87
9.59
10.46
11.40
12.31
13.10
13.75
14.25
14.59
14.78
14.83
14.76
14.55
14.09
13.20
11.70
9.46
6.51
3.11
-0.36
-3.41
-5.65
-6.92
-7.33
-7.29
-7.36
-8.04
-9.56
-11.81
-14.34
-16.55
-17.94
-18.22
-17.36
-15.52
-12.96
-9.95
-6.74
-3.54
-0.59
1.98
4.08
5.63
6.60
6.94
6.62
5.73
4.60
3.69
3.51
4.32
5.94
7.76
9.04
9.22
8.32
6.97
6.17
6.90
9.64
14.18
19.66
25.04
29.49
32.81
35.38
37.92
41.08
45.13
49.98
55.39
61.25
67.47
73.75
79.36
83.12
83.88
81.10
75.17
67.32
58.97
51.20
44.42
38.57
33.58
29.68
27.31
26.66
27.15
27.44
25.79
20.83
12.23
0.85
-11.55
-23.06
-32.30
-38.84
-43.09
-45.93
-48.19
-50.40
-52.68
-55.05
-57.56
-60.23
-62.84
-64.66
-64.51
-61.30
-54.73
-45.79
-36.61
-29.66
-26.66
-27.86
-32.05
-37.26
-41.81
-44.95
-46.94
-48.46
-49.86
-50.94
-51.10
-49.98
-47.78
-45.20
-43.02
-41.57
-40.56
-39.38
-37.60
-35.25
-32.74
-30.36
-27.84
-24.33
-18.99
-11.65
-3.34
4.08
8.81
10.17
9.05
7.57
7.87
11.03
16.47
22.46
27.03
29.12
28.86
27.16
25.06
22.93
20.47
17.08
12.59
7.63
3.51
1.56
2.38
5.39
9.16
12.05
13.03
12.05
9.85
7.26
4.62
1.66
-1.86
-5.59
-8.47
-9.32
-7.69
-4.33
-0.88
0.99
0.41
-2.27
-5.89
-9.18
-11.36
-12.23
-11.96
-10.74
-8.70
-6.09
-3.37
-1.18
-0.03
-0.07
-1.04
-2.58
-4.37
-6.11
-7.52
-8.29
-8.28
-7.55
-6.42
-5.36
-4.75
-4.71
-5.01
-5.23
-4.96
-3.99
-2.39
-0.35
1.87
4.13
6.30
8.25
9.79
10.80
11.29
11.48
11.68
12.06
12.57
12.95
12.90
12.31
11.34
10.31
9.53
9.06
8.74
8.28
7.49
6.35
5.02
3.75
2.72
2.06
1.79
1.91
2.35
2.96
3.49
3.64
3.12
1.78
-0.33
-2.90
-5.45
-7.35
-8.05
-7.24
-5.00
-1.90
1.23
3.53
4.47
4.04
2.77
1.44
0.77
1.17
2.62
4.81
7.27
9.58
11.43
12.61
13.04
12.75
11.87
10.64
9.42
8.57
8.40
9.06
10.46
12.24
13.93
15.06
15.33
14.63
13.06
10.79
8.00
4.86
1.59
-1.54
-4.25
-6.38
-7.92
-9.01
-9.79
-10.42
-11.09
-12.12
-14.00
-16.98
-20.76
-24.27
-25.89
-24.20
-18.68
-10.25
-0.92
7.20
12.87
16.42
19.29
23.07
28.36
34.38
39.43
42.01
41.80
39.93
38.33
38.66
41.45
45.92
50.52
53.74
54.62
52.57
47.05
37.67
24.70
9.72
-4.22
-13.28
-14.27
-5.99
10.01
29.87
48.65
62.09
68.27
68.31
65.85
65.47
70.60
81.95
97.39
113.06
125.27
132.01
133.09
129.14
120.24
105.49
83.89
55.81
23.90
-7.53
-33.98
-52.38
-61.89
-63.34
-58.48
-49.35
-38.28
-27.94
-21.19
-20.46
-26.96
-40.22
-58.13
-77.83
-96.54
-112.24
-123.82
-131.05
-134.37
-134.67
-132.84
-129.22
-123.44
-114.58
-102.12
-86.72
-70.37
-55.62
-44.19
-35.90
-28.63
-19.47
-6.33
10.75
29.58
46.89
60.09
68.38
72.93
75.91
79.20
83.41
87.86
91.09
91.92
90.18
86.77
83.18
80.59
79.21
78.27
76.51
73.01
67.73
61.53
55.66
51.05
47.84
45.34
42.44
38.16
32.10
24.71
17.01
10.10
4.58
0.18
-4.13
-9.53
-16.66
-25.26
-34.21
-42.19
-48.23
-52.00
-53.64
-53.36
-51.21
-47.11
-41.20
-34.05
-26.66
-20.08
-15.05
-11.78
-9.92
-8.90
-8.08
-7.07
-5.66
-3.87
-1.85
0.25
2.31
4.22
5.92
7.23
7.90
7.65
6.29
3.92
0.85
-2.50
-5.76
-8.87
-12.02
-15.55
-19.74
-24.68
-30.21
-36.00
-41.64
-46.70
-50.79
-53.61
-54.93
-54.64
-52.73
-49.29
-44.57
-38.97
-33.02
-27.35
-22.50
-18.72
-15.85
-13.48
-11.06
-8.23
-4.83
-0.88
3.57
8.55
14.12
20.18
26.44
32.34
37.26
40.67
42.22
41.71
39.10
34.49
28.23
20.96
13.50
6.62
0.82
-3.78
-7.41
-10.45
-13.31
-16.38
-19.90
-23.90
-28.15
-32.10
-35.08
-36.50
-36.08
-34.02
-30.83
-27.13
-23.40
-19.87
-16.51
-13.22
-9.96
-6.76
-3.73
-0.97
1.37
3.12
4.18
4.51
4.28
3.75
3.22
2.91
2.86
2.97
3.04
2.88
2.36
1.44
0.15
-1.38
-3.03
-4.58
-5.88
-6.88
-7.60
-8.18
-8.87
-9.91
-11.50
-13.70
-16.36
-19.19
-21.78
-23.79
-25.05
-25.51
-25.24
-24.31
-22.78
-20.71
-18.20
-15.37
-12.23
-8.69
-4.66
-0.17
4.40
8.38
11.07
12.04
11.38
9.62
7.52
5.68
4.35
3.43
2.67
1.88
1.07
0.47
0.36
0.85
1.80
2.79
3.31
2.98
1.79
0.07
-1.69
-3.08
-4.04
-4.79
-5.66
-6.90
-8.54
-10.39
-12.22
-13.82
-15.00
-15.59
-15.48
-14.70
-13.42
-11.89
-10.28
-8.55
-6.49
-3.96
-1.06
1.80
4.03
5.10
4.83
3.49
1.64
-0.07
-1.14
-1.39
-0.99
-0.33
0.12
0.04
-0.62
-1.69
-2.85
-3.89
-4.82
-5.82
-7.11
-8.76
-10.64
-12.51
-14.11
-15.29
-16.04
-16.47
-16.78
-17.25
-18.15
-19.68
-21.82
-24.24
-26.40
-27.66
-27.53
-25.84
-22.71
-18.46
-13.47
-8.12
-2.73
2.36
6.74
10.11
12.34
13.59
14.23
14.68
15.23
15.86
16.31
16.27
15.56
14.25
12.61
10.97
9.64
8.80
8.59
8.98
9.82
10.82
11.59
11.73
10.97
9.19
6.39
2.71
-1.61
-6.23
-10.72
-14.65
-17.73
-19.87
-21.17
-21.76
-21.70
-20.86
-19.15
-16.58
-13.42
-10.11
-7.10
-4.62
-2.71
-1.21
0.01
1.03
1.78
2.24
2.50
2.76
3.21
3.99
4.99
5.96
6.58
6.61
6.00
4.94
3.69
2.58
1.80
1.37
1.17
0.91
0.26
-1.11
-3.36
-6.43
-9.98
-13.53
-16.61
-18.90
-20.33
-21.05
-21.30
-21.32
-21.22
-21.02
-20.64
-20.01
-19.07
-17.80
-16.19
-14.17
-11.68
-8.71
-5.33
-1.75
1.76
4.88
7.37
9.12
10.16
10.56
10.39
9.67
8.36
6.53
4.35
2.19
0.47
-0.46
-0.53
0.09
0.96
1.63
1.78
1.34
0.49
-0.50
-1.38
-2.08
-2.70
-3.43
-4.49
-6.00
-8.06
-10.76
-14.15
-18.18
-22.58
-26.77
-29.99
-31.50
-30.92
-28.36
-24.36
-19.59
-14.58
-9.52
-4.36
1.04
6.60
12.06
17.03
21.09
23.97
25.58
25.97
25.33
23.90
22.00
19.94
17.98
16.32
15.07
14.29
13.98
14.08
14.40
14.64
14.47
13.59
11.94
9.63
6.94
4.20
1.66
-0.59
-2.63
-4.66
-6.93
-9.64
-12.80
-16.32
-19.99
-23.49
-26.54
-28.85
-30.14
-30.16
-28.75
-25.93
-21.90
-17.10
-12.02
-7.11
-2.64
1.29
4.73
7.67
10.07
11.86
13.00
13.60
13.82
13.84
13.77
13.66
13.50
13.32
13.18
13.17
13.28
13.36
13.18
12.51
11.21
9.32
6.98
4.39
1.70
-0.98
-3.56
-6.01
-8.28
-10.42
-12.59
-14.99
-17.81
-21.09
-24.64
-28.08
-30.92
-32.67
-33.02
-31.82
-29.11
-25.06
-19.94
-14.07
-7.87
-1.75
3.90
8.81
12.85
16.04
18.52
20.46
22.00
23.22
24.12
24.67
24.82
24.53
23.85
22.85
21.63
20.31
19.01
17.84
16.87
16.13
15.52
14.88
13.90
12.37
10.19
7.47
4.49
1.50
-1.35
-4.14
-7.09
-10.41
-14.18
-18.27
-22.40
-26.23
-29.46
-31.76
-32.84
-32.38
-30.16
-26.19
-20.82
-14.67
-8.47
-2.78
2.08
6.14
9.58
12.64
15.50
18.20
20.69
22.84
24.53
25.67
26.26
26.41
26.28
26.02
25.74
25.49
25.23
24.94
24.57
24.07
23.35
22.24
20.55
18.23
15.40
12.34
9.42
6.85
4.71
2.82
0.89
-1.35
-4.09
-7.37
-11.11
-15.12
-19.15
-22.92
-26.03
-28.10
-28.78
-27.81
-25.20
-21.13
-15.97
-10.14
-4.02
2.10
8.01
13.49
18.33
22.31
25.27
27.22
28.37
29.07
29.63
30.22
