1710437856.00
64.000000
-0.00
-0.00
-0.00
-0.00
-0.00
-0.00
-0.00
-0.00
-0.00
-0.00
0.00
0.01
0.01
-0.00
-0.03
-0.05
-0.05
0.00
0.13
0.36
0.66
1.01
1.37
1.72
2.06
2.40
2.79
3.24
3.80
4.42
5.06
5.66
6.20
6.68
7.15
7.68
8.31
9.14
10.09
11.04
11.88
12.56
13.14
13.76
14.65
15.96
17.91
20.32
22.90
25.38
27.58
29.57
31.68
34.32
37.81
42.54
48.15
54.10
59.83
64.97
69.58
74.14
79.34
85.71
93.76
103.00
112.62
121.73
129.77
136.75
143.30
150.75
157.77
166.64
177.95
191.79
206.97
220.57
228.25
225.36
208.53
176.87
132.76
80.05
23.07
-34.94
-92.44
-149.16
-205.23
-260.37
-313.74
-363.87
-409.83
-450.91
-486.50
-515.74
-537.23
-549.22
-549.96
-538.37
-514.21
-478.67
-433.88
-382.45
-327.02
-269.84
-212.63
-156.66
-102.95
-52.37
-5.90
35.58
71.43
101.35
125.50
144.38
158.69
169.15
176.37
180.75
182.57
182.07
179.51
175.23
169.65
163.18
156.15
148.81
141.30
133.69
126.02
118.33
110.69
103.16
95.80
88.68
81.83
75.25
68.95
62.95
57.25
51.86
46.78
42.03
37.59
33.45
29.61
26.07
22.81
19.83
17.11
14.67
12.48
10.54
8.83
7.35
6.07
4.97
4.05
3.27
2.62
2.09
1.65
1.30
1.01
0.79
0.62
0.48
0.38
0.31
0.27
0.24
0.23
0.23
0.24
0.27
0.30
0.33
0.37
0.41
0.46
0.50
0.55
0.60
0.66
0.71
0.77
0.84
0.91
0.98
1.07
1.16
1.26
1.38
1.51
1.66
1.82
2.01
2.22
2.44
2.70
2.97
3.28
3.62
3.99
4.40
4.84
5.32
5.84
6.39
6.99
7.62
8.31
9.04
9.81
10.63
11.49
12.40
13.36
14.36
15.44
16.57
17.78
19.03
20.33
21.62
22.87
23.96
24.82
25.30
25.29
24.66
23.35
21.29
18.48
15.01
10.95
6.48
1.81
-2.86
-7.30
-11.32
-14.75
-17.49
-19.45
-20.63
-21.06
-20.81
-19.99
-18.71
-17.09
-15.23
-13.24
-11.17
-9.07
-6.95
-4.85
-2.80
-0.77
1.23
3.23
5.24
7.26
9.32
11.48
13.70
15.95
18.26
20.67
23.16
25.74
28.45
31.33
34.54
37.94
41.49
45.24
49.16
53.27
57.54
61.95
66.57
71.62
76.87
82.31
87.96
93.84
99.84
105.80
111.56
117.03
122.40
127.34
131.78
135.69
138.86
140.74
140.42
136.59
127.45
115.65
102.18
87.90
73.50
59.35
45.34
31.05
15.93
-0.32
-17.45
-35.39
-53.63
-71.57
-88.88
-105.64
-122.25
-139.31
-157.52
-177.51
-200.20
-225.61
-252.39
-277.65
-297.45
-307.90
-306.58
-293.50
-271.03
-243.41
-214.79
-188.13
-164.82
-144.90
-127.89
-113.33
-100.98
-90.63
-82.04
-74.69
-68.03
-61.86
-56.53
-52.75
-51.22
-51.92
-53.77
-54.64
-52.01
-43.85
-29.47
-9.91
12.41
34.46
53.58
68.16
77.83
83.19
85.30
85.19
83.59
80.79
76.97
72.25
66.95
61.48
56.35
52.03
48.80
46.83
46.10
46.38
47.27
48.18
48.45
47.52
45.13
41.45
36.93
32.13
27.44
22.89
18.22
12.92
6.44
-1.56
-10.94
-20.90
-29.90
-35.97
-37.23
-32.61
-22.31
-7.84
8.37
23.73
36.20
44.64
48.88
49.44
47.17
43.05
37.94
32.56
27.43
22.84
18.91
15.65
13.05
11.13
9.86
9.11
8.61
7.93
6.61
4.35
1.01
-3.26
-8.20
-13.47
-18.77
-23.91
-28.73
-33.23
-37.57
-42.15
-47.39
-53.48
-59.98
-65.59
-68.44
-66.66
-59.13
-46.06
-29.04
-10.52
6.96
21.50
32.19
39.06
42.65
43.66
42.71
40.33
37.05
33.45
30.06
27.27
25.16
23.50
21.91
20.07
17.92
15.62
13.42
11.42
9.48
7.20
4.18
0.23
-4.57
-9.80
-14.96
-19.64
-23.73
-27.43
-31.25
-35.81
-41.61
-48.73
-56.55
-63.65
-68.06
-67.78
-61.50
-49.09
-31.79
-11.83
8.25
26.27
40.82
51.38
58.05
61.30
61.76
60.10
56.99
53.07
48.94
45.02
41.51
38.40
35.57
32.80
29.98
27.12
24.37
21.87
19.65
17.49
14.90
11.35
6.49
0.40
-6.46
-13.37
-19.63
-24.93
-29.39
-33.59
-38.32
-44.22
-51.52
-59.75
-67.72
-73.69
-75.83
-72.74
-63.91
-49.93
-32.37
-13.31
5.20
21.55
34.84
44.81
51.65
55.76
57.55
57.47
55.95
53.56
50.87
48.42
46.51
45.20
44.20
43.12
41.57
39.38
36.70
33.89
31.34
29.15
27.07
24.48
20.67
15.17
8.01
-0.17
-8.38
-15.62
-21.38
-25.74
-29.26
-32.75
-36.94
-42.38
-49.24
-57.17
-65.14
-71.50
-74.35
-72.05
-63.91
-50.48
-33.55
-15.46
1.54
16.02
27.42
35.64
40.93
43.65
44.15
42.78
40.07
36.63
33.09
29.97
27.04
24.05
20.86
17.59
14.29
11.11
8.02
5.01
2.10
-1.82
-7.44
-14.61
-22.58
-30.54
-37.73
-43.88
-48.74
-52.14
-55.48
-59.51
-63.83
-67.42
-69.61
-70.20
-70.10
-70.35
-71.63
-75.88
-83.00
-90.12
-92.90
-87.76
-72.94
-50.01
-22.33
18.09
70.20
124.93
171.26
203.72
220.78
228.87
232.23
232.54
229.39
220.45
203.63
178.48
145.80
106.58
62.66
16.61
-26.77
-61.20
-82.66
-89.72
-84.23
-71.36
-57.92
-49.31
-47.87
-51.93
-57.52
-62.03
-64.72
-66.41
-68.62
-72.49
-77.74
-83.35
-87.86
-90.39
-91.59
-92.72
-94.42
-95.94
-95.20
-89.21
-75.69
-53.86
-25.07
7.23
38.67
65.59
86.09
100.20
109.30
114.86
118.00
119.22
118.81
117.05
114.34
111.09
107.24
102.09
94.01
81.63
64.74
44.80
24.38
6.27
-7.52
-16.40
-21.34
-25.21
-30.58
-38.26
-47.05
-55.01
-60.79
-64.36
-66.96
-70.47
-78.51
-92.99
-112.51
-133.02
-150.17
-160.90
-163.60
-157.45
-142.19
-121.53
-99.23
-77.30
-56.23
-36.88
-21.13
-10.86
-6.95
-9.56
-23.31
-52.18
-96.31
-151.39
-211.23
-269.74
-322.24
-366.17
-374.47
-335.11
-260.39
-178.69
-111.50
-63.85
-30.52
-4.84
17.25
36.45
46.87
43.47
25.44
-3.30
-37.66
-71.15
-98.18
-114.30
-117.14
-110.98
-101.79
-94.10
-89.25
-86.49
-84.24
-81.11
-76.01
-68.09
-62.47
-61.72
-65.28
-69.80
-71.73
-68.97
-61.70
-51.49
-40.34
-30.95
-24.13
-18.90
-12.92
-4.03
8.64
24.37
41.44
57.80
71.39
81.40
88.09
92.46
95.52
97.81
99.24
99.42
98.04
95.10
91.21
87.12
83.33
79.85
76.18
71.43
64.89
56.53
47.18
38.68
33.18
32.55
37.86
49.21
65.93
87.04
111.61
139.15
169.62
203.32
240.73
282.22
327.45
374.67
420.28
459.14
485.85
496.69
491.19
472.67
447.16
421.18
399.37
383.15
370.89
359.32
345.31
327.22
305.17
280.55
255.14
230.37
206.82
184.17
161.28
136.71
109.18
78.05
43.57
6.73
-31.07
-68.32
-103.73
-136.30
-165.46
-191.21
-214.22
-235.76
-257.23
-279.56
-302.68
-325.54
-346.51
-364.25
-378.23
-388.77
-396.38
-400.93
-401.19
-395.09
-380.64
-356.96
-324.83
-286.59
-245.26
-203.56
-163.31
-125.26
-89.55
-56.30
-25.90
0.92
23.52
41.82
56.47
68.63
79.40
89.11
97.05
101.64
101.18
94.87
83.37
68.86
54.25
42.01
33.24
27.39
22.76
17.41
10.10
0.68
-9.91
-20.07
-28.06
-32.40
-32.20
-27.25
-18.11
-5.93
7.80
21.52
33.93
44.03
51.24
55.30
56.34
54.83
51.51
47.18
42.45
37.58
32.47
26.80
20.35
13.10
5.37
-2.39
-9.61
-15.75
-20.30
-23.00
-23.82
-23.16
-21.74
-20.38
-19.72
-20.02
-21.20
-23.01
-25.39
-28.68
-33.51
-40.51
-49.75
-60.43
-70.81
-78.63
-81.79
-78.99
-70.20
-56.62
-40.22
-23.17
-7.25
6.38
17.22
25.24
30.71
34.02
35.71
36.30
36.35
36.30
36.40
36.68
37.00
37.12
36.85
36.18
35.19
34.04
32.77
31.25
29.16
26.16
22.05
16.92
11.12
5.17
-0.47
-5.54
-10.16
-14.72
-19.88
-26.30
-34.32
-43.64
-53.12
-60.88
-64.75
-63.05
-55.19
-41.97
-25.33
-7.68
8.85
22.89
33.93
42.03
47.53
50.80
52.19
52.16
51.21
49.87
48.50
47.20
45.87
44.33
42.48
40.44
38.54
37.02
35.99
35.17
34.03
31.94
28.43
23.48
17.48
11.08
4.92
-0.64
-5.65
-10.49
-15.73
-21.91
-29.44
-38.34
-48.06
-57.41
-64.62
-67.75
-65.35
-56.94
-43.42
-26.74
-9.37
6.52
19.52
29.18
35.74
39.67
41.45
41.40
39.80
37.06
33.76
30.59
28.18
26.90
26.78
27.49
28.53
29.43
29.89
29.75
29.01
27.60
25.40
22.24
18.07
13.05
7.59
2.26
-2.45
-6.37
-9.73
-13.17
-17.49
-23.35
-30.89
-39.39
-47.32
-52.61
-53.26
-48.04
-36.98
-21.43
-3.67
13.80
28.97
40.78
49.08
54.34
57.24
58.36
58.11
56.77
54.67
52.16
49.67
47.47
45.69
44.26
43.01
41.79
40.52
39.18
37.69
35.91
33.55
30.35
26.21
21.23
15.72
10.07
4.55
-0.82
-6.25
-12.16
-18.99
-27.03
-36.16
-45.67
-54.18
-59.85
-60.88
-56.08
-45.42
-30.20
-12.70
4.57
19.50
31.04
39.10
44.28
47.32
48.77
48.96
48.11
46.57
44.78
43.20
42.04
41.21
40.45
39.51
38.39
37.26
36.36
35.67
34.84
33.33
30.61
26.46
21.02
14.75
8.20
1.83
-4.09
-9.54
-14.74
-20.12
-26.21
-33.50
-42.02
-51.17
-59.56
-65.28
-66.52
-62.19
-52.38
-38.41
-22.38
-6.46
7.63
19.04
27.68
33.93
38.30
41.17
42.75
43.21
42.80
41.87
40.79
39.87
39.17
38.54
37.70
36.51
34.98
33.34
31.82
30.44
28.91
26.72
23.38
18.67
12.77
6.23
-0.27
-6.18
-11.21
-15.47
-19.37
-23.52
-28.59
-35.11
-43.15
-52.11
-60.64
-66.85
-68.87
-65.52
-56.82
-44.08
-29.41
-15.04
-2.62
7.14
14.33
19.45
23.02
25.31
26.49
26.71
26.32
25.81
25.62
25.95
26.67
27.38
27.64
27.15
25.91
24.16
22.25
20.46
18.80
17.02
14.77
11.69
7.72
3.05
-1.86
-6.48
-10.45
-13.67
-16.36
-18.96
-21.96
-25.80
-30.73
-36.71
-43.28
-49.53
-54.10
-55.56
-52.83
-45.66
-34.82
-21.86
-8.66
3.21
12.86
20.11
25.27
28.83
31.15
32.52
33.11
33.18
33.04
33.06
33.48
34.38
35.68
37.18
38.69
40.12
41.49
42.85
44.19
45.40
46.29
46.72
46.74
46.60
46.72
47.52
49.30
52.05
55.55
59.29
62.60
64.77
65.21
63.74
60.83
57.67
55.87
56.90
61.40
68.90
77.88
86.39
92.67
95.69
95.25
91.71
85.68
77.67
68.14
57.51
46.32
35.24
24.97
16.14
9.20
4.31
1.34
0.00
-0.10
0.75
2.35
4.57
7.16
9.64
11.47
12.22
11.78
10.39
8.39
5.94
2.83
-1.47
-7.69
-16.37
-27.69
-41.20
-55.73
-69.48
-80.33
-86.32
-86.31
-80.43
-70.06
-57.50
-45.14
-34.87
-27.69
-23.69
-22.47
-23.54
-26.67
-32.08
-40.26
-51.69
-66.43
-83.79
-102.32
-120.16
-135.57
-147.45
-155.58
-160.49
-163.06
-164.09
-164.21
-163.82
-163.32
-163.14
-163.62
-164.93
-166.84
-168.83
-170.35
-171.00
-170.74
-169.78
-168.27
-165.87
-161.48
-153.25
-139.05
-117.19
-87.23
-50.42
-9.58
31.58
69.47
101.50
126.54
144.76
157.18
164.97
169.12
170.23
168.69
164.82
158.96
151.58
143.12
133.88
124.02
113.55
102.49
90.94
79.20
67.67
56.70
46.45
36.88
27.76
18.92
10.40
2.40
-4.80
-10.96
-15.92
-19.50
-21.27
-20.32
-15.43
-5.35
10.66
32.50
59.07
88.48
118.56
147.24
172.90
194.35
210.75
221.52
226.35
225.12
218.00
205.39
187.80
165.69
139.41
109.09
74.80
37.00
-3.04
-42.88
-79.23
-108.85
-129.68
-141.86
-147.79
-151.27
-155.97
-163.97
-175.22
-187.95
-199.67
-208.11
-211.65
-209.36
-200.83
-186.13
-165.81
-140.91
-112.90
-83.51
-54.68
-28.45
-6.78
8.67
16.96
18.11
12.99
3.09
-9.88
-24.15
-37.84
-48.82
-55.00
-55.00
-48.85
-38.37
-26.74
-17.27
-12.17
-11.83
-15.07
-20.16
-25.95
-32.37
-40.27
-50.66
-63.83
-78.91
-93.95
-106.40
-113.63
-113.33
-103.87
-84.65
-56.50
-21.84
15.46
50.88
80.25
100.84
111.95
115.01
112.96
109.42
107.72
110.03
117.04
127.77
139.98
150.76
157.23
157.15
149.41
134.21
113.11
88.79
64.51
43.30
27.17
16.59
10.45
6.57
2.42
-4.12
-14.20
-27.75
-43.40
-58.53
-69.84
-74.06
-69.16
-55.29
-35.15
-13.45
4.64
15.31
17.44
12.68
4.31
-4.51
-12.11
-18.71
-25.47
-33.09
-40.82
-46.55
-48.00
-44.31
-36.76
-28.37
-22.23
-19.85
-20.30
-20.67
-17.47
-8.14
8.17
30.59
56.89
83.98
108.04
124.89
130.70
123.35
103.73
76.30
48.21
26.90
17.36
19.98
30.55
41.91
46.89
40.80
22.50
-6.24
-42.43
-83.37
-127.08
-171.68
-214.47
-251.68
-279.38
-294.99
-298.57
-292.97
-282.40
-270.39
-257.96
-243.32
-223.20
-195.24
-160.23
-122.64
-89.37
-67.03
-59.38
-66.04
-83.10
-105.09
-127.17
-146.50
-162.18
-174.57
-184.38
-192.45
-199.85
-208.01
-218.14
-230.50
-243.67
-254.72
-260.14
-257.15
-244.63
-223.32
-195.27
-163.01
-128.96
-95.18
-63.41
-35.08
-11.08
8.48
24.29
37.55
49.34
60.16
69.76
77.44
82.57
85.04
85.28
84.06
81.92
78.91
74.57
68.35
60.28
51.54
44.43
41.86
46.30
58.80
78.46
102.60
127.62
150.12
167.76
179.59
185.81
187.23
184.77
179.22
171.26
161.52
150.66
139.38
128.34
118.10
109.01
101.11
94.16
87.72
81.28
74.55
67.41
59.97
52.47
45.11
37.97
31.00
24.10
17.13
9.87
2.01
-6.85
-16.96
-27.99
-38.78
-47.30
-51.13
-48.24
-37.84
-20.77
0.63
23.21
43.94
60.72
72.66
79.99
83.57
84.40
83.28
80.81
77.42
73.50
69.37
65.27
61.28
57.35
53.36
49.32
45.26
41.28
37.27
33.00
28.11
22.31
15.59
8.20
0.53
-7.09
-14.52
-21.92
-29.68
-38.34
-48.44
-60.16
-72.88
-84.91
-93.70
-96.53
-91.54
-78.47
-58.96
-36.06
-13.17
6.94
22.77
34.09
41.46
45.74
47.67
47.75
46.40
44.04
41.13
38.09
35.21
32.60
30.20
27.89
25.63
23.45
21.47
19.71
17.97
15.85
12.88
8.69
3.27
-3.04
-9.67
-16.01
-21.71
-26.80
-31.73
-37.22
-44.00
-52.26
-61.29
-69.35
-73.94
-72.54
-63.53
-46.93
-24.55
0.46
24.61
45.07
60.34
70.31
75.80
77.89
77.42
74.95
70.83
65.51
59.63
53.93
49.03
45.22
42.48
40.51
38.94
37.41
35.64
33.32
30.19
26.01
20.74
14.52
7.69
0.67
-6.17
-12.59
-18.63
-24.59
-31.02
-38.48
-47.19
-56.53
-64.89
-69.87
-69.01
-60.75
-45.20
-24.27
-1.15
20.72
38.63
51.30
58.75
61.96
62.10
60.11
56.52
51.58
45.55
38.87
32.22
26.36
21.92
19.15
17.85
17.42
17.04
16.06
14.07
11.10
7.44
3.51
-0.41
-4.23
-8.09
-12.22
-16.93
-22.52
-29.27
-37.30
-46.39
-55.69
-63.61
-67.96
-66.59
-58.11
-42.64
-21.94
1.00
22.84
40.92
53.84
61.57
64.94
65.09
62.90
58.94
53.52
47.07
40.25
33.92
28.90
25.64
24.10
23.71
23.64
23.08
21.51
18.78
15.11
10.82
6.26
1.66
-2.95
-7.66
-12.72
-18.43
-25.17
-33.24
-42.60
-52.62
-61.86
-68.21
-69.43
-63.90
-51.33
-33.06
-11.78
9.33
27.46
40.99
49.64
54.16
55.67
55.15
53.10
49.71
45.10
39.60
33.88
28.75
24.88
22.49
21.26
20.48
19.33
17.29
14.25
10.56
6.74
3.17
-0.09
-3.27
-6.81
-11.04
-16.18
-22.35
-29.56
-37.75
-46.50
-54.80
-60.96
-62.95
-59.06
-48.62
-32.52
-12.98
7.01
24.71
38.32
47.29
52.07
53.58
52.76
50.22
46.31
41.29
35.51
29.52
23.98
19.43
16.15
14.06
12.76
11.70
10.43
8.65
6.35
3.69
0.89
-1.90
-4.70
-7.67
-11.02
-14.96
-19.61
-25.09
-31.47
-38.66
-46.27
-53.27
-58.08
-58.78
-53.87
-42.94
-27.07
-8.60
9.53
24.78
35.68
42.05
44.64
44.59
42.93
40.27
36.91
32.97
28.55
23.88
19.32
15.23
11.94
9.59
8.11
7.23
6.54
5.62
4.19
2.10
-0.62
-3.86
-7.47
-11.34
-15.41
-19.64
-24.04
-28.71
-33.88
-39.83
-46.65
-53.86
-60.21
-63.82
-62.74
-55.74
-42.98
-26.13
-7.90
8.90
22.26
31.39
36.61
38.83
38.89
37.32
34.35
30.19
25.20
19.98
15.17
11.28
8.51
6.77
5.72
4.94
4.07
2.82
1.07
-1.28
-4.20
-7.62
-11.37
-15.25
-19.05
-22.70
-26.31
-30.25
-35.06
-41.20
-48.75
-57.02
-64.49
-69.14
-69.01
-62.99
-51.38
-35.93
-19.27
-4.07
7.82
15.75
20.09
21.73
21.48
19.85
17.09
13.43
9.32
5.36
2.12
-0.12
-1.45
-2.26
-3.01
-4.09
-5.62
-7.54
-9.64
-11.69
-13.54
-15.16
-16.65
-18.16
-19.91
-22.15
-25.14
-29.15
-34.29
-40.26
-46.24
-50.79
-52.23
-49.15
-41.02
-28.52
-13.34
2.32
16.51
28.05
36.64
42.59
46.42
48.47
48.83
47.48
44.58
40.54
35.99
31.64
27.94
25.07
22.88
21.00
19.07
16.86
14.35
11.63
8.85
6.10
3.32
0.35
-3.03
-7.00
-11.68
-17.09
-23.25
-30.19
-37.77
-45.51
-52.38
-56.88
-57.43
-52.98
-43.49
-30.05
-14.53
1.00
14.96
26.46
35.34
41.78
46.08
48.45
49.09
48.31
46.52
44.20
41.70
39.28
36.99
34.88
33.06
31.65
30.80
30.54
30.68
30.81
30.42
29.04
26.46
22.74
18.31
13.77
9.72
6.53
4.22
2.36
0.20
-3.02
-7.70
-13.53
-19.29
-22.99
-22.51
-16.28
-3.91
13.56
34.04
55.01
74.41
91.07
104.84
116.20
125.78
133.94
140.71
145.95
149.62
151.95
153.44
154.62
155.86
157.22
158.50
159.43
159.95
160.24
160.72
161.70
163.21
164.91
166.24
166.77
166.43
165.58
164.87
164.86
165.86
167.70
169.81
171.23
170.68
166.60
157.21
140.97
116.99
85.69
49.08
10.56
-25.77
-56.25
-78.59
-92.50
-99.52
-102.35
-103.91
-106.70
-112.46
-122.19
-136.20
-153.97
-174.02
-193.97
-211.09
-223.13
-229.13
-229.79
-226.99
-222.90
-219.17
-216.54
-214.75
-212.67
-208.77
-201.55
-190.37
-176.36
-162.68
-153.93
-154.56
-167.15
-191.15
-222.68
-255.77
-284.35
-304.22
-314.05
-315.04
-309.42
-298.96
-284.07
-263.97
-237.85
-206.03
-170.55
-134.64
-101.31
-71.87
-45.33
-19.12
9.34
41.03
74.55
106.77
134.29
154.59
167.03
172.67
173.53
171.55
167.84
162.62
155.64
146.85
136.91
127.11
118.88
113.08
109.48
106.76
102.90
95.90
84.43
68.22
48.08
25.62
2.64
-19.29
-39.26
-57.01
-72.69
-86.46
-98.00
-106.32
-109.92
-107.28
-97.49
-80.88
-59.08
-34.75
-10.88
9.97
26.18
37.29
43.81
46.69
47.00
45.57
43.03
39.81
36.36
33.08
30.32
28.27
26.90
25.95
25.01
23.68
21.64
18.65
14.62
9.55
3.58
-3.02
-9.86
-16.50
-22.59
-27.95
-32.66
-37.13
-41.99
-47.88
-55.10
-63.22
-70.93
-76.17
-76.71
-70.89
-58.34
-40.19
-18.85
2.71
21.85
36.81
46.98
52.62
54.48
53.36
49.91
44.69
38.38
31.88
26.22
22.35
20.74
21.17
22.70
24.08
24.05
21.93
17.79
12.39
6.86
2.11
-1.59
-4.74
-8.40
-13.60
-20.79
-29.53
-38.67
-46.98
-53.80
-59.31
-64.02
-68.07
-70.62
-69.88
-63.97
-51.84
-33.59
-10.05
18.03
50.42
86.95
126.26
164.86
197.22
217.63
222.68
212.87
192.41
167.05
141.29
116.81
92.76
67.82
42.39
19.27
2.58
-4.48
-1.42
9.27
23.50
37.59
49.73
60.09
69.79
79.52
88.88
96.26
99.52
96.77
87.18
71.71
53.69
38.82
33.95
44.70
72.66
113.73
158.98
197.76
221.86
228.57
220.99
205.69
189.24
175.43
164.68
155.40
145.99
136.06
126.27
117.28
108.75
99.18
86.66
69.94
48.89
24.68
-0.85
-26.35
-51.92
-79.00
-109.33
-143.45
-179.52
-213.64
-240.88
-257.28
-261.61
-256.02
-245.02
-233.39
-224.07
-216.95
-209.65
-197.98
-177.56
-145.45
-101.40
-48.04
9.71
65.75
114.03
148.11
164.05
161.18
141.74
109.19
66.86
17.34
-37.15
-94.10
-153.11
-211.08
-261.77
-297.99
-315.58
-316.04
-306.04
-294.69
-290.07
-301.67
-332.25
-376.91
-425.89
-469.78
-502.84
-523.04
-530.46
-525.99
-517.47
-510.25
-505.14
-499.28
-489.97
-476.84
-461.30
-445.06
-387.59
-272.94
-114.90
51.19
193.76
299.04
367.92
407.88
427.71
435.30
430.08
412.25
385.19
355.02
327.11
304.05
286.30
273.52
265.42
256.57
243.49
226.19
207.79
191.57
178.97
170.66
166.62
166.70
167.54
167.22
165.96
165.14
165.01
163.44
157.07
143.21
121.68
93.64
63.08
35.16
14.13
1.46
-4.28
-5.81
-5.49
-4.34
-2.81
-0.33
3.40
8.67
15.37
23.23
32.10
42.04
53.34
64.09
72.52
77.35
78.15
75.12
68.72
59.84
49.77
40.15
32.34
27.32
25.03
24.55
24.67
24.50
23.85
22.99
22.27
21.64
20.98
20.04
18.53
16.31
13.33
9.55
4.82
-0.95
-8.35
-17.46
-27.87
-38.83
-49.50
-59.19
-67.62
-74.93
-81.62
-88.26
-95.21
-102.56
-110.06
-117.03
-122.32
-124.62
-122.89
-116.91
-107.44
-95.89
-83.79
-72.17
-61.38
-51.36
-42.20
-34.46
-29.72
-29.63
-35.13
-45.89
-60.05
-74.48
-85.24
-88.35
-80.67
-60.78
-29.45
10.34
54.09
96.98
135.14
166.31
189.81
205.97
215.40
218.81
217.02
211.20
203.14
195.05
189.02
186.15
185.84
185.67
182.30
172.79
155.99
133.24
108.00
84.37
65.52
52.59
44.76
40.11
36.83
33.95
31.49
30.01
30.26
32.94
38.89
49.00
64.01
83.99
107.99
133.98
159.35
181.71
199.53
212.33
220.30
223.55
221.61
213.40
197.83
174.49
144.21
108.86
70.71
31.76
-6.54
-43.16
-76.92
-106.29
-129.55
-145.46
-153.98
-156.62
-156.02
-155.13
-156.38
-160.97
-169.05
-180.07
-193.26
-207.69
-221.84
-233.15
-237.99
-232.35
-213.29
-180.38
-136.53
-87.49
-40.22
-0.93
26.52
40.98
43.57
36.50
22.13
2.61
-20.13
-44.15
-67.45
-88.11
-104.72
-116.55
-123.70
-127.07
-128.10
-128.48
-129.74
-132.90
-138.24
-145.24
-152.84
-159.85
-165.47
-169.52
-172.55
-175.56
-179.70
-185.78
-193.89
-203.00
-210.78
-213.84
-208.52
-192.17
-164.28
-127.12
-85.24
-44.19
-8.62
18.90
38.24
51.04
59.41
64.97
68.37
69.68
68.97
66.73
63.91
61.54
60.30
60.14
60.45
60.27
58.77
55.63
51.06
45.75
40.48
35.78
31.67
27.71
23.15
17.26
9.62
0.12
-11.06
-23.49
-36.41
-48.51
-57.87
-62.16
-59.35
-48.37
-29.83
-5.98
19.84
44.17
64.32
78.95
87.95
92.11
92.55
90.27
86.05
80.49
74.10
67.38
60.78
54.65
49.16
44.32
40.07
36.40
33.31
30.80
28.63
26.38
23.43
19.28
13.76
7.17
0.14
-6.69
-12.93
-18.65
-24.38
-30.92
-39.07
-49.17
-60.77
-72.32
-81.23
-84.35
-78.99
-63.98
-40.35
-11.29
18.80
45.67
66.40
80.00
87.09
89.11
87.45
83.07
76.54
68.44
59.62
51.15
44.09
38.98
35.75
33.75
32.20
30.44
28.20
25.54
22.57
19.24
15.34
10.50
4.49
-2.62
-10.43
-18.40
-26.16
-33.71
-41.54
-50.47
-61.17
-73.51
-86.14
-96.46
-101.25
-97.67
-84.48
-62.61
-35.12
-6.33
19.55
39.46
52.15
58.03
58.55
55.41
50.03
43.37
36.06
28.66
21.74
15.92
11.66
9.07
7.81
7.17
6.26
4.35
1.07
-3.53
-9.12
-15.27
-21.60
-27.88
-33.97
-39.86
-45.65
-51.69
-58.59
-67.07
-77.61
-89.87
-102.24
-111.86
-115.30
-109.69
-93.95
-69.47
-39.86
-9.75
16.80
37.51
52.21
62.13
68.76
72.84
74.18
72.18
66.68
58.50
49.32
41.06
35.12
31.96
31.17
31.86
33.11
34.19
34.60
33.95
31.93
28.39
23.46
17.44
10.79
3.84
-3.41
-11.42
-21.04
-33.19
-48.30
-65.69
-83.18
-97.29
-104.10
-100.56
-85.66
-61.00
-30.40
1.30
29.70
51.96
67.16
75.94
79.72
79.91
77.62
73.52
68.11
61.86
55.35
49.23
44.16
40.66
38.93
38.83
39.79
40.96
41.46
40.58
38.01
33.77
28.08
21.15
13.06
3.84
-6.38
-17.38
-28.86
-40.74
-53.12
-66.04
-78.93
-90.19
-97.29
-97.33
-88.18
-69.47
-43.01
-12.41
17.98
44.32
64.18
76.80
82.84
83.72
81.03
76.20
70.30
64.10
58.13
52.71
47.97
43.95
40.59
37.88
35.84
34.47
33.62
32.86
31.53
28.90
24.49
18.26
10.63
2.32
-5.92
-13.55
-20.41
-26.76
-33.17
-40.47
-49.43
-60.43
-72.85
-84.81
-93.37
-95.31
-88.30
-71.85
-47.76
-19.59
8.47
32.82
51.28
63.24
69.27
70.48
68.11
63.29
57.08
50.49
44.38
39.36
35.64
33.06
31.27
29.94
28.91
28.27
28.21
28.74
29.52
29.85
28.84
25.76
20.36
13.05
4.74
-3.46
-10.67
-16.53
-21.26
-25.63
-30.69
-37.37
-46.11
-56.31
-66.21
-73.06
-73.85
-66.31
-49.93
-26.32
1.11
28.22
51.40
68.46
78.95
83.70
84.12
81.57
77.00
71.08
64.39
57.54
51.19
45.87
41.83
39.03
37.15
35.76
34.38
32.65
30.27
27.11
23.17
18.60
13.61
8.44
3.27
-1.81
-6.90
-12.22
-18.21
-25.41
-34.26
-44.77
-56.07
-66.33
-73.06
-73.79
-66.99
-52.73
-32.90
-10.58
10.81
28.49
41.00
48.18
50.81
49.99
46.71
41.67
35.39
28.43
21.53
15.55
11.25
9.03
8.75
9.76
11.13
11.91
11.45
9.52
6.31
2.27
-2.10
-6.47
-10.73
-14.94
-19.33
-24.20
-29.91
-36.78
-44.81
-53.40
-61.10
-65.68
-64.74
-56.52
-40.78
-19.09
5.50
29.47
49.89
65.17
75.22
80.98
83.82
85.11
86.09
87.87
91.36
96.86
103.66
109.76
112.36
108.75
97.45
79.05
56.07
32.18
10.98
-5.09
-15.14
-19.73
-20.28
-18.57
-16.36
-15.17
-16.11
-19.45
-24.35
-28.74
-29.87
-25.33
-14.13
2.45
21.04
37.19
46.93
48.17
41.40
29.30
15.62
3.79
-4.12
-7.62
-7.47
-4.95
-1.20
3.04
7.43
11.70
15.48
18.18
19.10
17.73
13.87
7.79
0.09
-8.53
-17.42
-26.19
-34.81
-43.46
-52.51
-62.37
-73.43
-85.83
-99.25
-112.58
-123.89
-130.65
-130.42
-121.70
-104.71
-81.48
-55.44
-30.41
-9.43
5.93
15.82
21.53
24.85
27.21
29.37
31.37
32.84
33.42
32.99
31.78
30.19
28.53
26.95
25.50
24.26
23.42
23.23
23.70
24.37
24.31
22.45
18.09
11.34
3.02
-5.85
-14.74
-24.14
-35.45
-50.46
-70.36
-94.87
-121.86
-147.62
-167.80
-178.62
-177.85
-165.11
-141.62
-109.62
-71.99
-32.14
6.01
38.34
61.31
73.16
74.67
69.24
61.87
57.45
59.15
67.67
81.53
98.32
115.91
133.23
149.98
165.93
180.07
190.53
195.10
192.53
183.45
170.68
158.25
149.71
146.61
147.92
150.71
151.59
148.22
140.03
128.15
114.86
102.93
95.15
93.70
99.52
111.33
125.38
136.16
138.20
128.28
106.84
77.79
46.65
18.17
-5.53
-25.00
-42.19
-58.58
-73.97
-86.69
-94.79
-97.50
-95.95
-92.96
-91.98
-96.03
-107.13
-126.46
-154.64
-191.48
-235.35
-282.27
-325.86
-358.69
-374.49
-370.48
-348.17
-312.27
-268.10
-219.03
-165.60
-106.82
-42.76
23.22
84.25
132.04
160.22
167.14
156.71
136.89
116.73
103.23
99.30
103.60
112.00
119.61
122.42
118.19
106.27
87.00
61.16
30.00
-4.58
-39.71
-71.62
-96.55
-111.72
-116.27
-111.37
-99.72
-84.33
-67.52
-50.48
-33.39
-16.03
1.62
19.23
36.18
51.73
65.21
75.98
83.29
86.42
84.84
78.71
68.96
57.23
45.33
34.57
25.34
17.07
8.60
-1.26
-13.30
-27.91
-45.04
-64.15
-83.79
-101.23
-112.77
-114.49
-103.86
-80.99
-49.08
-13.44
20.27
47.93
67.87
80.54
87.38
89.56
87.42
80.74
69.61
54.98
38.67
22.84
9.15
-1.83
-10.55
-18.19
-25.85
-34.08
-42.65
-50.77
-57.46
-61.97
-64.18
-64.56
-64.10
-63.90
-64.81
-67.20
-70.87
-75.15
-79.22
-82.40
-84.34
-85.07
-84.93
-84.45
-84.28
-84.90
-86.56
-89.06
-91.47
-92.08
-88.68
-79.14
-62.35
-38.83
-10.91
17.76
43.38
63.07
75.60
81.29
81.44
77.46
70.45
61.13
50.26
38.88
28.40
20.13
14.87
12.42
11.72
11.17
9.28
5.21
-1.01
-8.63
-16.64
-24.15
-30.82
-36.80
-42.47
-48.19
-53.99
-59.57
-64.44
-68.19
-70.62
-71.94
-72.51
-72.78
-73.13
-73.89
-75.32
-77.59
-80.57
-83.75
-85.98
-85.73
-81.38
-71.86
-57.19
-38.78
-19.10
-1.06
12.89
21.37
24.31
22.61
17.61
10.62
2.62
-5.68
-13.66
-20.68
-26.13
-29.54
-30.83
-30.21
-28.06
-24.69
-20.18
-14.37
-7.11
1.49
10.83
19.81
27.10
31.44
32.25
29.74
24.98
19.52
14.89
11.98
10.89
10.88
10.72
9.24
5.63
-0.22
-7.67
-15.35
-21.43
-23.95
-21.44
-13.44
-0.87
14.15
28.78
40.47
47.65
50.10
48.73
44.97
40.10
34.90
29.64
24.40
19.35
14.90
11.54
9.52
8.72
8.68
8.74
8.44
7.68
6.71
5.92
5.54
5.44
5.07
3.77
1.03
-3.21
-8.56
-14.18
-19.17
-22.86
-25.03
-25.97
-26.37
-27.04
-28.69
-31.70
-35.93
-40.67
-44.65
-46.19
-43.69
-36.12
-23.57
-7.45
9.89
25.81
38.20
45.99
49.28
48.85
45.72
40.73
34.49
27.60
20.79
14.90
10.67
8.42
7.87
8.35
8.99
9.18
8.80
8.15
7.77
8.06
9.01
10.09
10.34
8.78
4.77
-1.61
-9.47
-17.32
-23.67
-27.55
-28.89
-28.55
-27.83
-28.00
-29.77
-33.07
-37.04
-40.21
-40.86
-37.52
-29.37
-16.73
-1.06
15.29
29.85
40.77
47.22
49.50
48.53
45.30
40.55
34.77
28.35
21.88
16.04
11.46
8.52
7.10
6.76
6.90
7.03
6.90
6.60
6.29
6.05
5.70
4.81
2.90
-0.35
-4.79
-9.83
-14.58
-18.23
-20.42
-21.30
-21.51
-21.86
-23.10
-25.68
-29.62
-34.38
-38.84
-41.40
-40.27
-34.16
-22.83
-7.44
9.68
25.69
38.20
46.00
49.14
48.60
45.60
41.07
35.52
29.24
22.62
16.32
11.13
7.67
6.10
6.05
6.79
7.55
7.81
7.51
6.85
6.16
5.52
4.67
3.19
0.59
-3.26
-7.99
-12.87
-17.07
-20.04
-21.72
-22.56
-23.29
-24.64
-27.14
-30.87
-35.38
-39.60
-41.92
-40.62
-34.38
-23.03
-7.76
9.05
24.60
36.62
44.03
47.00
46.61
44.05
40.20
35.54
30.33
24.92
19.84
15.63
12.58
10.62
9.40
8.51
7.71
7.03
6.59
6.44
6.32
5.75
4.19
1.30
-2.88
-7.84
-12.83
-17.13
-20.26
-22.19
-23.30
-24.17
-25.49
-27.81
-31.33
-35.68
-39.74
-41.82
-40.08
-33.20
-21.10
-5.19
11.95
27.42
38.93
45.50
47.42
45.84
42.02
36.94
31.23
25.34
19.86
15.37
12.33
10.81
10.44
10.59
10.69
10.42
9.85
9.23
8.75
8.38
7.78
6.52
4.17
0.65
-3.80
-8.64
-13.26
-17.11
-19.95
-21.88
-23.34
-25.00
-27.55
-31.34
-36.09
-40.62
-43.10
-41.55
-34.68
-22.54
-6.76
9.96
24.76
35.57
41.64
43.43
42.10
38.83
34.48
29.55
24.38
19.37
15.07
11.94
10.18
9.62
9.78
10.11
10.23
10.13
10.03
10.12
10.32
10.20
9.13
6.63
2.62
-2.39
-7.63
-12.25
-15.83
-18.39
-20.44
-22.69
-25.82
-30.20
-35.71
-41.47
-46.02
-47.45
-44.10
-35.21
-21.43
-4.82
11.83
25.88
35.68
40.89
42.25
40.96
38.05
34.16
29.66
24.88
20.31
16.57
14.02
12.71
12.26
12.07
11.67
10.95
10.15
9.69
9.77
10.19
10.35
9.50
7.10
3.15
-1.87
-7.12
-11.75
-15.24
-17.55
-19.13
-20.72
-23.19
-27.14
-32.61
-38.75
-43.86
-45.74
-42.49
-33.31
-19.07
-2.07
14.67
28.45
37.72
42.26
42.93
40.98
37.55
33.42
29.11
24.98
21.40
18.61
16.65
15.35
14.33
13.25
11.93
10.49
9.20
8.33
7.94
7.69
7.06
5.48
2.65
-1.31
-5.86
-10.26
-13.92
-16.57
-18.43
-20.12
-22.46
-26.12
-31.33
-37.49
-43.17
-46.35
-45.04
-38.10
-25.75
-9.74
7.22
22.30
33.42
39.79
41.88
40.89
38.10
34.44
30.36
26.02
21.58
17.40
13.93
11.52
10.30
10.01
10.23
10.51
10.57
10.30
9.70
8.72
7.26
5.20
2.55
-0.39
-3.12
-5.05
-5.74
-5.14
-3.62
-1.88
-0.79
-1.05
-2.99
-6.46
-10.87
-15.33
-19.01
-21.45
-22.68
-23.35
-24.43
-26.87
-31.14
-36.88
-42.81
-46.92
-47.14
-42.05
-31.47
-16.60
0.30
16.53
29.77
38.72
43.19
43.91
41.82
37.83
32.71
27.15
21.78
17.17
13.64
11.16
9.38
7.59
5.29
2.47
-0.38
-2.68
-4.17
-5.04
-5.95
-7.64
-11.19
-16.96
-24.18
-31.33
-37.03
-40.64
-42.46
-43.56
-45.29
-50.13
-59.39
-72.13
-85.24
-94.53
-96.01
-86.88
-66.31
-35.90
-1.67
29.66
52.96
65.42
65.91
54.58
32.78
3.05
-31.30
-69.87
-111.92
-155.19
-196.10
-231.22
-258.35
-276.95
-287.87
-278.08
-244.67
-196.80
-149.89
-114.28
-91.26
-77.05
-67.53
-61.62
-56.85
-54.45
-54.94
-56.69
-56.44
-51.35
-39.74
-22.73
-1.84
21.83
45.22
66.32
84.83
101.54
116.98
131.07
143.84
156.70
172.11
190.69
211.40
231.01
244.20
244.84
228.06
192.58
141.73
82.25
21.82
-31.66
-70.49
-88.01
-80.43
-49.02
-1.34
50.04
91.24
111.71
108.41
86.53
56.44
28.87
10.87
4.69
9.01
21.10
38.23
57.65
75.85
88.53
91.65
83.29
65.08
42.09
21.08
8.20
6.76
16.43
33.74
53.62
71.26
83.45
89.19
89.42
86.18
81.62
77.16
73.13
68.98
63.88
57.34
49.70
42.05
35.76
31.74
30.05
29.73
29.31
27.45
23.44
17.40
10.02
2.09
-5.85
-13.72
-21.77
-30.40
-40.11
-51.34
-64.49
-79.50
-95.51
-110.44
-121.09
-123.87
-116.04
-96.92
-68.50
-35.05
-1.82
26.52
47.18
59.55
64.67
64.41
60.48
54.12
46.13
37.22
28.28
20.39
14.58
11.49
11.05
12.51
14.66
16.16
16.11
14.24
10.95
7.09
3.50
0.58
-1.89
-4.74
-9.06
-15.84
-25.66
-38.42
-53.20
-68.27
-81.10
-88.76
-88.54
-78.86
-59.92
-34.01
-4.93
23.03
46.45
63.51
74.15
79.44
80.64
78.58
73.53
65.62
55.35
43.90
32.92
23.96
17.95
14.78
13.55
13.07
12.43
11.38
10.28
9.69
9.84
10.40
10.43
8.68
4.01
-4.39
-16.71
-32.45
-50.18
-67.49
-81.16
-87.78
-84.63
-70.72
-47.25
-17.40
14.61
44.82
70.51
90.52
104.84
113.91
118.00
117.18
111.67
102.27
90.59
78.63
68.26
60.54
55.47
52.06
48.71
43.81
36.13
25.18
11.33
-4.29
-20.12
-34.62
-46.72
-56.16
-63.46
-69.66
-75.79
-82.43
-89.34
-95.31
-98.38
-96.26
-87.05
-69.97
-45.84
-17.10
12.75
40.12
62.25
77.73
86.54
89.58
88.09
83.22
75.89
66.95
57.29
47.90
39.65
32.99
27.85
23.68
19.78
15.67
11.37
7.31
4.06
1.91
0.61
-0.66
-3.09
-7.85
-15.78
-27.17
-41.64
-58.04
-74.50
-88.51
-97.38
-98.88
-91.94
-77.21
-56.94
-34.41
-12.80
5.71
20.40
31.73
40.59
47.50
52.32
54.45
53.48
49.77
44.48
39.23
35.32
33.16
32.14
30.94
28.31
23.64
17.27
10.25
3.83
-1.22
-4.93
-8.19
-12.35
-18.75
-28.32
-41.20
-56.54
-72.44
-86.10
-94.33
-94.25
-84.26
-64.77
-38.27
-8.81
19.23
42.56
59.52
70.11
75.32
76.24
73.47
67.11
57.30
44.77
31.40
19.43
10.86
6.73
6.71
9.29
12.32
13.97
13.22
10.73
7.62
5.01
3.48
2.59
0.95
-3.64
-12.95
-27.71
-45.86
-63.89
-77.16
-80.79
-70.90
-45.56
-5.74
44.82
98.95
148.04
182.11
193.18
178.77
143.50
97.95
54.61
23.95
1.60
-16.86
-36.63
-60.29
-86.20
-110.03
-125.07
-130.43
-125.86
-111.08
-84.44
-45.58
1.72
50.40
91.13
115.39
118.42
101.66
71.33
36.45
3.83
-23.71
-47.19
-70.12
-96.55
-129.81
-170.81
-217.87
-265.86
-307.61
-335.27
-342.47
-326.76
-290.40
-239.62
-181.89
-123.63
-68.39
-17.14
30.66
75.80
118.25
157.11
190.88
218.30
238.34
250.17
252.79
245.10
226.22
196.33
157.37
113.12
68.63
28.62
-4.31
-30.85
-54.82
-81.62
-115.69
-158.26
-206.28
-253.09
-290.66
-312.25
-314.74
-299.15
-269.72
-231.80
-189.98
-146.80
-102.81
-57.60
-11.23
34.56
76.38
110.47
134.87
151.18
164.25
179.84
200.95
225.27
245.46
253.03
243.35
219.07
189.34
165.16
153.45
153.45
157.53
155.63
140.76
111.68
72.26
28.56
-14.15
-52.82
-85.95
-112.31
-130.30
-137.98
-134.75
-122.25
-104.00
-83.89
-64.58
-46.52
-28.27
-7.49
18.08
48.97
83.15
116.08
142.01
155.62
153.70
136.34
106.94
71.89
37.97
10.18
-9.56
-21.64
-27.70
-29.21
-27.18
-25.91
-28.35
-35.99
-48.63
-65.70
-85.91
-107.59
-128.13
-144.97
-156.09
-159.90
-156.19
-146.28
-133.15
-119.74
-106.88
-93.50
-77.87
-58.07
-32.33
-0.04
38.19
80.44
126.11
168.43
201.34
217.95
212.33
182.98
135.00
84.43
39.80
7.26
-12.42
-23.40
-32.70
-45.83
-63.79
-83.46
-100.63
-114.06
-123.59
-131.50
-140.14
-150.52
-161.43
-170.40
-175.28
-175.55
-172.54
-166.60
-156.94
-141.07
-116.20
-80.65
-35.18
16.58
68.81
114.85
150.03
172.21
182.01
181.63
173.49
159.28
139.86
116.00
89.24
62.66
39.89
23.80
15.13
12.22
11.82
10.55
6.05
-2.59
-14.95
-29.87
-45.44
-58.93
-66.86
-65.90
-54.23
-32.66
-4.35
26.82
58.35
90.32
124.83
163.98
207.78
253.10
294.41
325.79
342.97
344.43
331.37
306.88
274.93
239.51
203.92
170.34
139.69
111.86
86.36
63.01
42.23
24.81
11.39
1.91
-4.41
-8.80
-12.47
-16.36
-21.00
-26.63
-33.26
-40.74
-48.81
-57.07
-65.04
-72.18
-78.00
-82.11
-84.43
-85.19
-84.91
-84.19
-83.40
-82.40
-80.57
-77.03
-71.13
-62.73
-52.41
-41.19
-30.18
-20.28
-12.13
-6.18
-2.88
-2.59
-5.41
-11.01
-18.57
-27.11
-35.86
-44.51
-53.11
-61.75
-70.11
-77.45
-82.81
-85.56
-85.78
-84.31
-82.40
-81.22
-81.33
-82.64
-84.56
-86.38
-87.75
-88.80
-90.15
-92.41
-95.68
-99.14
-101.08
-99.49
-92.84
-80.88
-64.83
-46.95
-29.81
-15.37
-4.60
2.56
6.86
9.25
10.58
11.43
12.18
13.10
14.38
16.12
18.27
20.56
22.58
23.84
23.97
22.85
20.60
17.57
14.09
10.38
6.43
2.16
-2.51
-7.49
-12.57
-17.51
-22.13
-26.44
-30.61
-35.04
-40.13
-46.17
-53.02
-60.01
-65.85
-68.93
-67.73
-61.36
-50.04
-35.09
-18.65
-3.06
9.85
19.11
24.74
27.38
27.93
27.20
25.74
23.97
22.19
20.67
19.58
18.96
18.71
18.66
18.67
18.59
18.21
17.17
15.03
11.45
6.59
1.12
-3.83
-7.25
-8.65
-8.43
-7.65
-7.57
-9.20
-12.93
-18.60
-25.72
-33.70
-41.88
-49.39
-55.06
-57.51
-55.54
-48.66
-37.43
-23.41
-8.63
5.04
16.41
25.20
31.83
36.99
41.26
44.90
47.87
50.08
51.50
52.27
52.61
52.74
52.81
52.96
53.33
54.15
55.61
57.70
60.02
61.75
61.90
59.77
55.29
49.28
42.97
37.52
33.29
29.71
25.48
19.23
10.10
-1.91
-15.93
-30.46
-43.61
-53.48
-58.53
-58.01
-52.35
-43.12
-32.68
-23.25
-16.31
-12.21
-10.41
-10.06
-10.52
-11.51
-12.99
-14.86
-16.80
-18.44
-19.46
-19.82
-19.67
-19.20
-18.53
-17.66
-16.52
-15.12
-13.65
-12.39
-11.65
-11.65
-12.38
-13.66
-15.19
-16.75
-18.18
-19.56
-21.09
-23.09
-25.93
-29.88
-34.98
-40.80
-46.39
-50.38
-51.35
-48.44
-41.68
-32.13
-21.49
-11.60
-3.83
1.13
3.28
3.11
1.26
-1.71
-5.40
-9.55
-14.03
-18.68
-23.29
-27.54
-31.11
-33.76
-35.45
-36.29
-36.43
-35.94
-34.70
-32.52
-29.33
-25.25
-20.68
-16.14
-12.07
-8.64
-5.87
-3.63
-1.90
-0.77
-0.44
-0.93
-1.94
-2.69
-2.11
0.83
6.66
15.12
25.20
35.37
44.13
50.39
53.73
54.21
52.25
48.27
42.69
35.95
28.59
21.30
14.84
9.91
6.86
5.67
5.91
6.86
7.77
8.07
7.50
6.16
4.33
2.31
0.23
-2.03
-4.77
-8.37
-13.16
-19.22
-26.36
-33.98
-41.08
-46.31
-48.31
-46.03
-39.15
-28.20
-14.56
-0.04
13.51
24.69
32.76
37.65
39.71
39.46
37.39
33.86
29.21
23.90
18.58
13.98
10.68
8.92
8.43
8.64
8.88
8.69
7.89
6.53
4.76
2.67
0.34
-2.20
-4.98
-8.08
-11.65
-15.82
-20.57
-25.74
-31.05
-36.24
-41.09
-45.15
-47.60
-47.21
-42.66
-33.20
-19.15
-2.12
15.46
31.19
43.48
51.82
56.64
58.66
58.42
56.11
51.73
45.42
37.65
29.29
21.31
14.55
9.53
6.28
4.40
3.26
2.19
0.81
-0.99
-3.07
-5.27
-7.62
-10.49
-14.45
-20.08
-27.67
-37.08
-47.65
-58.27
-67.60
-74.16
-76.56
-73.63
-64.80
-50.19
-30.90
-8.91
13.30
33.34
49.60
61.61
70.04
76.27
81.74
87.35
93.29
98.92
103.07
104.44
101.91
94.85
83.30
68.06
50.53
32.52
15.79
1.66
-9.22
-17.05
-22.75
-27.54
-32.64
-38.96
-47.02
-57.01
-68.91
-82.46
-97.14
-112.00
-125.71
-136.72
-143.57
-145.09
-140.57
-129.75
-112.81
-90.50
-64.18
-35.83
-7.80
17.60
38.60
54.34
64.92
71.22
74.56
76.41
78.06
80.46
84.07
88.86
94.20
98.94
101.66
101.03
96.31
87.79
76.75
65.19
55.07
47.72
43.47
41.88
42.13
43.43
45.12
46.60
47.17
46.11
42.97
37.80
31.27
24.37
17.83
11.71
5.30
-2.51
-12.72
-25.74
-41.31
-58.46
-75.79
-91.62
-104.17
-111.91
-113.92
-110.30
-102.27
-92.04
-82.13
-74.62
-70.44
-69.17
-69.35
-69.17
-67.28
-63.19
-57.31
-50.57
-43.94
-38.06
-32.96
-28.12
-22.67
-15.66
-6.35
5.45
19.18
33.51
46.48
56.03
60.67
60.17
55.85
50.41
47.07
48.50
55.79
68.11
83.20
98.24
111.09
120.77
127.39
131.40
133.03
132.01
128.06
121.35
112.77
103.72
95.48
88.87
84.15
81.17
79.43
78.00
75.22
68.85
56.71
37.83
13.21
-14.17
-40.34
-61.94
-77.59
-88.35
-97.10
-107.33
-121.76
-141.52
-165.95
-192.98
-219.71
-242.97
-260.07
-269.42
-271.21
-267.76
-263.30
-263.00
-271.27
-289.94
-317.11
-347.37
-373.46
-388.75
-389.57
-376.11
-351.88
-321.83
-290.42
-260.31
-232.29
-206.02
-180.99
-157.12
-134.70
-113.99
-94.77
-76.23
-57.34
-37.26
-15.59
7.59
31.99
57.32
83.34
109.65
135.48
159.75
181.52
200.48
217.42
234.00
252.10
272.81
295.74
319.23
341.17
360.05
375.52
388.20
398.84
407.44
412.94
413.43
406.94
392.03
368.03
335.03
293.82
245.96
194.06
141.59
92.22
48.73
12.29
-17.48
-41.61
-60.61
-73.82
-79.94
-78.22
-69.81
-58.01
-47.50
-42.52
-45.19
-54.69
-67.89
-80.85
-90.59
-96.27
-99.16
-101.70
-106.05
-112.84
-120.76
-126.91
-128.08
-121.97
-108.25
-88.66
-66.54
-45.68
-29.25
-19.04
-15.23
-16.63
-21.26
-27.03
-32.31
-36.16
-38.41
-39.45
-40.08
-41.20
-43.61
-47.88
-54.27
-62.75
-73.00
-84.38
-95.81
-105.79
-112.58
-114.55
-110.61
-100.52
-84.89
-65.05
-42.76
-19.81
2.28
22.62
40.86
56.95
70.63
81.12
87.03
86.70
78.74
62.68
39.56
12.08
-15.50
-37.76
-49.32
-46.24
-27.49
4.29
43.24
82.14
114.86
138.04
151.57
157.42
158.04
155.19
149.69
141.94
132.46
122.03
111.37
100.80
90.26
79.84
70.26
63.13
60.41
63.77
73.93
90.42
111.59
134.94
157.47
176.31
189.49
196.77
199.84
201.87
206.24
215.01
227.78
241.64
252.08
254.71
246.74
227.83
199.80
165.68
128.63
91.30
55.73
23.48
-4.20
-26.72
-44.58
-59.69
-75.04
-93.65
-117.35
-145.84
-176.70
-206.38
-231.68
-250.85
-264.08
-273.06
-279.84
-285.68
-290.38
-292.38
-289.59
-280.52
-265.13
-244.77
-221.71
-197.92
-174.17
-149.98
-124.32
-96.77
-68.31
-41.31
-18.55
-2.12
7.50
11.27
10.78
7.39
1.70
-6.06
-15.32
-24.45
-30.73
-31.26
-24.19
-9.72
9.89
31.15
50.57
65.80
75.93
81.24
82.53
80.59
76.07
69.90
63.41
58.31
56.21
57.81
62.25
67.29
70.01
68.05
60.67
49.17
36.32
25.35
18.66
17.06
19.66
24.44
28.97
31.31
30.50
26.82
21.76
17.58
16.70
20.92
30.84
45.66
63.33
81.11
96.15
106.15
109.66
106.15
95.79
79.26
57.63
32.45
5.90
-19.42
-41.01
-57.23
-67.97
-74.76
-80.35
-87.71
-99.10
-115.59
-136.96
-162.22
-189.97
-218.68
-246.77
-272.69
-295.01
-312.62
-324.78
-331.17
-331.81
-327.11
-317.85
-305.20
-290.48
-274.90
-259.32
-244.09
-229.17
-214.39
-199.70
-185.32
-171.69
-159.23
-147.95
-137.17
-125.30
-109.72
-87.27
-55.15
-12.31
39.40
94.99
147.34
189.35
216.26
227.15
224.69
213.72
199.30
185.36
174.36
167.55
165.31
167.05
170.95
174.05
173.01
165.44
150.88
131.03
108.77
86.90
67.29
50.80
38.16
30.68
30.33
38.85
56.45
80.99
108.11
132.61
150.21
159.02
159.87
155.45
148.75
141.72
134.75
127.13
118.13
107.90
97.68
89.25
84.09
82.55
83.72
85.91
87.39
87.07
84.74
80.86
76.11
70.92
65.34
59.05
51.74
43.29
33.98
24.30
14.74
5.55
-3.27
-11.70
-19.34
-25.19
-27.75
-25.59
-18.00
-5.45
10.39
27.17
42.58
55.04
63.92
69.40
71.98
72.17
70.12
65.84
59.35
50.99
41.48
31.80
22.88
15.30
9.08
3.71
-1.62
-7.62
-14.66
-22.61
-30.96
-39.13
-46.75
-53.80
-60.61
-67.69
-75.51
-84.41
-94.51
-105.63
-117.22
-128.27
-137.37
-142.92
-143.62
-138.91
-129.32
-116.31
-101.88
-87.93
-75.76
-65.93
-58.39
-52.77
-48.69
-45.81
-43.80
-42.23
-40.61
-38.35
-35.07
-30.62
-25.23
-19.37
-13.63
-8.56
-4.57
-1.89
-0.60
-0.69
-2.02
-4.27
-7.01
-9.75
-12.14
-14.16
-16.15
-18.66
-21.97
-25.67
-28.38
-28.03
-22.55
-10.75
6.90
28.24
50.09
69.36
84.12
94.12
100.55
105.29
109.90
114.97
119.86
123.01
122.33
115.95
102.90
83.82
61.35
39.82
24.40
19.58
27.63
47.63
75.49
105.04
129.83
145.08
148.90
142.47
129.04
112.31
95.03
78.20
61.36
43.57
24.47
4.92
-13.15
-27.54
-36.71
-40.35
-39.32
-35.20
-29.57
-23.61
-18.02
-13.25
-9.87
-8.67
-10.45
-15.55
-23.47
-32.70
-41.08
-46.51
-47.65
-44.34
-37.71
-29.59
-22.01
-16.47
-13.63
-13.28
-14.56
-16.35
-17.48
-17.29
-15.92
-14.41
-14.36
-17.41
-24.49
-35.30
-48.07
-59.57
-65.99
-63.82
-50.92
-27.27
4.45
39.18
70.38
91.91
100.50
96.59
84.26
69.72
58.99
55.74
60.20
69.59
79.70
88.02
93.40
95.92
96.12
94.53
91.38
86.66
80.24
72.17
65.51
63.05
66.48
75.81
89.70
105.78
120.82
130.81
131.91
126.02
116.77
108.79
106.48
113.50
132.35
163.60
204.99
251.44
301.32
350.70
393.45
422.80
434.37
428.43
409.61
384.24
329.11
235.55
109.90
-26.98
-151.41
-248.48
-314.88
-355.70
-378.15
-395.63
-412.51
-429.61
-445.75
-458.82
-465.91
-463.69
-446.39
-411.63
-362.10
-300.70
-234.56
-173.23
-125.80
-97.64
-88.45
-92.92
-103.76
-114.36
-117.55
-110.07
-92.85
-69.86
-46.18
-26.28
-13.45
-10.18
-17.67
-33.45
-53.06
-71.16
-83.23
-87.25
-84.57
-79.50
-77.76
-83.82
-98.31
-118.25
-138.33
-152.93
-158.00
-152.01
-135.89
-112.39
-84.87
-56.34
-29.20
-5.28
13.81
26.73
32.62
31.70
25.49
16.67
8.20
2.29
-0.29
-0.31
0.52
0.52
-1.25
-4.82
-9.43
-13.92
-17.02
-17.60
-14.88
-8.65
0.61
11.86
24.01
36.50
49.52
63.80
79.86
97.37
114.89
130.18
140.82
144.91
141.52
130.88
114.41
94.53
74.19
56.09
41.70
30.67
21.08
10.44
-2.73
-17.85
-32.19
-42.08
-44.60
-38.93
-26.69
-11.13
4.34
17.43
27.52
35.47
42.70
50.22
57.95
64.75
69.07
69.87
67.39
63.17
59.55
58.43
60.15
62.91
63.21
57.29
42.92
21.00
-4.29
-26.61
-39.40
-37.85
-19.90
13.50
58.60
109.27
157.47
194.56
213.53
211.99
193.94
169.30
150.38
146.86
161.69
190.20
222.64
248.91
262.62
262.49
250.95
231.41
205.99
175.16
138.76
97.70
54.77
14.00
-20.97
-48.65
-70.39
-89.92
-111.67
-138.84
-172.11
-209.48
-247.26
-281.62
-310.12
-332.14
-348.59
-360.74
-369.02
-372.45
-368.90
-356.20
-333.42
-301.78
-264.73
-227.07
-193.54
-167.48
-150.17
-140.95
-137.99
-138.93
-141.41
-143.10
-141.80
-135.72
-123.84
-106.20
-83.61
-57.04
-26.86
7.26
45.68
87.56
129.93
167.78
195.33
208.12
204.73
187.38
161.07
131.74
104.44
82.29
66.68
58.30
58.06
67.09
85.69
111.76
140.27
164.03
175.94
171.71
151.03
116.92
73.58
24.32
-28.81
-83.68
-136.08
-179.03
-204.36
-205.94
-182.62
-139.11
-84.07
-26.93
25.09
68.19
101.34
125.02
140.10
147.59
148.84
145.52
139.15
130.44
118.99
103.79
84.05
59.89
32.84
5.57
-18.71
-36.89
-46.78
-47.59
-40.54
-28.69
-16.37
-7.96
-6.57
-12.99
-25.41
-39.97
-51.92
-57.22
-53.92
-43.00
-28.15
-14.47
-6.46
-6.12
-12.03
-19.91
-24.43
-21.47
-9.68
9.22
31.49
52.99
70.56
82.62
88.83
89.45
84.71
74.66
59.45
39.79
17.20
-5.98
-27.20
-44.31
-56.20
-63.00
-65.65
-65.38
-63.04
-58.98
-53.25
-46.08
-38.11
-30.46
-24.40
-20.95
-20.69
-23.83
-30.37
-40.28
-53.41
-69.16
-86.18
-102.33
-114.98
-121.68
-120.84
-112.27
-97.25
-78.10
-57.46
-37.66
-20.18
-5.63
5.96
14.77
20.93
24.47
25.50
24.42
21.95
19.08
16.77
15.74
16.19
17.72
19.45
20.21
18.94
14.99
8.31
-0.60
-10.97
-22.11
-33.58
-45.31
-57.41
-70.20
-83.98
-98.92
-114.74
-130.31
-143.52
-151.50
-151.41
-141.51
-121.97
-95.01
-64.23
-33.43
-5.57
17.83
36.39
50.34
59.91
65.15
66.13
63.33
57.82
51.25
45.35
41.50
40.27
41.33
43.58
45.55
45.89
43.82
39.28
32.82
25.28
17.37
9.45
1.55
-6.58
-15.24
-24.75
-35.33
-46.93
-58.98
-70.04
-77.88
-79.92
-74.16
-59.95
-38.63
-13.13
12.83
35.82
53.61
65.40
71.59
73.19
71.27
66.70
60.11
52.11
43.46
35.06
27.86
22.50
19.21
17.72
17.40
17.53
17.56
17.07
15.84
13.74
10.71
6.75
1.93
-3.66
-10.07
-17.47
-26.21
-36.60
-48.58
-61.42
-73.51
-82.40
-85.39
-80.33
-66.40
-44.75
-18.33
8.87
32.96
51.21
62.56
67.44
67.12
62.98
56.11
47.30
37.33
27.17
17.96
10.75
6.14
4.03
3.77
4.35
4.81
4.47
3.03
0.56
-2.63
-6.13
-9.62
-12.93
-16.20
-19.75
-24.08
-29.73
-37.19
-46.80
-58.52
-71.65
-84.56
-94.70
-99.08
-95.13
-81.79
-60.23
-33.63
-6.40
17.25
34.53
44.62
48.39
47.67
44.31
39.70
34.65
29.59
24.89
21.00
18.38
17.36
17.98
19.95
22.75
25.74
28.29
29.82
29.86
28.11
24.49
19.22
12.80
5.86
-1.04
-7.60
-13.91
-20.41
-27.71
-36.40
-46.61
-57.66
-67.85
-74.55
-74.91
-66.75
-49.57
-25.10
3.12
30.69
53.75
70.02
79.16
82.39
81.61
78.61
74.56
69.94
64.92
59.53
53.94
48.40
43.15
38.32
33.99
30.22
27.15
24.83
23.15
21.70
19.75
16.54
11.56
4.79
-3.32
-12.00
-20.51
-28.37
-35.49
-42.23
-49.31
-57.62
-67.75
-79.47
-91.24
-100.24
-103.01
-96.65
-80.10
-54.79
-24.27
6.86
34.53
56.26
71.36
80.44
84.58
84.66
81.31
75.18
67.23
58.80
51.23
45.41
41.46
38.81
36.59
34.11
31.16
28.00
25.03
22.41
19.85
16.62
11.89
5.11
-3.71
-13.89
-24.39
-34.17
-42.64
-49.91
-56.75
-64.40
-74.06
-86.38
-100.96
-116.09
-128.86
-135.77
-133.80
-121.39
-99.28
-70.38
-38.97
-9.50
14.69
31.90
42.07
46.09
45.23
40.70
33.60
25.05
16.23
8.19
1.64
-3.25
-6.81
-9.54
-11.85
-13.86
-15.37
-16.12
-15.97
-15.08
-13.92
-13.03
-12.83
-13.41
-14.53
-15.72
-16.53
-16.81
-16.82
-17.23
-18.98
-23.00
-29.78
-39.02
-49.38
-58.46
-63.36
-61.44
-51.36
-33.66
-10.72
13.93
36.77
55.27
68.37
76.30
79.97
80.40
78.36
74.42
69.09
63.05
57.08
51.98
48.26
46.13
45.40
45.54
45.87
45.70
44.51
42.08
38.47
33.99
29.01
23.83
18.52
13.04
7.26
1.04
-5.76
-13.40
-22.25
-32.61
-44.27
-56.05
-65.69
-70.31
-67.29
-55.39
-35.51
-10.54
15.39
38.25
55.23
65.35
69.26
68.62
65.33
60.93
56.38
52.06
47.94
43.75
39.21
34.14
28.67
23.24
18.43
14.76
12.29
10.47
8.29
4.62
-1.28
-9.41
-18.96
-28.59
-36.82
-42.45
-44.87
-44.42
-42.89
-43.85
-52.23
-72.81
-108.03
-156.04
-210.23
-261.02
-299.11
-318.84
-319.88
-306.47
-284.87
-260.63
-237.07
-215.58
-196.85
-181.74
-171.22
-165.46
-163.10
-161.45
-157.63
-149.85
-138.24
-124.44
-110.56
-97.89
-86.42
-74.91
-61.93
-46.85
-30.32
-14.06
0.07
11.18
20.21
29.81
43.39
63.53
90.65
122.49
154.68
182.04
200.16
206.63
201.46
186.90
166.76
145.54
127.46
115.76
111.96
115.73
125.34
138.42
152.71
166.51
178.70
188.63
196.03
200.93
203.64
204.75
204.94
204.72
204.12
202.74
200.00
195.99
191.36
187.19
184.70
184.78
187.56
192.08
196.32
197.89
196.07
191.25
184.78
178.47
173.99
172.10
172.00
171.23
166.35
156.09
139.60
116.28
85.98
50.08
12.12
-22.73
-49.11
-62.89
-59.09
-36.72
0.38
44.82
88.92
127.42
158.13
180.71
195.43
206.80
217.96
229.69
240.78
249.90
256.78
261.83
264.98
238.76
170.24
65.74
-51.76
-158.62
-242.72
-303.54
-346.02
-375.63
-395.77
-403.31
-395.50
-372.81
-339.31
-300.18
-259.96
-222.13
-190.16
-167.37
-152.42
-142.56
-134.44
-125.00
-111.81
-95.28
-76.46
-58.24
-44.17
-34.26
-26.59
-18.73
-9.49
0.30
8.31
12.17
10.48
3.90
-3.98
-9.02
-8.53
-2.29
7.87
19.26
29.62
37.51
42.57
45.79
48.58
52.22
57.47
64.76
74.34
86.38
100.58
115.85
130.05
140.10
142.48
134.22
113.98
82.93
44.94
5.79
-28.18
-51.75
-62.21
-60.05
-48.65
-33.11
-18.60
-8.85
-5.24
-6.72
-10.60
-13.69
-13.46
-8.59
0.93
14.28
30.31
47.87
65.80
82.81
97.36
107.73
112.41
110.50
102.11
88.40
71.35
53.44
37.21
24.89
18.15
17.81
23.60
33.98
46.29
57.11
63.07
61.60
51.65
33.71
9.41
-19.37
-51.33
-85.97
-123.12
-162.02
-200.55
-235.29
-262.45
-279.24
-285.09
-281.80
-272.79
-261.74
-251.43
-243.18
-236.90
-231.61
-225.90
-218.38
-207.94
-193.98
-176.62
-156.63
-135.22
-113.54
-92.31
-71.86
-52.47
-34.76
-19.97
-9.70
-5.34
-7.38
-15.25
-27.58
-42.82
-59.69
-77.20
-94.35
-109.64
-120.97
-125.95
-122.73
-110.82
-91.61
-67.84
-42.61
-18.33
3.76
23.63
42.01
59.61
76.63
91.92
103.89
111.04
112.50
108.40
100.10
90.15
81.79
78.08
80.06
87.42
98.50
110.29
118.69
119.40
109.34
87.98
57.82
22.33
-13.38
-44.01
-65.97
-78.71
-84.67
-87.84
-92.13
-99.96
-113.67
-132.66
-153.17
-169.67
-177.22
-173.44
-159.19
-138.21
-103.61
-56.94
-6.47
37.66
69.66
90.03
103.01
113.47
124.94
137.60
148.17
151.93
145.04
126.51
99.00
68.25
41.43
24.55
21.60
31.05
48.31
68.36
87.55
103.82
115.71
121.51
119.13
106.92
83.65
50.37
10.39
-31.82
-71.59
-104.35
-125.18
-128.96
-111.90
-74.37
-21.63
37.06
91.25
132.71
157.81
167.84
167.28
161.20
153.45
146.65
142.98
144.42
151.89
163.80
175.69
181.60
176.71
160.06
135.38
109.45
88.97
77.43
73.73
73.35
70.86
62.54
47.68
28.37
8.03
-10.17
-24.60
-35.61
-45.07
-55.42
-68.41
-84.01
-100.14
-113.13
-118.95
-114.78
-100.10
-76.95
-49.45
-22.41
0.06
15.66
24.17
26.69
24.55
18.29
7.62
-7.77
-26.91
-47.02
-64.29
-75.72
-80.85
-82.40
-84.90
-92.39
-106.21
-124.25
-142.05
-154.90
-159.71
-155.55
-142.99
-122.97
-96.19
-63.31
-25.77
13.57
50.61
81.05
101.68
111.42
111.49
104.78
94.82
84.75
76.58
70.87
66.75
62.20
54.74
42.25
23.75
-0.14
-27.37
-55.23
-81.28
-104.26
-124.33
-142.71
-160.82
-179.43
-198.03
-214.78
-226.96
-231.77
-227.21
-212.68
-189.12
-158.64
-123.78
-86.86
-49.71
-13.72
19.95
50.17
76.00
96.70
111.73
120.62
122.90
118.43
107.94
93.59
78.70
66.73
59.94
58.31
59.86
61.96
63.05
63.63
66.06
73.46
88.49
112.63
146.23
188.49
237.31
288.76
336.99
375.10
397.01
399.56
383.81
354.63
318.74
282.31
249.10
220.05
194.13
169.75
145.83
122.15
99.01
76.66
54.91
33.21
11.08
-11.57
-34.23
-56.03
-76.11
-94.08
-110.18
-125.24
-140.34
-156.45
-174.32
-194.61
-218.07
-245.41
-276.65
-310.46
-343.64
-371.51
-389.05
-392.45
-380.24
-353.52
-315.37
-269.56
-219.69
-168.81
-119.54
-74.28
-35.25
-3.97
19.10
34.74
44.59
50.47
53.84
55.44
55.45
53.77
50.49
46.01
41.00
36.22
32.14
28.81
25.75
22.15
17.12
10.01
0.70
-10.38
-22.34
-34.14
-44.86
-53.95
-61.38
-67.51
-73.08
-78.93
-85.68
-93.37
-101.24
-107.67
-110.41
-107.20
-96.44
-78.04
-53.28
-24.51
5.36
33.50
57.67
76.66
90.40
99.63
105.22
108.05
109.02
108.94
108.54
108.47
109.35
111.68
115.81
121.13
127.08
133.40
139.92
146.29
151.86
156.09
159.15
162.00
164.17
165.82
167.77
170.70
174.19
176.56
175.77
170.41
160.14
141.44
113.22
78.08
41.09
7.08
-21.64
-45.53
-66.96
-88.92
-120.58
-167.15
-227.16
-294.40
-362.41
-428.20
-492.13
-555.85
-619.95
-691.07
-769.56
-847.46
-912.52
-954.74
-971.53
-967.16
-949.50
-873.04
-722.52
-518.66
-306.59
-125.35
9.66
100.87
158.22
193.00
215.01
223.08
215.40
197.40
177.29
163.25
159.64
167.61
186.66
215.66
246.72
274.89
301.77
327.63
355.25
386.12
420.39
457.59
496.71
531.52
556.11
566.72
561.43
540.41
504.54
456.18
399.64
340.56
282.48
228.41
180.83
140.94
108.91
83.19
61.27
40.83
20.37
-1.50
-25.45
-51.66
-80.23
-110.47
-140.75
-168.09
-188.44
-198.07
-195.27
-181.32
-160.10
-136.38
-113.49
-92.18
-70.86
-46.89
-18.31
15.01
51.35
87.90
121.77
150.87
174.28
192.22
205.55
215.09
220.95
222.22
217.28
204.56
183.44
154.87
121.34
86.32
53.37
25.30
3.64
-11.60
-21.79
-29.30
-36.97
-47.58
-63.47
-86.11
-115.62
-150.54
-187.51
-221.63
-247.37
-260.04
-257.15
-239.10
-208.87
-170.91
-129.67
-88.59
-49.74
-14.18
17.43
44.41
66.04
81.82
91.96
97.55
100.67
104.01
110.44
122.19
140.20
163.45
188.89
211.83
226.95
229.64
217.31
190.28
151.87
107.52
63.36
24.57
-5.74
-27.12
-41.50
-52.31
-63.52
-78.44
-98.74
-123.80
-150.72
-174.88
-191.29
-196.18
-188.21
-169.00
-142.41
-113.29
-85.86
-62.68
-44.45
-30.50
-19.59
-10.62
-2.91
3.86
9.83
15.14
19.90
24.19
28.20
32.19
36.55
41.67
47.73
54.43
60.82
65.34
66.18
61.87
51.83
36.80
18.74
0.39
-15.61
-27.62
-35.58
-40.87
-45.44
-50.79
-57.15
-63.38
-67.62
-68.29
-64.72
-57.41
-47.56
-36.50
-25.15
-13.71
-1.97
10.34
23.00
35.04
44.81
50.52
51.04
46.63
39.18
31.71
27.34
28.24
34.89
46.11
59.55
72.40
81.91
85.90
82.91
72.53
55.53
33.79
9.98
-13.15
-33.32
-49.39
-61.46
-70.76
-79.13
-88.33
-99.29
-111.63
-123.61
-132.67
-136.30
-132.91
-122.39
-106.06
-86.31
-65.99
-47.73
-33.40
-23.86
-18.87
-17.43
-18.20
-20.05
-22.25
-24.44
-26.32
-27.44
-27.30
-25.78
-23.38
-21.02
-19.53
-18.78
-17.36
-13.01
-3.62
11.40
30.49
50.15
66.20
75.24
75.83
68.87
56.94
43.31
30.93
21.91
17.51
18.50
25.36
38.28
56.88
79.86
105.25
130.76
154.43
174.81
190.90
201.86
206.83
205.08
196.46
181.71
162.45
140.77
118.63
97.44
77.96
60.44
44.86
31.05
18.71
7.40
-3.32
-13.70
-23.66
-32.70
-40.05
-44.92
-46.68
-45.26
-41.29
-36.24
-32.28
-32.07
-38.18
-52.39
-74.83
-103.36
-133.58
-159.68
-176.00
-178.93
-168.08
-146.38
-118.83
-90.48
-64.75
-42.57
-22.87
-3.86
15.74
35.88
55.43
72.88
87.09
97.72
105.02
109.51
111.61
111.48
109.27
105.32
100.27
94.83
89.45
83.96
77.60
69.42
58.88
46.26
32.67
19.65
8.57
0.17
-5.47
-8.76
-10.40
-11.29
-12.50
-15.24
-20.44
-28.24
-37.56
-46.34
-52.37
-54.40
-52.78
-49.19
-45.53
-42.68
-39.94
-35.45
-27.51
-15.72
-1.51
12.39
23.07
28.54
28.11
22.16
11.61
-2.45
-18.65
-35.10
-49.37
-58.87
-61.76
-57.69
-48.08
-35.91
-24.59
-16.92
-14.30
-16.51
-21.99
-28.64
-34.45
-38.00
-38.68
-36.65
-32.63
-27.84
-23.78
-21.93
-23.50
-28.87
-37.44
-47.73
-58.03
-67.06
-74.47
-80.70
-86.33
-91.34
-94.64
-94.42
-89.11
-78.33
-63.43
-47.10
-32.16
-20.49
-12.41
-6.93
-2.89
0.12
1.30
-0.79
-7.17
-17.33
-28.82
-37.69
-39.68
-31.54
-12.02
17.74
54.58
93.92
130.62
159.76
177.50
181.75
172.78
153.37
128.31
103.29
83.26
71.04
66.46
66.70
67.58
65.11
56.82
42.13
21.93
-2.31
-29.20
-57.57
-86.14
-113.00
-135.60
-151.23
-157.79
-154.66
-142.94
-124.92
-103.21
-79.72
-55.23
-29.79
-3.70
21.47
42.61
55.88
58.41
49.87
33.10
13.52
-2.76
-11.02
-9.44
0.52
14.92
29.05
39.01
42.94
41.37
36.79
32.66
32.12
36.83
46.28
57.92
68.16
73.86
73.56
68.00
59.51
50.77
43.64
38.68
35.47
33.32
31.79
30.71
29.76
28.26
25.29
20.30
13.57
6.18
-0.43
-5.27
-8.13
-9.59
-10.56
-11.89
-14.07
-17.12
-20.55
-23.51
-25.09
-24.88
-23.39
-21.94
-22.01
-24.35
-28.44
-32.74
-35.61
-36.30
-35.38
-34.19
-33.92
-34.80
-36.12
-36.95
-37.10
-37.43
-39.50
-44.65
-52.85
-62.22
-69.99
-73.75
-72.35
-66.50
-58.44
-51.17
-47.53
-49.17
-55.94
-66.20
-77.21
-85.58
-88.21
-83.48
-72.00
-57.01
-43.01
-33.53
-30.37
-32.60
-36.40
-36.19
-26.36
-2.93
34.10
81.46
133.93
183.20
219.94
237.76
235.40
216.72
188.76
156.63
123.65
93.46
66.08
39.42
12.98
-11.92
-33.70
-51.86
-70.58
-93.87
-119.92
-148.26
-180.43
-216.43
-254.56
-292.42
-326.76
-357.76
-384.11
-398.25
-397.31
-384.85
-365.45
-342.86
-320.41
-274.12
-193.59
-115.40
-50.31
11.99
72.73
129.48
178.29
214.28
234.63
236.43
225.76
217.06
219.98
233.88
247.92
255.74
254.18
243.16
223.10
196.29
171.04
153.20
144.35
144.96
154.93
172.11
193.77
215.82
236.07
256.84
279.10
300.92
319.59
332.82
338.31
334.83
321.72
299.81
272.08
240.71
206.47
170.00
132.65
95.85
61.20
29.84
2.33
-21.23
-42.04
-62.30
-84.07
-108.35
-135.13
-163.31
-190.90
-215.73
-235.93
-250.46
-259.21
-262.77
-261.97
-257.64
-250.62
-241.88
-232.78
-225.00
-220.11
-219.01
-221.53
-226.56
-232.52
-238.18
-243.22
-248.25
-254.52
-263.22
-274.93
-289.02
-303.35
-314.46
-318.28
-311.57
-293.31
-265.84
-234.75
-207.40
-190.37
-186.93
-195.63
-210.63
-223.96
-228.45
-220.28
-199.96
-171.34
-139.57
-108.73
-80.56
-54.53
-28.74
-1.11
29.80
64.29
101.26
137.73
168.88
188.85
192.75
179.14
151.67
118.92
91.71
79.40
86.42
110.94
145.97
182.19
211.10
227.04
227.85
214.21
188.83
155.71
119.86
86.92
62.44
50.77
53.62
69.43
93.59
119.99
143.07
159.67
169.65
175.31
180.06
186.59
195.94
207.33
218.84
228.14
233.20
232.67
226.08
214.04
197.67
177.90
154.80
127.52
95.12
57.61
16.68
-24.52
-62.41
-95.15
-123.69
-151.18
-180.79
-213.52
-247.27
-277.68
-300.33
-311.41
-309.97
-297.76
-277.77
-252.29
-222.08
-186.89
-146.40
-100.95
-49.31
8.11
68.21
125.19
172.65
206.00
223.84
228.23
223.65
219.16
221.87
234.29
254.24
277.46
300.18
319.81
334.58
343.49
351.58
364.04
383.51
409.04
437.44
465.29
489.59
508.00
488.59
415.05
293.91
151.75
16.41
-96.92
-185.30
-251.82
-300.84
-336.20
-356.18
-360.15
-351.00
-335.09
-319.11
-307.01
-299.68
-296.05
-294.43
-289.65
-278.35
-260.73
-240.40
-221.74
-207.36
-197.93
-192.44
-189.55
-185.77
-178.80
-168.56
-157.14
-147.13
-139.78
-135.20
-132.70
-131.52
-129.95
-126.99
-122.83
-118.68
-115.92
-114.78
-114.85
-115.25
-115.15
-113.46
-109.48
-102.88
-93.30
-82.99
-72.48
-61.62
-49.93
-37.06
-23.04
-8.36
6.24
19.99
32.36
43.70
54.66
66.07
78.89
93.95
111.58
131.23
151.08
168.12
179.20
181.73
174.84
159.95
140.45
120.59
104.03
92.84
87.24
86.30
88.48
92.31
96.68
100.79
103.95
105.56
105.10
102.37
97.59
91.38
84.57
77.94
72.00
66.89
62.32
57.75
52.70
46.98
40.85
34.81
29.46
25.12
21.73
18.78
15.56
11.39
5.81
-1.31
-9.85
-19.42
-29.47
-39.12
-47.27
-52.64
-54.10
-51.03
-43.52
-32.38
-18.95
-4.71
9.02
21.25
31.34
38.90
43.67
45.60
44.83
41.77
37.01
31.26
25.18
19.28
13.91
9.29
5.54
2.66
0.61
-0.85
-1.99
-3.09
-4.37
-5.91
-7.73
-9.90
-12.57
-15.99
-20.30
-25.35
-30.55
-34.90
-37.26
-36.70
-32.80
-25.77
-16.31
-5.41
5.95
16.96
26.90
35.15
41.17
44.57
45.20
43.39
39.81
35.44
31.25
27.88
25.50
23.75
21.96
19.42
15.68
10.69
4.79
-1.49
-7.66
-13.43
-18.81
-24.05
-29.46
-35.29
-41.61
-48.16
-54.36
-59.27
-61.83
-61.10
-56.58
-48.42
-37.36
-24.62
-11.47
0.94
11.74
20.39
26.58
30.16
31.20
29.99
27.03
23.04
18.69
14.57
10.98
7.93
5.24
2.65
0.01
-2.69
-5.25
-7.46
-9.19
-10.56
-11.92
-13.76
-16.55
-20.54
-25.70
-31.58
-37.40
-42.14
-44.72
-44.30
-40.56
-33.80
-24.92
-15.09
-5.47
3.13
10.31
15.95
20.06
22.69
23.89
23.87
22.98
21.69
20.46
19.54
18.98
18.59
18.15
17.44
16.39
15.01
13.43
11.72
9.96
8.09
5.97
3.36
-0.03
-4.43
-9.85
-15.95
-22.01
-26.96
-29.67
-29.26
-25.44
-18.56
-9.54
0.42
10.17
18.88
26.04
31.45
35.09
36.99
37.27
36.15
33.97
31.21
28.36
25.83
23.84
22.34
21.09
19.73
18.00
15.79
13.18
10.31
7.37
4.39
1.31
-2.03
-5.83
-10.24
-15.36
-21.10
-27.12
-32.73
-37.02
-38.99
-37.89
-33.54
-26.41
-17.52
-8.08
0.80
8.42
14.47
18.90
21.71
22.92
22.60
21.00
18.59
15.98
13.77
12.34
11.74
11.74
11.95
12.03
11.74
11.07
10.10
9.00
7.87
6.72
5.41
3.72
1.33
-1.98
-6.33
-11.54
-17.14
-22.32
-26.08
-27.42
-25.67
-20.66
-12.90
-3.41
6.51
15.71
23.37
29.15
33.07
35.30
36.04
35.50
33.90
31.55
28.87
26.30
24.16
22.51
21.17
19.79
18.04
15.75
13.06
10.24
7.59
5.25
3.10
0.82
-1.98
-5.62
-10.24
-15.72
-21.71
-27.60
-32.57
-35.75
-36.35
-33.92
-28.56
-20.93
-12.08
-3.17
4.79
11.21
15.84
18.72
20.01
19.89
18.58
16.37
13.67
10.93
8.55
6.76
5.57
4.76
3.99
2.97
1.52
-0.34
-2.46
-4.64
-6.77
-8.88
-11.18
-13.97
-17.51
-21.86
-26.74
-31.55
-35.40
-37.40
-36.83
-33.47
-27.62
-20.03
-11.71
-3.58
3.70
9.79
14.60
18.12
20.34
21.29
21.05
19.89
18.20
16.37
14.68
13.23
11.94
10.68
9.33
7.81
6.09
4.15
1.96
-0.49
-3.20
-6.15
-9.38
-13.00
-17.15
-21.88
-27.00
-31.95
-35.90
-37.93
-37.32
-33.83
-27.78
-19.94
-11.28
-2.74
5.02
11.64
16.96
20.97
23.62
24.92
24.94
23.87
22.07
19.93
17.85
16.04
14.54
13.19
11.73
9.93
7.76
5.35
2.99
0.89
-0.89
-2.55
-4.45
-6.96
-10.30
-14.46
-19.14
-23.81
-27.74
-30.12
-30.24
-27.75
-22.79
-15.95
-8.21
-0.50
6.44
12.23
16.77
20.06
22.10
22.86
22.39
20.92
18.81
16.50
14.31
12.38
10.68
9.04
7.35
5.50
3.54
1.55
-0.34
-2.07
-3.65
-5.23
-7.04
-9.36
-12.39
-16.17
-20.52
-24.93
-28.71
-31.00
-31.06
-28.45
-23.18
-15.68
-6.62
3.37
13.86
24.68
35.71
46.55
56.46
64.31
68.94
69.55
65.95
58.62
48.47
36.53
23.67
10.51
-2.56
-15.22
-27.10
-37.80
-46.94
-54.30
-59.87
-63.89
-66.76
-68.90
-70.69
-72.37
-73.99
-75.41
-76.32
-76.22
-74.54
-70.72
-64.40
-55.59
-44.76
-32.78
-20.71
-9.47
0.33
8.51
15.19
20.59
24.84
27.93
29.82
30.56
30.36
29.61
28.74
28.04
27.57
27.17
26.57
25.54
23.97
21.92
19.51
16.85
14.00
10.94
7.61
3.92
-0.15
-4.63
-9.47
-14.48
-19.35
-23.52
-26.33
-27.07
-25.24
-20.76
-14.00
-5.77
2.86
10.88
17.59
22.70
26.37
28.93
30.76
32.03
32.76
32.82
32.14
30.78
28.93
26.87
24.85
23.05
21.53
20.22
18.99
17.67
16.08
14.06
11.52
8.52
5.23
1.88
-1.33
-4.30
-7.09
-9.91
-13.01
-16.59
-20.67
-25.01
-28.99
-31.81
-32.56
-30.63
-25.90
-18.82
-10.33
-1.60
6.33
12.78
17.52
20.69
22.60
23.59
23.88
23.60
22.80
21.49
19.73
17.56
15.06
12.32
9.47
6.65
3.99
1.58
-0.60
-2.66
-4.79
-7.14
-9.83
-12.87
-16.20
-19.74
-23.33
-26.85
-30.18
-33.31
-36.33
-39.45
-42.80
-46.29
-49.44
-51.48
-51.50
-48.82
-43.25
-35.21
-25.60
-15.52
-6.00
2.25
8.93
14.09
17.98
20.93
23.20
24.94
26.20
26.96
27.21
26.96
26.25
25.17
23.86
22.47
21.19
20.11
19.23
18.40
17.41
16.05
14.17
11.74
8.80
5.45
1.84
-1.88
-5.53
-9.05
-12.48
-16.04
-20.03
-24.61
-29.66
-34.59
-38.45
-40.21
-39.14
-35.06
-28.46
-20.32
-11.74
-3.64
3.48
9.52
14.61
18.91
22.44
25.11
26.82
27.59
27.55
26.90
25.80
24.32
22.52
20.46
18.33
16.33
14.66
13.33
12.19
10.94
9.24
6.92
3.96
0.54
-3.06
-6.52
-9.65
-12.47
-15.22
-18.19
-21.62
-25.62
-30.19
-35.10
-39.95
-44.27
-47.71
-50.02
-51.01
-50.56
-48.57
-45.14
-40.36
-34.26
-27.02
-19.19
-11.74
-5.77
-2.06
-0.75
-1.15
-1.63
0.13
6.48
18.96
37.86
62.13
89.58
117.16
139.02
148.76
142.42
121.13
91.16
60.65
35.92
19.57
10.91
6.95
4.27
0.84
-3.99
-10.20
-17.62
-26.21
-35.93
-46.64
-56.30
-62.68
-63.75
-58.39
-46.87
-30.52
-11.22
9.00
28.28
43.75
52.89
54.70
50.14
41.68
32.38
24.68
19.63
16.90
13.51
5.84
-9.10
-33.05
-65.99
-106.13
-150.24
-194.43
-224.69
-230.25
-206.89
-159.99
-102.67
-49.27
-9.10
15.95
29.93
39.16
46.94
53.27
55.95
52.45
41.85
25.44
6.10
-12.61
-27.43
-37.39
-44.28
-49.30
-52.95
-54.51
-52.05
-43.44
-27.43
-4.63
21.50
46.15
64.86
74.71
74.69
66.43
53.78
41.49
33.43
30.99
33.20
37.55
40.86
40.32
34.36
23.17
9.17
-3.27
-9.68
-6.39
7.90
30.87
56.99
79.48
91.70
91.02
79.42
61.79
43.49
28.37
18.01
12.19
9.62
8.35
6.16
0.81
-9.23
-23.84
-40.83
-56.72
-67.87
-71.99
-68.80
-59.78
-47.47
-34.52
-23.04
-14.39
-9.24
-7.50
-8.12
-9.27
-8.85
-5.57
0.38
7.36
12.80
14.51
11.92
6.39
1.01
-0.91
2.69
11.70
23.94
35.71
43.01
42.74
33.42
15.42
-9.34
-37.92
-66.85
-90.86
-104.67
-105.02
-92.23
-69.88
-42.92
-15.78
8.51
28.46
43.77
54.63
61.54
65.14
66.35
66.24
65.74
65.40
65.45
65.88
66.23
66.01
64.91
62.94
60.42
57.72
55.04
52.45
50.00
47.22
43.88
40.05
36.08
32.45
29.54
27.47
26.18
25.56
25.11
24.69
24.41
24.57
25.41
26.87
28.55
29.80
30.01
28.26
24.18
17.92
9.90
0.46
-10.48
-23.78
-41.50
-62.44
-87.21
-116.21
-148.82
-182.77
-214.03
-237.39
-247.72
-241.50
-217.87
-179.61
-131.87
-80.89
-32.71
8.03
38.64
58.53
68.93
72.34
71.37
68.62
66.07
64.83
65.12
66.56
68.53
70.48
72.00
72.65
72.20
70.60
67.85
63.93
58.78
52.42
45.21
38.13
32.62
30.41
32.79
39.95
50.42
61.28
68.88
69.90
62.42
46.43
23.89
-1.77
-26.54
-46.79
-60.03
-65.44
-63.86
-57.40
-48.69
-40.05
-32.93
-27.75
-24.19
-21.73
-19.96
-18.81
-18.35
-18.59
-19.32
-20.12
-20.55
-20.39
-19.68
-18.69
-17.83
-17.43
-17.66
-18.58
-20.14
-22.31
-25.05
-28.31
-31.96
-35.79
-39.52
-43.09
-46.72
-50.90
-56.12
-62.41
-68.94
-73.98
-75.38
-71.31
-61.09
-45.59
-26.99
-8.09
8.59
21.47
30.09
34.89
36.65
36.07
33.56
29.35
23.71
17.16
10.57
4.98
1.24
-0.24
0.27
1.94
3.70
4.63
4.25
2.62
0.18
-2.58
-5.35
-8.20
-11.49
-15.80
-21.68
-29.50
-39.21
-50.13
-60.87
-69.39
-73.50
-71.46
-62.69
-48.03
-29.59
-10.12
7.79
22.31
32.64
38.82
41.31
40.71
37.53
32.29
25.64
18.43
11.69
6.42
3.27
2.31
2.92
3.97
4.17
2.61
-0.94
-5.98
-11.63
-17.07
-21.89
-26.32
-30.96
-36.60
-43.84
-52.98
-63.80
-75.43
-86.24
-93.94
-96.06
-90.64
-77.05
-56.44
-31.53
-5.93
16.90
34.57
46.17
52.08
53.54
51.93
48.37
43.67
38.33
32.91
28.01
24.32
22.29
21.99
22.89
24.04
24.39
23.09
19.84
14.90
8.88
2.49
-3.76
-9.67
-15.37
-21.26
-27.87
-35.82
-45.52
-56.97
-69.37
-81.04
-89.54
-92.33
-87.49
-74.53
-54.70
-30.66
-5.78
16.86
35.14
48.22
56.28
60.14
60.75
58.99
55.57
51.12
46.26
41.63
37.78
35.04
33.49
32.88
32.73
32.43
31.41
29.22
25.64
20.75
14.84
8.36
1.76
-4.61
-10.57
-16.30
-22.18
-28.79
-36.69
-46.02
-56.22
-65.85
-72.77
-74.66
-69.78
-57.53
-38.81
-15.85
8.39
30.97
49.63
63.23
71.65
75.60
76.19
74.55
71.59
67.96
64.01
59.97
56.02
52.32
49.04
46.39
44.50
43.34
42.75
42.25
41.27
39.24
35.81
30.93
24.90
18.21
11.37
4.75
-1.48
-7.44
-13.50
-20.19
-28.07
-37.34
-47.58
-57.44
-64.79
-67.22
-62.78
-50.84
-32.48
-10.26
12.50
32.76
48.53
59.19
65.26
67.79
67.84
66.15
63.20
59.43
55.40
51.77
49.13
47.75
47.46
47.74
48.00
47.81
47.07
45.96
44.71
43.33
41.52
38.71
34.37
28.29
20.86
12.90
5.41
-0.77
-5.34
-8.65
-11.55
-15.18
-20.58
-28.35
-38.33
-49.39
-59.46
-65.97
-66.48
-59.58
-45.42
-25.88
-3.97
17.01
34.41
46.83
54.13
57.08
56.78
54.23
50.22
45.36
40.25
35.56
31.95
29.83
29.23
29.68
30.46
30.83
30.40
29.20
27.65
26.16
24.89
23.55
21.45
17.92
12.58
5.60
-2.23
-9.84
-16.19
-20.62
-23.07
-24.06
-24.58
-25.78
-28.64
-33.68
-40.59
-48.19
-54.56
-57.52
-55.32
-47.25
-33.99
-17.40
0.04
15.98
28.79
37.75
42.91
44.72
43.74
40.53
35.71
30.05
24.42
19.64
16.28
14.57
14.45
15.64
17.82
20.73
24.07
27.52
30.60
32.69
33.16
31.46
27.33
20.87
12.70
3.79
-4.71
-11.81
-17.03
-20.58
-23.35
-26.56
-31.36
-38.28
-46.94
-55.94
-63.12
-66.19
-63.32
-53.91
-38.80
-20.16
-0.84
16.36
29.45
37.57
40.93
40.41
37.13
32.18
26.46
20.75
15.76
12.08
10.00
9.45
9.94
10.77
11.26
11.04
10.17
9.03
8.09
7.56
7.23
6.57
4.92
1.81
-2.76
-8.27
-13.83
-18.48
-21.51
-22.79
-22.80
-22.55
-23.32
-26.21
-31.67
-39.17
-47.16
-53.34
-55.24
-51.10
-40.42
-24.28
-4.99
14.60
32.00
45.75
55.64
62.50
67.64
72.33
77.20
82.08
85.87
86.96
83.80
75.51
62.34
45.70
27.68
10.35
-4.87
-17.35
-27.13
-34.41
-39.34
-41.99
-42.65
-41.97
-40.98
-40.76
-42.04
-44.91
-48.82
-52.85
-56.15
-58.32
-59.52
-60.54
-62.43
-66.11
-71.93
-79.30
-86.66
-91.80
-92.48
-87.16
-75.55
-58.72
-38.88
-18.66
-0.50
13.88
23.73
29.14
30.79
29.61
26.57
22.45
17.91
13.47
9.64
6.86
5.45
5.41
6.42
7.87
9.09
9.70
9.70
9.46
9.46
9.92
10.60
10.84
9.87
7.12
2.59
-3.17
-9.23
-14.59
-18.56
-20.94
-22.11
-22.87
-24.24
-27.14
-32.02
-38.64
-45.89
-51.95
-54.72
-52.43
-44.27
-30.74
-13.56
4.83
21.93
35.76
45.17
49.85
50.17
46.95
41.31
34.47
27.63
21.74
17.33
14.49
12.93
12.19
11.92
11.92
12.17
12.64
13.20
13.51
13.14
11.70
9.01
5.18
0.59
-4.24
-8.86
-12.98
-16.53
-19.68
-22.79
-26.32
-30.73
-36.31
-42.89
-49.67
-55.19
-57.57
-55.08
-46.75
-32.91
-15.26
3.57
20.68
33.80
41.75
44.57
43.22
39.07
33.45
27.45
21.82
17.00
13.25
10.67
9.22
8.76
9.05
9.72
10.39
10.65
10.13
8.56
5.84
2.04
-2.58
-7.67
-12.83
-17.67
-21.92
-25.40
-28.13
-30.38
-32.67
-35.73
-40.14
-46.01
-52.56
-58.14
-60.47
-57.50
-48.13
-32.80
-13.53
6.69
24.79
38.48
46.70
49.63
48.32
44.18
38.58
32.63
27.07
22.31
18.48
15.46
13.06
11.10
9.43
8.02
6.86
5.90
5.00
3.91
2.33
0.00
-3.22
-7.36
-12.21
-17.46
-22.66
-27.43
-31.58
-35.20
-38.75
-42.95
-48.44
-55.47
-63.54
-71.25
-76.53
-77.20
-71.68
-59.64
-42.24
-21.87
-1.48
16.21
29.44
37.65
41.33
41.57
39.60
36.41
32.67
28.82
25.17
21.97
19.40
17.56
16.38
15.68
15.26
14.98
14.77
14.57
14.21
13.33
11.49
8.24
3.43
-2.75
-9.69
-16.60
-22.76
-27.76
-31.68
-35.06
-38.80
-43.79
-50.55
-58.87
-67.56
-74.58
-77.54
-74.45
-64.47
-48.37
-28.33
-7.33
11.71
26.73
36.84
42.25
43.83
42.72
39.97
36.44
32.82
29.56
26.90
24.83
23.20
21.70
20.09
18.21
16.08
13.83
11.70
9.90
8.44
7.12
5.42
2.80
-1.15
-6.39
-12.49
-18.68
-24.23
-28.81
-32.54
-36.11
-40.43
-46.38
-54.35
-63.89
-73.58
-81.19
-84.19
-80.50
-69.24
-51.20
-28.68
-4.94
16.79
34.05
45.71
51.85
53.42
51.76
48.17
43.72
39.16
35.02
31.68
29.30
27.89
27.28
27.15
27.17
27.08
26.76
26.18
25.32
24.05
22.09
19.10
14.81
9.24
2.79
-3.83
-9.84
-14.70
-18.38
-21.49
-25.11
-30.44
-38.28
-48.55
-60.02
-70.34
-76.66
-76.42
-68.32
-52.83
-32.15
-9.61
11.40
28.35
40.04
46.62
49.04
48.42
45.72
41.61
36.63
31.42
26.69
23.07
20.92
20.17
20.41
21.17
22.04
22.83
23.43
23.63
23.03
21.12
17.49
12.05
5.12
-2.62
-10.41
-17.57
-23.79
-29.16
-34.24
-39.90
-47.04
-56.16
-66.85
-77.57
-85.82
-88.82
-84.45
-72.13
-53.08
-30.07
-6.46
14.81
31.85
44.07
51.88
56.14
57.76
57.46
55.86
53.48
50.89
48.52
46.63
45.24
44.12
42.99
41.63
39.98
38.19
36.45
34.82
33.18
31.08
27.90
23.12
16.55
8.50
-0.25
-8.64
-15.81
-21.37
-25.63
-29.51
-34.22
-40.85
-49.88
-60.80
-72.02
-81.10
-85.33
-82.49
-71.69
-53.73
-30.98
-6.79
15.58
33.78
46.81
54.95
59.25
60.90
60.84
59.64
57.73
55.52
53.55
52.28
51.91
52.23
52.65
52.56
51.63
49.97
48.09
46.53
45.55
44.84
43.62
41.01
36.39
29.71
21.54
12.80
4.44
-2.90
-9.04
-14.33
-19.46
-25.33
-32.73
-41.98
-52.57
-63.02
-71.03
-74.04
-70.06
-58.48
-40.40
-18.35
4.43
24.98
41.33
52.80
59.68
62.82
63.16
61.51
58.55
54.97
51.49
48.75
47.13
46.57
46.64
46.68
46.14
44.83
42.94
40.93
39.21
37.94
36.84
35.32
32.71
28.59
22.95
16.29
9.39
3.01
-2.37
-6.74
-10.57
-14.66
-19.84
-26.72
-35.37
-45.10
-54.43
-61.29
-63.54
-59.60
-49.10
-33.10
-13.85
5.83
23.35
36.97
46.03
50.79
52.06
50.80
47.92
44.17
40.18
36.50
33.56
31.64
30.76
30.68
31.00
31.26
31.15
30.64
29.83
28.92
27.90
26.48
24.13
20.35
14.96
8.28
1.03
-5.89
-11.78
-16.40
-20.01
-23.29
-27.11
-32.14
-38.63
-46.10
-53.23
-58.13
-58.82
-53.94
-43.29
-28.09
-10.63
6.41
20.75
31.08
37.12
39.37
38.71
36.04
32.11
27.54
22.87
18.63
15.23
12.91
11.58
10.91
10.42
9.73
8.67
7.36
6.07
5.02
4.08
2.85
0.64
-3.16
-8.79
-15.95
-23.92
-31.79
-38.87
-44.92
-50.21
-55.36
-61.11
-67.98
-76.08
-84.83
-92.98
-98.72
-100.10
-95.63
-84.90
-68.83
-49.46
-29.42
-11.04
4.15
15.64
23.71
28.98
32.10
33.59
33.89
33.45
32.81
32.44
32.69
33.53
34.65
35.59
35.86
35.24
33.76
31.67
29.36
27.12
25.08
23.24
21.54
19.98
18.65
17.74
17.39
17.66
18.46
19.46
20.18
20.01
18.30
14.56
8.70
1.24
-6.60
-13.11
-16.53
-15.64
-10.20
-1.10
9.98
21.14
30.84
38.27
43.29
46.16
47.17
46.51
44.28
40.62
35.91
30.69
25.50
20.74
16.51
12.66
8.91
4.99
0.79
-3.72
-8.38
-12.96
-17.16
-20.60
-22.95
-23.98
-23.65
-22.07
-19.52
-16.29
-12.68
-8.97
-5.48
-2.60
-0.89
-1.02
-3.57
-8.92
-16.89
-26.65
-36.67
-44.96
-49.51
-48.89
-42.65
-31.50
-17.13
-1.75
12.50
23.99
31.77
35.64
35.93
33.32
28.65
22.89
17.01
11.81
7.86
5.31
3.87
3.05
2.36
1.61
0.94
0.69
1.14
2.24
3.58
4.55
4.59
3.49
1.39
-1.34
-4.29
-7.20
-10.10
-13.19
-16.84
-21.44
-27.23
-34.11
-41.50
-48.24
-52.71
-53.26
-48.71
-38.90
-24.86
-8.65
7.26
20.65
30.17
35.54
37.38
36.74
34.61
31.70
28.31
24.57
20.55
16.48
12.61
9.26
6.61
4.66
3.32
2.39
1.68
0.99
0.12
-1.07
-2.70
-4.77
-7.21
-9.87
-12.58
-15.26
-17.91
-20.72
-24.00
-28.14
-33.26
-39.08
-44.57
-48.10
-47.87
-42.54
-31.86
-16.98
-0.16
15.99
29.27
38.52
43.63
45.29
44.45
41.90
38.24
33.84
29.09
24.31
19.80
15.70
12.09
8.91
6.16
3.87
2.12
0.88
-0.01
-0.92
-2.29
-4.42
-7.46
-11.29
-15.65
-20.37
-25.42
-30.91
-37.06
-44.07
-52.06
-60.91
-70.09
-78.60
-84.88
-87.14
-83.86
-74.39
-59.43
-40.94
-21.71
-4.49
8.76
17.33
21.59
22.62
21.58
19.31
16.24
12.44
8.01
3.11
-1.88
-6.51
-10.35
-13.12
-14.69
-15.13
-14.63
-13.52
-12.27
-11.44
-11.56
-12.98
-15.73
-19.53
-23.87
-28.21
-32.13
-35.46
-38.35
-41.21
-44.71
-49.41
-55.56
-62.66
-69.33
-73.45
-72.76
-65.61
-51.71
-32.40
-10.31
11.43
30.17
44.29
53.33
57.61
57.73
54.23
47.61
38.57
28.18
17.86
9.03
2.73
-0.70
-1.62
-0.89
0.57
2.10
3.42
4.48
5.22
5.38
4.45
1.87
-2.65
-8.84
-15.87
-22.57
-27.86
-31.21
-32.84
-33.64
-34.84
-37.58
-42.55
-49.68
-58.10
-66.12
-71.56
-72.24
-66.60
-54.30
-36.37
-15.15
6.38
25.35
39.77
48.77
52.69
52.58
49.79
45.53
40.68
35.81
31.31
27.43
24.38
22.18
20.70
19.63
18.65
17.57
16.35
15.06
13.67
11.93
9.45
5.88
1.15
-4.39
-10.10
-15.34
-19.72
-23.35
-26.75
-30.73
-35.97
-42.77
-50.61
-58.08
-63.05
-63.18
-56.70
-43.19
-23.88
-1.50
20.51
39.03
52.14
59.46
61.93
61.21
58.95
56.30
53.87
51.76
49.92
48.31
47.03
46.29
46.25
46.96
48.35
50.25
52.43
54.60
56.38
57.31
56.91
54.78
50.77
45.07
38.20
30.72
22.96
14.77
5.47
-5.73
-19.22
-34.53
-50.06
-63.41
-71.97
-73.79
-68.15
-55.80
-38.75
-19.66
-1.22
14.45
26.08
33.36
36.79
37.38
36.27
34.37
32.18
29.74
26.79
23.05
18.40
12.98
7.19
1.53
-3.53
-7.73
-11.10
-13.96
-16.89
-20.48
-25.23
-31.30
-38.48
-46.30
-54.18
-61.63
-68.42
-74.61
-80.65
-87.22
-95.01
-104.38
-114.85
-124.94
-132.10
-133.50
-126.90
-111.60
-88.90
-61.78
-34.03
-9.06
10.90
25.20
34.40
39.68
42.32
43.30
43.34
42.96
42.62
42.67
43.26
44.30
45.48
46.43
46.92
46.95
46.70
46.35
45.85
44.83
42.64
38.68
32.64
24.75
15.79
6.83
-1.15
-7.66
-12.93
-17.89
-23.90
-32.31
-43.86
-58.15
-73.41
-86.67
-94.53
-94.21
-84.56
-66.54
-43.10
-18.12
4.70
22.80
35.23
42.41
45.53
46.00
45.01
43.41
41.69
40.03
38.35
36.39
33.84
30.51
26.52
22.31
18.51
15.79
14.48
14.39
14.87
14.92
13.62
10.47
5.61
-0.25
-6.20
-11.50
-15.91
-19.74
-23.77
-28.90
-36.01
-45.45
-56.74
-68.37
-77.76
-81.86
-78.08
-65.27
-44.42
-18.59
8.03
31.35
48.58
58.83
62.85
62.44
59.53
55.69
51.86
48.44
45.50
43.00
40.90
39.20
37.93
37.07
36.59
36.31
35.98
35.27
33.85
31.46
27.97
23.40
17.95
11.89
5.53
-0.90
-7.35
-13.98
-21.25
-29.69
-39.68
-50.96
-62.36
-71.83
-76.81
-75.05
-65.44
-48.52
-26.41
-2.29
20.52
39.43
52.96
60.87
63.84
63.06
59.90
55.58
51.02
46.77
43.01
39.70
36.74
34.11
31.90
30.27
29.31
28.95
28.81
28.31
26.84
23.90
19.30
13.17
5.94
-1.79
-9.43
-16.48
-22.71
-28.20
-33.41
-39.12
-46.10
-54.63
-64.00
-72.28
-76.61
-74.13
-63.05
-43.50
-17.70
10.76
37.98
60.92
77.97
89.02
94.89
96.80
96.00
93.50
90.12
86.52
83.19
80.43
78.35
76.86
75.84
75.16
74.75
74.52
74.33
73.89
72.78
70.56
66.80
61.28
54.03
45.32
35.66
25.58
15.42
5.14
-5.79
-18.32
-33.53
-52.18
-74.16
-98.12
-121.48
-140.82
-152.87
-155.49
-148.51
-133.82
-114.90
-95.58
-78.95
-66.52
-58.18
-52.69
-48.62
-44.98
-41.59
-38.83
-37.27
-37.10
-37.95
-38.93
-38.85
-36.67
-31.74
-24.02
-14.06
-2.94
7.83
16.58
21.84
23.12
21.75
21.31
26.63
41.85
67.85
100.65
131.75
150.71
148.49
120.40
67.27
-5.13
-87.62
-169.32
-239.36
-288.64
-311.70
-308.22
-283.28
-245.65
-204.88
-168.21
-138.63
-115.37
-96.05
-79.09
-64.55
-53.65
-46.98
-43.48
-40.51
-34.22
-20.73
2.91
37.88
83.52
136.89
193.51
247.08
290.47
318.02
327.39
319.81
299.04
269.72
235.39
198.54
159.59
117.52
72.24
25.98
-16.88
-51.33
-73.34
-81.66
-77.09
-63.09
-49.16
-45.22
-56.51
-79.90
-107.07
-127.40
-141.18
-150.55
-155.87
-154.25
-140.91
-110.19
-59.45
8.27
84.06
154.72
208.04
235.55
235.01
211.71
176.85
143.13
119.99
110.70
112.07
118.00
122.19
120.52
112.36
99.67
84.84
68.96
51.89
33.07
13.46
-4.86
-19.78
-30.28
-36.79
-40.84
-43.87
-46.11
-46.42
-42.77
-33.80
-19.79
-2.64
15.10
31.14
44.17
53.97
60.99
66.03
69.77
72.65
74.91
76.78
78.37
79.60
79.91
78.38
73.90
65.70
53.72
38.83
22.47
5.99
-10.12
-26.48
-44.39
-64.82
-87.37
-109.85
-128.84
-140.96
-144.41
-139.69
-129.49
-117.47
-106.90
-99.60
-95.72
-93.92
-92.03
-87.55
-78.27
-62.84
-41.26
-15.06
13.03
39.89
62.92
80.62
92.68
99.48
101.59
99.54
93.89
85.57
76.00
66.85
59.55
54.86
52.71
52.32
52.60
52.43
51.01
48.14
44.27
40.33
37.12
34.63
31.81
26.75
17.60
3.49
-14.95
-35.68
-55.81
-72.32
-82.58
-84.66
-77.38
-60.42
-34.32
-0.38
39.39
82.38
125.42
164.91
197.28
219.75
231.20
232.70
227.10
217.93
207.92
198.15
188.13
176.56
162.45
145.68
126.98
107.32
87.59
68.30
49.86
32.75
17.57
4.90
-4.85
-11.72
-16.14
-18.87
-20.76
-22.59
-24.91
-28.06
-32.20
-37.41
-43.93
-52.34
-63.63
-78.87
-98.61
-122.10
-146.95
-169.43
-185.32
-191.21
-185.40
-168.42
-142.80
-112.42
-81.66
-54.61
-34.39
-22.58
-19.02
-21.82
-27.92
-33.81
-36.65
-35.07
-29.70
-23.00
-18.67
-20.68
-32.03
-53.94
-85.33
-123.05
-162.75
-200.04
-231.65
-256.15
-273.95
-286.61
-295.82
-302.52
-306.70
-307.82
-305.68
-301.03
-295.73
-292.20
-292.43
-297.42
-306.88
-319.61
-333.65
-346.53
-355.32
-356.94
-348.80
-329.71
-300.51
-263.94
-223.88
-184.01
-146.69
-112.55
-80.68
-49.27
-16.22
20.22
60.93
105.25
150.76
193.37
228.40
252.02
262.67
261.47
251.58
236.79
220.11
203.04
185.83
168.15
149.95
131.64
113.97
97.61
82.96
69.98
58.48
48.14
38.65
29.63
20.54
10.38
-2.18
-18.40
-38.70
-61.74
-84.19
-101.33
-108.47
-102.58
-83.22
-52.51
-14.15
27.83
69.80
108.76
142.13
167.95
185.39
195.38
200.71
205.16
211.79
221.46
232.25
240.18
240.99
231.70
211.81
183.09
148.76
112.32
76.77
44.24
16.16
-6.48
-23.13
-33.74
-38.88
-39.71
-37.79
-34.76
-31.96
-30.41
-30.76
-33.35
-38.08
-44.20
-50.07
-53.35
-51.54
-42.97
-27.40
-6.38
17.22
40.10
59.42
73.48
81.77
84.76
83.48
79.22
73.26
66.69
60.32
54.47
48.93
43.15
36.54
28.75
19.97
10.82
2.15
-5.34
-11.36
-16.17
-20.39
-24.79
-29.87
-35.83
-42.46
-49.26
-55.67
-61.24
-65.81
-69.64
-73.44
-78.27
-85.14
-94.52
-105.86
-117.29
-125.92
-128.61
-123.05
-108.59
-86.67
-60.36
-33.42
-9.23
10.11
23.89
32.59
37.21
38.85
38.43
36.69
34.28
31.71
29.36
27.28
25.26
22.93
20.08
16.76
13.35
10.40
8.26
6.98
6.09
4.80
2.22
-2.20
-8.47
-16.05
-23.95
-31.14
-36.93
-41.27
-44.87
-49.06
-55.31
-64.61
-76.76
-89.94
-100.95
-105.86
-101.35
-85.86
-60.36
-28.16
5.95
37.17
61.93
78.48
86.93
88.59
85.28
78.72
70.29
61.06
51.83
43.33
36.20
30.90
27.62
26.24
26.37
27.51
29.09
30.57
31.39
31.03
28.99
24.96
18.95
11.31
2.72
-6.09
-14.50
-22.34
-29.86
-37.71
-46.55
-56.45
-66.45
-74.45
-77.64
-73.40
-60.45
-39.53
-13.38
14.10
39.03
58.64
71.73
78.53
80.13
77.89
73.09
66.85
60.08
53.50
47.54
42.37
37.95
34.18
31.05
28.64
26.97
25.92
25.07
23.78
21.37
17.38
11.68
4.52
-3.59
-12.07
-20.48
-28.63
-36.72
-45.34
-55.21
-66.95
-80.39
-94.21
-105.83
-111.87
-109.17
-95.98
-72.81
-42.55
-9.63
21.25
46.47
64.14
74.21
77.86
76.81
72.65
66.65
59.70
52.42
45.27
38.58
32.56
27.33
22.97
19.57
17.26
16.03
15.72
15.81
15.50
13.94
10.43
4.80
-2.65
-11.19
-20.06
-28.79
-37.39
-46.36
-56.48
-68.46
-82.50
-97.88
-112.65
-123.80
-127.90
-122.13
-105.45
-79.21
-47.02
-13.74
15.95
38.84
53.80
61.51
63.73
62.45
59.26
55.33
51.42
48.05
45.51
43.82
42.69
41.61
40.12
37.98
35.30
32.39
29.50
26.66
23.56
19.83
15.18
9.66
3.60
-2.57
-8.57
-14.38
-20.36
-27.16
-35.57
-46.29
-59.52
-74.55
-89.41
-101.03
-105.89
-101.13
-85.69
-60.87
-30.13
1.95
30.99
53.95
69.59
78.24
81.24
80.26
76.86
72.27
67.38
62.82
58.94
55.92
53.74
52.30
51.43
50.97
50.73
50.52
50.05
48.95
46.81
43.26
38.06
31.28
23.28
14.67
6.11
-1.87
-9.07
-15.78
-22.70
-30.79
-40.89
-53.15
-66.49
-78.51
-85.89
-85.43
-75.27
-55.67
-29.12
0.49
29.06
53.44
71.96
84.27
90.86
92.55
90.20
84.72
77.15
68.71
60.57
53.70
48.64
45.57
44.29
44.41
45.33
46.28
46.46
45.11
41.73
36.25
29.04
20.80
12.36
4.34
-3.01
-9.84
-16.65
-24.17
-33.08
-43.71
-55.68
-67.61
-77.20
-81.69
-78.71
-67.26
-48.14
-23.94
1.74
25.28
44.03
56.81
63.77
65.96
64.72
61.21
56.29
50.54
44.49
38.76
34.00
30.80
29.44
29.75
31.20
32.96
34.19
34.15
32.31
28.39
22.38
14.55
5.41
-4.31
-13.88
-22.75
-30.73
-38.15
-45.76
-54.53
-65.17
-77.56
-90.34
-100.91
-106.00
-102.77
-89.93
-68.41
-41.23
-12.55
13.59
34.41
48.80
57.09
60.45
60.22
57.54
53.32
48.29
43.11
38.32
34.24
30.98
28.49
26.66
25.43
24.71
24.25
23.67
22.35
19.72
15.39
9.38
2.08
-5.86
-13.75
-21.07
-27.68
-33.78
-39.88
-46.71
-54.95
-64.96
-76.32
-87.55
-96.15
-99.18
-94.19
-80.23
-58.40
-31.68
-3.97
21.00
40.76
54.44
62.50
66.06
66.36
64.39
60.93
56.69
52.34
48.49
45.50
43.40
41.92
40.68
39.39
38.00
36.66
35.51
34.49
33.26
31.20
27.64
22.20
15.00
6.69
-1.72
-9.23
-15.18
-19.64
-23.39
-27.77
-34.26
-43.94
-56.85
-71.57
-85.33
-94.56
-96.00
-87.85
-70.50
-46.51
-19.78
5.70
26.95
42.54
52.50
57.67
59.13
57.84
54.68
50.50
46.20
42.52
39.89
38.28
37.27
36.39
35.28
33.94
32.59
31.53
30.83
30.20
28.97
26.33
21.58
14.56
5.73
-3.87
-12.97
-20.57
-26.22
-30.29
-33.79
-38.07
-44.31
-53.06
-63.80
-74.77
-83.21
-86.01
-80.75
-66.61
-44.90
-18.81
7.58
30.49
47.51
57.98
62.66
63.06
60.71
56.71
51.76
46.32
40.84
35.85
31.86
29.20
27.91
27.69
28.07
28.45
28.33
27.27
24.99
21.38
16.55
10.87
4.85
-0.91
-6.03
-10.38
-14.16
-17.83
-21.98
-27.19
-33.84
-41.83
-50.26
-57.35
-60.67
-57.80
-47.27
-29.34
-6.18
18.66
41.32
58.84
69.85
74.67
74.72
71.76
67.27
62.19
57.04
52.12
47.71
44.08
41.42
39.67
38.55
37.61
36.31
34.13
30.65
25.57
18.80
10.49
1.09
-8.67
-17.96
-26.10
-32.77
-38.14
-42.81
-47.68
-53.74
-61.82
-72.20
-84.26
-96.19
-105.16
-107.91
-101.89
-86.31
-62.75
-34.86
-7.18
16.24
33.07
42.97
47.17
47.51
45.60
42.41
38.35
33.55
28.09
22.12
15.77
9.15
2.36
-4.47
-11.06
-17.09
-22.31
-26.71
-30.57
-34.39
-38.69
-43.78
-49.65
-55.99
-62.32
-68.20
-73.37
-77.85
-82.02
-86.53
-92.11
-99.19
-107.34
-114.96
-119.35
-117.40
-106.78
-86.98
-59.85
-29.14
0.70
25.88
44.33
55.82
61.40
62.54
60.48
56.07
49.96
42.92
35.93
29.96
25.62
22.91
21.31
20.03
18.45
16.35
13.93
11.50
9.18
6.67
3.35
-1.40
-7.91
-15.93
-24.64
-32.94
-39.80
-44.72
-47.83
-50.01
-52.62
-57.04
-64.06
-73.31
-82.99
-90.10
-91.37
-84.32
-68.38
-45.23
-18.35
8.12
30.70
47.40
57.93
63.26
64.80
63.80
61.09
57.15
52.36
47.24
42.47
38.72
36.40
35.48
35.48
35.69
35.47
34.54
32.96
31.06
29.18
27.46
25.81
24.04
22.06
20.04
18.42
17.71
18.23
19.82
21.79
22.98
22.18
18.58
12.09
3.51
-5.89
-14.73
-22.12
-27.80
-32.23
-36.24
-40.84
-46.94
-55.09
-65.10
-75.78
-84.82
-89.22
-86.20
-74.27
-54.01
-28.06
-0.39
24.96
44.98
58.33
65.26
66.95
64.92
60.45
54.54
47.89
41.12
34.80
29.39
25.20
22.27
20.40
19.17
18.12
16.78
14.82
12.03
8.29
3.53
-2.29
-9.15
-16.93
-25.40
-34.23
-43.05
-51.63
-60.02
-68.59
-77.93
-88.40
-99.66
-110.23
-117.60
-118.85
-111.73
-95.64
-72.14
-44.66
-17.36
6.07
23.46
34.50
40.31
42.65
43.14
42.85
42.21
41.29
39.97
38.16
35.81
32.91
29.49
25.70
21.84
18.35
15.66
13.94
12.97
12.16
10.77
8.21
4.30
-0.70
-6.30
-12.01
-17.66
-23.53
-30.34
-39.14
-50.94
-66.16
-84.08
-102.49
-117.81
-125.97
-123.64
-109.57
-85.11
-53.93
-20.71
10.38
36.78
57.88
74.51
88.08
99.79
110.29
119.62
127.54
133.62
137.35
138.22
135.78
129.79
120.38
108.17
94.17
79.66
65.83
53.56
43.24
34.75
27.76
21.88
16.99
13.22
10.82
9.90
10.19
11.05
11.45
10.28
6.46
-0.60
-10.75
-22.67
-33.90
-41.19
-41.46
-32.93
-15.97
6.93
31.84
54.70
72.47
83.79
88.74
88.27
83.43
75.12
64.09
51.26
37.84
25.21
14.58
6.60
1.19
-2.29
-4.71
-6.75
-8.68
-10.52
-12.20
-13.95
-16.25
-19.71
-24.71
-31.12
-38.25
-45.12
-50.83
-54.91
-57.52
-59.41
-61.71
-65.60
-71.89
-80.61
-90.59
-99.50
-104.22
-101.84
-90.61
-70.79
-44.75
-16.29
10.51
32.42
47.78
56.54
59.76
58.94
55.45
50.38
44.50
38.46
32.83
28.03
24.28
21.50
19.35
17.47
15.61
13.77
12.07
10.59
9.19
7.44
4.73
0.62
-4.96
-11.59
-18.55
-25.06
-30.68
-35.50
-40.18
-45.81
-53.38
-63.31
-74.91
-86.16
-94.04
-95.35
-87.83
-71.06
-46.86
-18.79
8.92
32.62
50.12
60.91
65.81
66.18
63.44
58.71
52.89
46.72
40.86
35.81
31.90
29.24
27.81
27.52
28.26
29.78
31.65
33.18
33.55
32.03
28.24
22.28
14.63
6.01
-2.90
-11.61
-19.98
-28.30
-37.22
-47.56
-59.81
-73.66
-87.52
-98.62
-103.66
-99.88
-86.14
-63.59
-35.43
-5.94
20.81
41.98
56.54
64.97
68.70
69.40
68.46
66.77
64.80
62.74
60.63
58.54
56.55
54.80
53.44
52.56
52.16
52.02
51.69
50.61
48.24
44.24
38.62
31.72
24.06
16.20
8.50
1.01
-6.46
-14.43
-23.59
-34.62
-47.78
-62.40
-76.66
-87.61
-92.01
-87.41
-73.23
-51.24
-25.16
0.55
22.01
36.96
45.05
47.34
45.53
41.22
35.61
29.46
23.32
17.66
12.78
8.77
5.42
2.36
-0.77
-4.08
-7.42
-10.46
-13.01
-15.19
-17.48
-20.52
-24.77
-30.21
-36.33
-42.28
-47.25
-50.84
-53.20
-55.04
-57.44
-61.49
-67.81
-76.15
-85.07
-92.05
-94.04
-88.38
-73.89
-51.49
-24.07
4.27
29.60
49.19
62.05
68.66
70.35
68.55
64.36
58.65
52.14
45.61
39.79
35.22
31.95
29.64
27.72
25.77
23.70
21.77
20.28
19.22
18.14
16.21
12.67
7.18
0.11
-7.66
-15.03
-21.20
-25.94
-29.59
-33.00
-37.17
-43.03
-51.09
-61.06
-71.60
-80.28
-84.12
-80.44
-67.90
-47.24
-21.14
6.44
31.49
51.07
63.86
70.06
70.89
67.88
62.39
55.44
47.80
40.07
32.84
26.63
21.82
18.56
16.79
16.23
16.47
17.04
17.44
17.17
15.78
12.94
8.54
2.80
-3.85
-10.82
-17.58
-23.78
-29.40
-34.77
-40.48
-47.23
-55.43
-64.77
-73.85
-80.32
-81.36
-74.67
-59.53
-37.31
-11.21
14.65
36.53
52.08
60.68
63.11
60.83
55.34
47.87
39.42
30.84
22.98
16.54
11.93
9.20
8.05
8.00
8.52
9.19
9.58
9.32
8.06
5.53
1.65
-3.43
-9.35
-15.59
-21.69
-27.30
-32.35
-37.09
-42.10
-48.13
-55.84
-65.36
-75.88
-85.37
-90.99
-89.85
-80.06
-61.64
-36.75
-9.10
17.17
38.71
53.75
62.16
64.95
63.51
59.16
52.93
45.70
38.34
31.66
26.25
22.31
19.56
17.50
15.64
13.77
12.03
10.66
9.77
9.15
8.32
6.77
4.24
0.89
-2.80
-6.24
-9.06
-11.29
-13.40
-16.16
-20.44
-26.94
-35.82
-46.41
-56.88
-64.50
-66.20
-59.61
-44.02
-20.90
6.44
33.74
57.20
74.47
85.02
89.83
90.58
88.95
86.17
82.98
79.88
77.26
75.51
74.87
75.36
76.73
78.49
80.06
80.92
80.59
78.55
74.16
66.67
55.33
39.80
20.40
-1.84
-25.23
-48.02
-68.90
-87.40
-104.04
-120.09
-136.99
-155.71
-176.09
-196.43
-213.65
-224.02
-224.40
-213.40
-192.19
-164.34
-134.77
-108.23
-87.80
-74.26
-66.23
-61.23
-56.81
-51.47
-44.81
-37.18
-29.05
-20.50
-11.12
-0.31
12.32
26.61
41.84
57.02
71.00
82.78
91.38
95.91
95.60
90.09
79.74
65.77
50.13
35.03
22.29
12.90
6.65
2.34
-1.69
-6.89
-13.65
-20.90
-26.17
-26.44
-19.19
-3.64
18.83
44.93
70.48
91.75
106.47
114.17
115.81
113.00
107.18
99.22
89.36
77.66
64.28
49.78
35.05
21.12
8.81
-1.52
-10.13
-17.73
-25.30
-33.71
-43.47
-54.61
-66.78
-79.40
-91.92
-103.96
-115.34
-126.06
-136.23
-146.22
-156.57
-167.79
-179.94
-192.07
-201.97
-206.46
-202.34
-187.57
-162.28
-128.95
-91.68
-54.92
-22.27
4.23
24.04
37.61
45.81
49.56
49.84
47.76
44.44
40.92
37.87
35.63
34.27
33.84
34.39
35.87
37.86
39.48
39.60
37.16
31.65
23.26
12.79
1.27
-10.38
-21.62
-32.33
-42.86
-53.83
-65.96
-79.65
-94.39
-108.45
-118.86
-122.15
-115.49
-97.78
-70.34
-36.67
-1.49
30.55
56.06
73.56
83.43
87.34
87.42
85.56
82.96
80.11
77.02
73.59
69.91
66.28
63.13
60.76
59.23
58.26
57.43
56.30
54.49
51.79
48.12
43.49
37.94
31.59
24.55
16.91
8.70
-0.23
-10.27
-21.93
-35.52
-50.65
-65.85
-78.52
-85.44
-83.82
-72.39
-52.03
-25.74
2.27
27.80
47.85
61.21
68.26
70.40
69.21
65.99
61.55
56.43
51.12
46.10
41.83
38.57
36.35
34.98
34.30
34.24
34.84
35.98
37.29
38.07
37.52
35.13
30.84
25.11
18.64
12.02
5.40
-1.63
-9.87
-20.23
-33.20
-48.39
-64.19
-77.85
-85.95
-85.36
-74.30
-53.03
-24.00
8.84
41.12
69.23
91.02
105.96
114.74
118.64
118.95
116.65
112.40
106.79
100.48
94.30
89.19
85.85
84.50
84.71
85.54
85.86
84.74
81.83
77.33
71.84
65.99
60.13
54.28
48.12
41.19
33.08
23.47
12.22
-0.52
-14.11
-27.18
-37.64
-43.04
-41.28
-31.35
-13.95
8.56
32.75
55.05
72.74
84.54
90.62
92.16
90.74
87.67
83.80
79.44
74.76
69.92
65.31
61.43
58.65
57.02
56.16
55.37
53.95
51.37
47.47
42.33
36.20
29.35
21.97
14.22
6.21
-1.97
-10.39
-19.28
-29.02
-40.02
-52.27
-65.00
-76.48
-84.28
-86.05
-80.38
-67.53
-49.43
-29.15
-9.84
6.18
17.86
25.33
29.42
31.10
31.09
29.81
27.43
24.02
19.72
14.70
9.27
3.79
-1.31
-5.69
-9.13
-11.64
-13.47
-15.04
-16.79
-19.10
-22.17
-25.93
-30.14
-34.38
-38.33
-41.85
-45.15
-48.82
-53.68
-60.47
-69.42
-79.75
-89.58
-96.17
-96.72
-89.32
-73.74
-51.64
-26.08
-0.62
21.72
39.08
50.92
57.72
60.51
60.46
58.63
55.86
52.78
49.80
47.16
44.95
43.18
41.85
40.92
40.32
39.90
39.40
38.52
36.94
34.45
30.94
26.46
21.19
15.40
9.37
3.36
-2.55
-8.46
-14.73
-21.87
-30.27
-39.82
-49.54
-57.51
-61.29
-58.70
-48.76
-32.17
-11.34
10.40
29.80
44.70
54.37
59.34
60.83
60.13
58.21
55.61
52.50
48.88
44.69
39.96
34.84
29.65
24.77
20.54
17.04
14.09
11.29
8.13
4.18
-0.85
-7.02
-14.22
-22.18
-30.51
-38.73
-46.42
-53.37
-59.71
-65.91
-72.53
-79.87
-87.44
-93.85
-97.03
-94.86
-86.09
-70.99
-51.41
-30.39
-11.08
4.10
14.12
19.24
20.56
19.34
16.61
12.97
8.76
4.28
-0.06
-3.78
-6.45
-7.83
-7.92
-7.01
-5.52
-3.93
-2.64
-1.90
-1.84
-2.45
-3.69
-5.49
-7.78
-10.47
-13.50
-16.84
-20.59
-24.99
-30.29
-36.52
-43.14
-48.90
-51.93
-50.30
-42.72
-29.19
-11.22
8.51
26.94
41.49
50.78
54.71
54.19
50.55
45.02
38.43
31.30
24.07
17.30
11.70
7.87
6.06
5.97
6.81
7.64
7.64
6.48
4.34
1.66
-1.08
-3.67
-6.25
-9.22
-13.11
-18.34
-25.20
-33.69
-43.51
-53.95
-63.73
-71.08
-73.98
-70.71
-60.57
-44.27
-24.03
-2.97
15.71
29.69
37.94
40.73
39.13
34.42
27.67
19.64
10.96
2.32
-5.38
-11.26
-14.66
-15.47
-14.22
-11.94
-9.92
-9.22
-10.41
-13.51
-18.04
-23.37
-28.96
-34.67
-40.64
-47.31
-55.10
-64.30
-74.94
-86.63
-98.37
-108.57
-115.12
-115.94
-109.63
-96.14
-77.03
-55.13
-33.66
-15.37
-1.75
6.96
11.49
12.90
12.13
9.79
6.30
2.02
-2.55
-6.77
-9.98
-11.71
-11.89
-10.85
-9.29
-7.94
-7.31
-7.50
-8.21
-8.97
-9.40
-9.45
-9.37
-9.66
-10.86
-13.41
-17.51
-23.02
-29.32
-35.22
-38.99
-38.82
-33.32
-22.16
-6.34
11.99
30.13
45.68
57.10
63.98
66.73
66.21
63.24
58.48
52.46
45.73
38.89
32.58
27.33
23.38
20.64
18.70
16.94
14.79
11.95
8.43
4.66
1.18
-1.58
-3.59
-5.33
-7.72
-11.75
-18.11
-26.81
-37.00
-46.96
-54.40
-57.09
-53.47
-43.31
-27.91
-9.78
8.01
22.80
32.98
38.25
39.33
37.42
33.62
28.67
22.97
16.81
10.61
4.96
0.53
-2.25
-3.33
-3.18
-2.62
-2.56
-3.60
-5.82
-8.80
-11.91
-14.62
-16.85
-19.02
-21.91
-26.32
-32.82
-41.49
-51.79
-62.49
-71.74
-77.33
-77.21
-70.14
-56.27
-37.21
-15.71
5.13
22.71
35.49
43.22
46.51
46.38
43.78
39.36
33.50
26.62
19.29
12.38
6.80
3.25
1.87
2.15
3.06
3.46
2.51
-0.01
-3.70
-7.79
-11.55
-14.68
-17.37
-20.25
-24.11
-29.60
-37.04
-46.24
-56.38
-65.92
-72.71
-74.42
-69.19
-56.44
-37.28
-14.40
8.65
28.67
43.60
52.94
57.38
58.10
56.13
52.07
46.24
39.07
31.28
23.94
18.09
14.40
12.95
13.10
13.83
14.02
12.89
10.17
6.14
1.37
-3.54
-8.25
-12.82
-17.65
-23.37
-30.61
-39.71
-50.57
-62.34
-73.34
-81.28
-83.73
-78.89
-66.27
-47.08
-23.92
-0.11
21.25
38.03
49.38
55.56
57.48
56.20
52.61
47.43
41.26
34.77
28.77
24.05
21.19
20.32
20.97
22.19
22.83
21.98
19.25
14.84
9.38
3.59
-2.07
-7.51
-13.01
-19.05
-26.11
-34.59
-44.59
-55.74
-66.99
-76.47
-81.77
-80.60
-71.60
-55.03
-32.96
-8.71
14.18
32.98
46.39
54.53
58.37
59.08
57.56
54.34
49.77
44.37
38.84
34.09
30.87
29.53
29.82
30.98
31.98
31.86
30.04
26.41
21.34
15.41
9.20
3.04
-3.05
-9.27
-15.95
-23.46
-32.14
-42.22
-53.64
-65.70
-76.81
-84.64
-86.54
-80.47
-65.86
-44.11
-18.27
7.77
30.47
47.61
58.61
64.30
66.13
65.46
63.13
59.52
54.75
49.12
43.23
37.94
34.10
32.16
32.06
33.22
34.69
35.51
34.91
32.54
28.43
22.98
16.67
9.99
3.20
-3.65
-10.69
-18.19
-26.47
-35.79
-46.13
-56.83
-66.42
-72.66
-73.09
-65.85
-50.51
-28.49
-2.80
22.92
45.39
62.58
73.93
80.08
82.32
81.95
80.00
77.13
73.74
70.14
66.62
63.53
61.21
59.94
59.76
60.47
61.51
62.20
61.86
60.05
56.69
52.03
46.51
40.56
34.43
28.18
21.70
14.77
7.09
-1.63
-11.57
-22.52
-33.60
-43.04
-48.50
-47.68
-39.29
-23.73
-3.23
18.78
38.74
54.04
63.59
67.82
67.95
65.35
60.99
55.37
48.75
41.44
33.98
27.10
21.54
17.82
16.04
15.91
16.73
17.69
17.99
17.05
14.57
10.53
5.17
-1.12
-7.84
-14.48
-20.68
-26.36
-31.88
-38.03
-45.81
-55.92
-68.19
-81.14
-92.13
-97.98
-96.03
-85.19
-66.45
-42.65
-17.59
5.21
23.47
36.52
44.99
50.11
53.12
54.81
55.53
55.38
54.43
52.86
50.86
48.54
45.90
42.72
38.76
33.78
27.72
20.72
13.15
5.48
-1.82
-8.42
-14.15
-18.96
-22.82
-25.74
-27.88
-29.71
-32.01
-35.65
-41.00
-47.48
-53.31
-55.89
-52.71
-42.41
-25.46
-4.13
18.19
38.15
53.34
62.75
66.66
66.02
61.94
55.30
46.80
37.10
27.07
17.70
9.94
4.43
1.27
-0.03
-0.34
-0.63
-1.67
-3.85
-7.10
-11.08
-15.32
-19.42
-23.22
-26.81
-30.53
-34.90
-40.50
-47.84
-57.14
-68.01
-79.25
-88.84
-94.26
-93.28
-84.67
-68.90
-48.11
-25.58
-4.80
11.49
21.88
26.33
25.71
21.33
14.36
5.77
-3.66
-13.12
-21.70
-28.40
-32.42
-33.46
-31.88
-28.63
-25.06
-22.39
-21.35
-22.03
-23.92
-26.28
-28.50
-30.42
-32.29
-34.68
-38.20
-43.29
-50.02
-58.07
-66.51
-73.80
-77.91
-76.65
-68.44
-52.87
-31.18
-6.14
18.73
40.09
55.73
64.95
68.35
67.14
62.57
55.43
46.22
35.42
23.83
12.65
3.19
-3.55
-7.28
-8.55
-8.46
-8.22
-8.66
-10.00
-11.86
-13.64
-14.85
-15.38
-15.53
-15.87
-17.00
-19.40
-23.31
-28.68
-35.00
-41.21
-45.67
-46.42
-41.83
-31.19
-15.25
3.88
23.28
40.12
52.49
59.79
62.53
61.78
58.50
53.30
46.44
38.18
29.16
20.44
13.23
8.46
6.40
6.60
8.10
9.86
11.14
11.71
11.71
11.43
10.99
10.23
8.78
6.12
1.77
-4.56
-12.84
-22.58
-32.70
-41.51
-46.88
-46.81
-40.03
-26.52
-7.69
13.99
35.66
54.88
70.10
80.69
86.71
88.49
86.41
80.93
72.84
63.29
53.78
45.73
40.07
36.93
35.64
35.03
33.99
31.85
28.61
24.84
21.33
18.57
16.55
14.65
11.89
7.31
0.34
-8.88
-19.37
-29.36
-36.68
-39.37
-36.35
-27.86
-15.48
-1.72
10.80
20.15
25.43
26.76
24.78
20.30
13.96
6.34
-1.87
-9.72
-16.16
-20.35
-22.03
-21.68
-20.30
-19.04
-18.74
-19.66
-21.50
-23.69
-25.67
-27.28
-28.79
-30.86
-34.36
-40.03
-48.21
-58.49
-69.55
-79.17
-84.75
-83.98
-75.80
-60.81
-41.27
-20.35
-1.13
14.26
24.95
31.14
33.45
32.43
28.39
21.64
12.87
3.33
-5.35
-11.72
-15.07
-15.76
-14.94
-14.15
-14.60
-16.70
-20.00
-23.59
-26.58
-28.57
-29.85
-31.21
-33.70
-38.18
-45.04
-54.00
-63.96
-73.05
-78.93
-79.36
-72.96
-59.74
-41.31
-20.42
-0.13
17.10
29.89
37.91
41.50
41.16
37.33
30.54
21.65
11.98
3.08
-3.64
-7.51
-8.72
-8.23
-7.32
-7.06
-7.95
-9.89
-12.35
-14.81
-16.95
-18.94
-21.31
-24.85
-30.37
-38.40
-48.78
-60.44
-71.31
-78.67
-79.92
-73.46
-59.42
-39.72
-17.48
3.96
22.06
35.54
44.25
48.71
49.45
46.90
41.48
33.90
25.38
17.41
11.36
7.85
6.62
6.55
6.26
4.68
1.53
-2.74
-7.20
-11.09
-14.21
-17.04
-20.56
-25.83
-33.63
-44.23
-57.15
-71.02
-83.62
-92.16
-93.97
-87.46
-72.79
-52.13
-29.01
-7.17
10.62
23.21
30.94
34.87
35.97
34.63
30.89
24.84
17.12
8.97
1.89
-2.99
-5.32
-5.63
-5.00
-4.50
-4.71
-5.57
-6.57
-7.14
-7.01
-6.44
-6.14
-7.04
-10.12
-16.13
-25.57
-38.40
-53.83
-70.06
-84.31
-93.35
-94.37
-85.92
-68.61
-44.97
-18.72
6.36
27.54
43.61
54.77
62.02
66.43
68.64
68.85
67.07
63.55
58.95
54.26
50.47
48.09
46.99
46.44
45.42
43.06
38.91
33.08
26.06
18.47
10.84
3.43
-3.71
-10.80
-18.20
-26.46
-36.12
-47.54
-60.46
-73.65
-84.85
-91.10
-89.65
-78.89
-59.21
-33.07
-4.36
22.74
45.01
60.88
70.46
74.91
75.74
74.11
70.64
65.65
59.45
52.70
46.33
41.35
38.43
37.58
38.11
38.89
38.77
37.00
33.38
28.34
22.60
16.83
11.43
6.36
1.24
-4.47
-11.32
-19.81
-30.22
-42.45
-55.73
-68.35
-77.68
-80.73
-75.01
-59.61
-35.77
-6.70
23.27
50.01
70.78
84.68
92.45
95.65
95.88
94.23
91.27
87.31
82.65
77.80
73.37
69.85
67.46
66.01
65.01
63.82
61.92
58.99
54.99
50.09
44.54
38.58
32.34
25.86
19.16
12.25
5.12
-2.41
-10.72
-20.34
-31.54
-43.77
-55.35
-63.61
-65.71
-59.78
-45.86
-26.20
-4.54
15.20
30.16
39.30
43.21
43.35
41.19
37.65
33.10
27.74
21.85
16.08
11.24
8.05
6.83
7.35
8.89
10.50
11.31
10.85
9.10
6.50
3.58
0.71
-2.11
-5.26
-9.19
-14.23
-20.46
-27.82
-36.21
-45.42
-54.89
-63.38
-68.88
-69.06
-62.12
-47.64
-27.07
-3.40
19.75
39.34
53.67
62.52
66.73
67.40
65.33
60.90
54.29
45.90
36.55
27.42
19.70
14.15
10.79
9.01
7.82
6.39
4.28
1.56
-1.37
-4.19
-6.85
-9.57
-12.75
-16.71
-21.60
-27.49
-34.54
-43.06
-53.19
-64.46
-75.27
-82.98
-84.52
-77.49
-61.27
-37.44
-9.41
18.71
43.30
62.15
74.54
80.83
81.79
78.15
70.51
59.62
46.67
33.33
21.50
12.80
8.05
7.06
8.76
11.65
14.38
16.14
16.74
16.37
15.27
13.45
10.57
6.13
-0.30
-8.90
-19.48
-31.47
-43.90
-55.31
-63.83
-67.40
-64.31
-53.82
-36.62
-14.90
8.23
29.57
46.78
58.83
65.90
68.81
68.32
64.85
58.54
49.64
38.97
27.90
18.06
10.78
6.60
5.10
5.11
5.28
4.50
2.31
-1.13
-5.30
-9.67
-14.01
-18.50
-23.62
-29.88
-37.58
-46.55
-56.12
-65.07
-71.78
-74.44
-71.49
-62.15
-46.80
-27.22
-6.14
13.42
29.07
39.73
45.60
47.79
47.54
45.67
42.39
37.58
31.22
23.72
15.97
9.04
3.84
0.66
-0.84
-1.54
-2.43
-4.25
-7.24
-11.06
-15.06
-18.56
-21.18
-22.99
-24.53
-26.62
-30.25
-36.21
-44.75
-55.23
-65.94
-74.41
-77.83
-73.86
-61.28
-40.43
-13.41
16.32
44.57
67.34
82.01
88.25
88.21
85.65
84.19
85.61
89.09
91.83
90.69
83.78
71.00
53.62
33.37
11.80
-9.71
-29.72
-47.01
-61.28
-73.76
-87.11
-104.09
-125.80
-150.38
-173.25
-188.88
-193.25
-185.32
-167.30
-143.42
-117.99
-93.91
-71.83
-50.20
-25.81
4.94
44.37
91.82
142.30
186.97
215.31
218.85
195.01
149.23
94.11
45.53
16.91
14.12
33.62
64.26
92.01
105.21
97.89
70.38
27.55
-23.67
-76.17
-123.49
-160.10
-181.70
-186.18
-174.59
-151.31
-123.10
-96.98
-78.05
-67.95
-64.83
-64.44
-61.86
-53.31
-37.22
-14.54
11.91
38.58
62.31
81.06
94.06
101.49
103.95
102.13
96.69
88.26
77.54
65.27
52.23
39.20
27.00
16.38
7.95
1.95
-1.83
-4.08
-5.77
-7.84
-10.98
-15.33
-20.60
-26.09
-30.99
-34.64
-36.80
-37.71
-37.93
-38.17
-39.03
-40.72
-42.90
-44.61
-44.51
-41.25
-33.94
-22.44
-7.42
9.85
27.88
45.36
61.29
74.92
85.43
91.86
93.41
89.81
81.61
70.20
57.44
45.31
35.21
27.56
21.78
16.93
12.24
7.43
2.59
-2.05
-6.33
-10.46
-15.31
-21.98
-31.02
-41.87
-53.16
-63.56
-72.43
-79.66
-85.67
-91.34
-97.34
-103.24
-107.25
-107.11
-101.36
-89.64
-71.99
-48.30
-19.53
12.04
42.84
69.16
87.71
96.50
91.95
74.13
48.34
21.20
-3.80
-27.10
-49.13
-66.84
-74.33
-64.63
-33.03
21.07
91.51
167.77
235.87
284.25
306.75
303.29
279.13
235.85
182.64
131.61
92.46
68.59
58.06
56.79
61.15
68.87
77.85
87.21
95.13
99.44
99.38
95.62
90.13
84.87
80.64
76.38
71.39
64.59
54.95
41.92
25.63
6.41
-16.36
-39.72
-62.74
-84.66
-106.02
-128.50
-153.74
-181.33
-207.24
-224.72
-226.93
-211.03
-178.92
-136.70
-91.53
-48.21
-7.97
30.06
65.77
96.41
116.99
124.14
118.74
106.26
94.17
88.13
89.34
94.85
100.06
101.22
97.23
89.09
78.27
65.33
49.32
28.33
0.71
-33.89
-74.25
-117.70
-160.97
-201.37
-237.53
-269.79
-299.87
-330.35
-363.79
-401.90
-444.37
-488.17
-527.53
-555.22
-564.69
-552.48
-519.69
-471.74
-416.44
-361.26
-311.06
-267.44
-229.56
-195.88
-165.53
-138.55
-115.12
-94.63
-75.09
-53.50
-26.92
6.66
47.88
96.48
151.68
212.12
275.16
336.18
388.77
426.25
443.99
441.26
421.52
390.92
355.72
320.17
285.82
252.44
219.48
187.12
156.20
127.29
99.95
72.63
43.77
12.98
-18.07
-45.83
-65.91
-74.81
-71.30
-57.01
-35.90
-12.77
8.26
25.00
37.30
46.34
53.53
59.56
64.14
66.35
65.45
61.45
55.25
48.34
42.22
37.82
35.29
34.13
33.43
32.31
30.12
26.61
21.92
16.41
10.53
4.67
-0.91
-6.15
-11.07
-15.81
-20.63
-26.00
-32.46
-40.40
-49.56
-58.74
-65.70
-67.83
-63.07
-50.78
-32.24
-10.29
11.60
30.45
44.52
53.50
58.04
59.13
57.56
53.77
47.99
40.57
32.21
23.92
16.82
11.78
9.16
8.66
9.47
10.58
11.03
10.29
8.21
5.08
1.34
-2.55
-6.25
-9.63
-12.82
-16.16
-20.17
-25.42
-32.17
-40.10
-48.07
-54.16
-56.17
-52.36
-42.14
-26.45
-7.59
11.52
28.24
40.86
48.90
52.81
53.44
51.56
47.69
42.06
35.00
27.09
19.24
12.48
7.65
5.09
4.44
4.87
5.33
4.94
3.28
0.42
-3.25
-7.28
-11.43
-15.73
-20.46
-25.99
-32.68
-40.74
-50.20
-60.60
-70.91
-79.40
-83.91
-82.44
-73.86
-58.53
-38.32
-16.13
4.99
22.70
35.90
44.62
49.60
51.75
51.76
50.00
46.79
42.47
37.60
32.84
28.81
25.87
24.06
23.08
22.47
21.74
20.48
18.45
15.65
12.16
8.15
3.77
-0.96
-6.10
-11.80
-18.27
-25.75
-34.42
-44.13
-54.20
-63.20
-69.16
-70.00
-64.23
-51.65
-33.58
-12.58
8.29
26.41
40.17
49.22
54.15
55.95
55.60
53.78
50.99
47.51
43.64
39.64
35.78
32.30
29.42
27.21
25.61
24.37
23.05
21.18
18.38
14.54
9.80
4.51
-0.98
-6.42
-11.82
-17.39
-23.44
-30.32
-38.31
-47.39
-57.12
-66.33
-73.24
-75.77
-72.15
-61.58
-44.70
-23.55
-1.01
19.94
37.06
49.22
56.40
59.36
59.20
56.97
53.53
49.49
45.31
41.32
37.79
34.87
32.56
30.79
29.39
28.21
27.13
25.99
24.59
22.60
19.65
15.44
9.89
3.25
-3.94
-11.03
-17.49
-23.18
-28.39
-33.76
-40.00
-47.52
-55.98
-64.17
-70.03
-71.31
-66.22
-54.25
-36.46
-15.28
6.24
25.32
40.13
50.08
55.57
57.46
56.69
54.02
50.06
45.37
40.50
35.98
32.19
29.28
27.17
25.63
24.46
23.55
22.88
22.40
21.94
21.07
19.25
16.04
11.26
5.17
-1.60
-8.29
-14.25
-19.15
-23.11
-26.68
-30.65
-35.86
-42.80
-51.22
-59.91
-66.78
-69.34
-65.54
-54.57
-37.27
-16.03
5.97
25.69
41.01
51.09
56.17
57.10
54.84
50.23
44.01
37.02
30.31
24.96
21.77
20.89
21.72
23.09
23.75
22.95
20.63
17.35
13.85
10.55
7.30
3.50
-1.42
-7.65
-14.73
-21.73
-27.69
-32.06
-34.91
-36.94
-39.13
-42.47
-47.62
-54.64
-62.89
-70.91
-76.60
-77.65
-72.28
-59.90
-41.54
-19.70
2.35
21.53
35.76
44.26
47.39
46.19
41.90
35.67
28.52
21.44
15.27
10.66
7.92
6.96
7.42
8.77
10.52
12.28
13.77
14.68
14.78
13.84
11.76
8.67
4.85
0.66
-3.51
-7.40
-10.98
-14.36
-17.86
-21.92
-26.97
-33.19
-40.28
-47.20
-52.15
-53.05
-48.17
-36.90
-20.21
-0.46
19.24
36.00
47.93
54.42
55.96
53.58
48.42
41.44
33.49
25.34
17.79
11.58
7.20
4.78
4.11
4.69
5.96
7.34
8.33
8.53
7.60
5.32
1.63
-3.27
-8.96
-14.86
-20.46
-25.41
-29.74
-33.74
-37.94
-42.94
-49.14
-56.43
-63.95
-70.02
-72.44
-69.16
-59.08
-42.66
-22.00
-0.25
19.33
34.40
43.98
48.42
48.80
46.35
42.05
36.54
30.36
24.03
18.20
13.46
10.24
8.65
8.48
9.24
10.29
11.03
10.92
9.63
7.04
3.24
-1.51
-6.91
-12.66
-18.59
-24.65
-30.87
-37.32
-44.15
-51.51
-59.49
-67.91
-76.02
-82.36
-84.96
-81.82
-71.78
-55.17
-33.96
-11.30
9.48
25.85
36.64
42.12
43.46
42.09
39.17
35.42
31.24
26.86
22.59
18.76
15.74
13.77
12.86
12.78
13.10
13.28
12.83
11.36
8.70
4.83
-0.03
-5.56
-11.35
-17.02
-22.26
-27.04
-31.49
-36.01
-41.15
-47.34
-54.67
-62.52
-69.45
-73.41
-72.33
-64.85
-51.01
-32.39
-11.74
7.91
24.16
35.79
42.81
46.05
46.56
45.20
42.53
38.93
34.77
30.49
26.54
23.26
20.70
18.73
17.15
15.81
14.62
13.53
12.35
10.69
8.05
4.02
-1.48
-8.09
-15.05
-21.52
-26.94
-31.20
-34.76
-38.44
-43.13
-49.47
-57.53
-66.54
-74.82
-80.01
-79.77
-72.48
-57.97
-37.73
-14.63
8.01
27.32
41.61
50.53
54.72
55.33
53.46
50.01
45.66
40.98
36.52
32.73
29.92
28.12
27.15
26.70
26.46
26.18
25.73
24.94
23.50
21.06
17.26
11.94
5.29
-2.15
-9.69
-16.67
-22.70
-27.77
-32.31
-37.01
-42.65
-49.82
-58.59
-68.20
-76.91
-82.26
-81.78
-73.85
-58.37
-37.07
-13.03
10.20
29.66
43.70
52.12
55.76
55.87
53.64
49.93
45.36
40.41
35.59
31.37
28.13
25.98
24.84
24.42
24.40
24.48
24.41
23.93
22.74
20.50
16.89
11.78
5.30
-2.18
-10.02
-17.55
-24.24
-29.96
-35.08
-40.44
-46.98
-55.26
-64.82
-74.00
-80.13
-80.43
-73.01
-57.73
-36.40
-12.24
11.16
30.87
45.25
54.09
58.09
58.37
56.02
51.96
46.94
41.64
36.72
32.69
29.83
28.18
27.51
27.43
27.56
27.52
27.00
25.71
23.37
19.77
14.81
8.61
1.46
-6.17
-13.72
-20.75
-26.95
-32.33
-37.27
-42.59
-49.22
-57.87
-68.35
-79.23
-87.92
-91.33
-86.98
-74.02
-53.71
-29.00
-3.64
19.06
37.04
49.64
57.29
60.94
61.60
60.16
57.41
54.15
51.09
48.77
47.34
46.60
46.06
45.18
43.66
41.50
39.00
36.57
34.43
32.48
30.28
27.12
22.43
15.99
8.08
-0.55
-8.97
-16.38
-22.43
-27.35
-31.85
-36.97
-43.64
-52.37
-62.71
-73.18
-81.46
-84.91
-81.52
-70.59
-53.08
-31.28
-8.19
13.42
31.59
45.41
54.86
60.41
62.76
62.66
60.84
58.05
54.99
52.21
50.10
48.75
47.93
47.22
46.16
44.41
42.00
39.28
36.69
34.50
32.55
30.22
26.74
21.54
14.57
6.41
-1.95
-9.52
-15.65
-20.37
-24.25
-28.24
-33.35
-40.34
-49.45
-60.09
-70.78
-79.23
-82.84
-79.49
-68.35
-50.35
-28.04
-4.79
16.23
32.97
44.85
52.42
56.72
58.63
58.64
56.99
53.93
50.01
46.04
42.84
40.86
40.04
39.89
39.74
39.08
37.79
36.08
34.26
32.47
30.49
27.82
23.91
18.48
11.69
4.17
-3.25
-9.84
-15.23
-19.49
-23.11
-26.86
-31.60
-38.06
-46.47
-56.32
-66.14
-73.66
-76.40
-72.41
-61.14
-43.63
-22.35
-0.40
19.41
35.21
46.34
53.03
56.04
56.16
54.10
50.50
46.09
41.72
38.19
36.08
35.37
35.58
35.90
35.64
34.49
32.65
30.53
28.45
26.30
23.51
19.39
13.51
5.99
-2.42
-10.65
-17.72
-23.08
-26.78
-29.42
-31.89
-35.15
-39.93
-46.50
-54.47
-62.59
-68.91
-71.12
-67.29
-56.65
-39.98
-19.58
1.42
20.04
34.21
43.19
47.37
47.78
45.60
41.76
37.05
32.10
27.53
23.86
21.39
20.09
19.69
19.73
19.84
19.80
19.53
18.95
17.88
16.04
13.13
9.01
3.79
-2.18
-8.38
-14.29
-19.55
-24.01
-27.89
-31.76
-36.38
-42.49
-50.32
-59.20
-67.44
-72.62
-72.35
-65.18
-51.24
-32.38
-11.55
8.10
24.18
35.57
42.39
45.53
46.01
44.61
41.81
37.98
33.59
29.33
25.91
23.75
22.86
22.79
22.85
22.49
21.52
20.15
18.77
17.66
16.66
15.25
12.69
8.45
2.50
-4.54
-11.62
-17.61
-21.76
-24.00
-24.94
-25.68
-27.48
-31.35
-37.62
-45.73
-54.15
-60.73
-63.28
-60.34
-51.74
-38.64
-23.14
-7.31
7.47
20.97
33.78
46.79
60.53
74.78
88.64
101.08
111.52
120.30
128.57
137.83
149.25
163.11
178.56
193.63
205.83
212.83
213.09
206.26
193.05
175.27
155.54
136.65
120.86
109.26
101.42
95.51
88.70
77.37
58.55
30.72
-6.00
-49.86
-97.77
-145.68
-189.16
-224.47
-250.78
-269.25
-282.44
-293.66
-306.29
-323.26
-346.28
-375.08
-406.97
-438.84
-465.29
-479.81
-477.01
-455.18
-417.34
-370.00
-320.45
-274.31
-236.78
-209.45
-190.82
-177.84
-167.77
-159.09
-151.29
-144.16
-122.24
-79.54
-20.66
41.42
94.10
131.27
153.02
162.57
164.05
161.10
153.93
143.11
130.13
117.44
107.00
100.49
98.26
99.85
104.23
108.30
110.22
109.76
108.26
107.77
110.31
117.39
130.01
148.63
168.30
184.57
193.62
193.22
183.19
165.36
142.91
119.50
98.07
79.61
64.45
52.35
43.23
37.13
33.92
32.96
33.11
32.97
31.07
26.93
20.79
13.49
6.01
-0.95
-7.26
-13.26
-19.57
-26.87
-35.46
-45.43
-56.49
-67.84
-78.05
-85.15
-86.98
-81.84
-69.28
-50.43
-28.04
-5.84
12.53
24.64
29.90
29.55
26.17
22.65
21.38
23.47
28.60
35.26
41.37
44.95
44.71
40.40
32.70
23.02
13.01
4.24
-2.11
-5.32
-5.08
-1.48
5.22
14.65
26.27
39.26
52.22
62.92
68.32
65.21
51.29
26.45
-6.47
-41.85
-72.85
-93.38
-100.16
-93.51
-76.77
-54.81
-32.23
-12.16
3.92
15.65
23.13
26.47
25.83
21.77
15.38
8.25
2.07
-1.91
-3.14
-1.89
1.06
4.75
8.40
11.47
13.69
14.81
14.51
12.35
8.02
1.49
-6.77
-15.88
-24.84
-32.84
-39.69
-45.90
-52.33
-59.69
-67.84
-75.42
-80.03
-78.98
-70.32
-53.79
-31.11
-5.62
18.69
38.41
51.49
57.62
57.88
54.18
48.49
42.37
36.82
32.29
28.95
26.77
25.66
25.48
26.00
26.90
27.80
28.26
27.82
26.09
22.78
17.82
11.39
3.98
-3.78
-11.29
-18.20
-24.51
-30.61
-37.19
-44.93
-54.25
-64.76
-75.09
-82.92
-85.48
-80.50
-67.12
-46.43
-21.33
4.30
26.78
43.60
53.96
58.57
59.00
57.04
54.11
51.10
48.37
46.03
44.02
42.34
40.97
39.93
39.14
38.43
37.60
36.39
34.60
32.06
28.66
24.35
19.09
12.94
6.05
-1.28
-8.73
-16.02
-23.16
-30.49
-38.59
-47.87
-58.12
-68.10
-75.55
-77.76
-72.54
-59.13
-38.77
-14.43
10.03
31.09
46.47
55.58
59.27
59.12
56.82
53.67
50.44
47.53
45.09
43.19
41.83
40.94
40.41
40.12
39.96
39.83
39.55
38.86
37.38
34.71
30.54
24.84
17.88
10.23
2.58
-4.47
-10.63
-15.99
-21.12
-26.91
-34.18
-43.22
-53.32
-62.63
-68.47
-68.24
-60.35
-45.04
-24.42
-1.84
19.20
36.11
47.75
54.35
56.93
56.74
54.80
51.89
48.65
45.61
43.19
41.61
40.77
40.35
40.01
39.57
39.03
38.46
37.78
36.68
34.65
31.19
26.18
19.86
12.90
6.03
-0.13
-5.33
-9.62
-13.45
-17.46
-22.40
-28.89
-37.11
-46.51
-55.57
-62.05
-63.50
-58.16
-45.65
-27.33
-5.97
15.01
32.58
44.82
51.29
52.75
50.70
46.70
42.04
37.52
33.60
30.53
28.46
27.48
27.54
28.37
29.55
30.56
31.03
30.75
29.76
28.18
26.05
23.26
19.58
14.83
9.03
2.54
-4.06
-10.21
-15.58
-20.29
-24.88
-30.14
-36.71
-44.73
-53.50
-61.44
-66.35
-66.11
-59.39
-46.31
-28.53
-8.84
9.69
24.57
34.58
39.74
40.99
39.52
36.43
32.45
28.07
23.75
19.94
17.11
15.55
15.26
15.96
17.23
18.57
19.63
20.15
19.95
18.89
16.83
13.68
9.48
4.46
-1.02
-6.52
-11.64
-16.25
-20.48
-24.77
-29.67
-35.43
-41.77
-47.58
-51.16
-50.66
-44.81
-33.47
-17.86
-0.27
16.64
30.55
40.12
45.13
46.26
44.64
41.47
37.71
34.05
30.93
28.60
27.17
26.56
26.53
26.74
26.89
26.76
26.27
25.35
23.89
21.67
18.40
13.92
8.27
1.77
-5.08
-11.75
-17.83
-23.16
-27.84
-32.22
-36.78
-41.97
-47.97
-54.45
-60.41
-64.28
-64.33
-59.26
-48.87
-34.25
-17.58
-1.50
11.73
20.76
25.44
26.48
25.06
22.30
19.00
15.64
12.45
9.54
6.98
4.83
3.16
1.95
1.12
0.58
0.19
-0.22
-0.82
-1.77
-3.29
-5.57
-8.72
-12.75
-17.43
-22.42
-27.27
-31.65
-35.39
-38.63
-41.76
-45.35
-49.92
-55.63
-61.94
-67.53
-70.52
-68.99
-61.80
-49.14
-32.56
-14.56
2.25
15.91
25.55
31.33
34.01
34.51
33.59
31.82
29.62
27.39
25.52
24.29
23.77
23.80
23.97
23.86
23.19
21.96
20.46
19.08
18.03
17.23
16.19
14.34
11.27
7.01
2.03
-2.94
-7.25
-10.59
-13.10
-15.37
-18.13
-22.12
-27.72
-34.75
-42.34
-48.91
-52.52
-51.39
-44.54
-32.27
-16.24
0.94
16.47
28.22
35.17
37.52
36.33
32.96
28.62
24.15
20.12
16.91
14.80
13.96
14.30
15.44
16.78
17.67
17.68
16.72
15.08
13.20
11.39
9.62
7.56
4.67
0.54
-4.85
-11.02
-17.17
-22.41
-26.18
-28.42
-29.63
-30.64
-32.43
-35.71
-40.69
-46.84
-52.86
-56.89
-56.98
-51.74
-40.99
-25.93
-8.98
7.04
19.67
27.61
30.83
30.31
27.43
23.42
19.06
14.72
10.59
6.89
3.98
2.21
1.73
2.46
4.05
6.00
7.80
9.02
9.31
8.42
6.22
2.77
-1.67
-6.63
-11.57
-15.94
-19.41
-21.89
-23.56
-24.85
-26.43
-28.97
-33.00
-38.41
-44.30
-48.91
-50.12
-46.13
-36.29
-21.51
-4.13
12.79
26.47
35.17
38.53
37.41
33.22
27.42
21.14
15.10
9.82
5.73
3.14
2.21
2.72
4.10
5.62
6.59
6.70
5.99
4.76
3.31
1.67
-0.43
-3.41
-7.52
-12.65
-18.21
-23.41
-27.48
-30.12
-31.55
-32.53
-34.11
-37.20
-42.27
-49.00
-56.16
-61.77
-63.55
-59.62
-49.27
-33.36
-14.26
4.83
20.92
32.00
37.58
38.42
36.04
32.01
27.48
23.08
19.10
15.73
13.18
11.62
11.11
11.45
12.18
12.81
12.97
12.62
11.98
11.29
10.59
9.51
7.43
3.78
-1.60
-8.27
-15.28
-21.54
-26.26
-29.33
-31.36
-33.44
-36.74
-41.99
-49.04
-56.70
-62.87
-65.04
-61.08
-50.01
-32.56
-11.15
10.73
29.49
42.50
48.68
48.63
44.12
37.35
30.34
24.53
20.67
19.02
19.50
21.77
25.25
29.11
32.41
34.33
34.44
32.87
30.18
27.08
23.98
20.82
17.09
12.17
5.82
-1.62
-9.17
-15.65
-20.11
-22.27
-22.76
-22.93
-24.59
-29.32
-37.91
-49.88
-63.27
-75.05
-81.95
-81.52
-73.01
-57.72
-38.60
-19.30
-2.98
8.55
15.13
17.94
18.74
19.08
19.79
20.89
21.86
22.16
21.63
20.61
19.85
20.00
21.41
23.79
26.40
28.23
28.35
26.11
21.34
14.43
6.42
-1.05
-5.90
-6.19
-1.01
8.90
20.81
30.56
33.88
27.89
12.43
-9.49
-32.25
-49.18
-54.53
-45.27
-21.82
12.07
50.51
87.08
116.17
133.89
138.53
130.43
111.77
85.95
56.88
28.03
1.76
-20.83
-39.40
-53.67
-62.98
-66.53
-64.21
-57.06
-47.27
-37.34
-29.17
-23.70
-21.16
-21.57
-24.76
-29.92
-35.00
-36.97
-33.16
-23.07
-9.36
2.68
7.34
1.13
-15.66
-39.31
-64.46
-86.15
-100.91
-106.41
-100.66
-81.67
-48.34
-1.83
53.36
109.95
159.85
196.83
218.43
226.41
225.35
220.31
214.78
209.76
204.39
197.25
187.69
176.18
163.89
151.65
139.23
125.28
107.97
86.03
59.55
29.96
-0.50
-29.72
-56.21
-79.08
-97.76
-111.59
-119.82
-121.96
-117.97
-108.28
-93.40
-73.51
-48.25
-16.99
20.31
62.30
105.78
146.14
178.65
199.94
209.20
208.25
200.78
190.83
181.50
174.31
169.27
165.53
162.09
158.18
153.31
147.14
139.41
129.99
118.99
106.66
93.16
78.46
62.22
44.03
23.70
1.50
-22.03
-46.15
-70.47
-95.11
-120.58
-147.68
-177.22
-210.13
-247.29
-289.10
-334.59
-380.68
-422.02
-452.06
-464.98
-457.77
-431.22
-389.30
-337.34
-279.97
-220.24
-160.30
-102.93
-52.63
-15.13
4.69
5.44
-9.27
-31.48
-51.51
-61.31
-56.83
-38.73
-10.81
22.21
56.55
89.94
121.08
148.57
170.34
183.92
187.45
180.78
165.95
146.82
127.96
113.36
105.56
105.50
112.79
126.08
143.22
161.32
177.06
187.36
190.26
185.60
174.72
159.66
142.02
122.20
99.59
73.34
43.13
9.45
-26.69
-64.17
-101.85
-138.34
-171.78
-200.18
-222.30
-238.62
-251.38
-263.61
-277.43
-292.81
-307.51
-318.28
-322.63
-320.01
-311.62
-299.19
-283.51
-263.80
-238.17
-204.71
-162.29
-110.95
-51.89
12.22
76.73
134.70
177.88
199.03
195.01
168.84
129.47
88.68
56.83
39.19
34.85
38.50
43.73
46.14
44.59
40.48
35.85
31.71
27.55
21.88
13.37
1.83
-11.67
-25.33
-37.53
-47.42
-55.07
-61.22
-66.74
-72.22
-77.91
-83.83
-90.10
-96.72
-103.23
-108.04
-108.18
-99.83
-79.68
-46.86
-4.21
41.90
83.35
113.04
127.27
126.62
114.96
97.49
78.83
61.90
47.91
36.77
27.29
17.37
4.16
-15.35
-43.14
-79.03
-120.01
-160.70
-194.96
-218.13
-228.84
-229.69
-226.17
-224.29
-227.98
-237.43
-249.22
-258.13
-259.73
-252.36
-237.60
-219.11
-200.58
-184.25
-170.15
-156.69
-141.61
-122.76
-98.08
-65.32
-22.18
32.70
98.03
168.76
236.24
290.48
323.37
331.58
317.48
287.71
250.22
211.41
174.82
141.39
111.02
83.73
59.82
39.31
20.97
2.01
-21.48
-53.09
-94.31
-143.04
-193.26
-236.61
-265.14
-274.23
-264.21
-239.74
-207.40
-172.76
-138.51
-104.50
-69.26
-31.75
7.66
47.36
85.26
119.34
147.86
169.16
181.61
184.00
176.12
158.99
134.81
106.58
77.55
50.74
28.58
12.66
3.38
-0.06
0.47
2.66
4.38
4.24
1.87
-2.43
-7.92
-14.07
-20.80
-28.68
-38.61
-51.30
-66.63
-83.20
-98.28
-108.43
-110.59
-103.06
-86.05
-61.41
-31.95
-0.53
30.40
58.92
83.40
102.37
114.65
119.62
117.58
109.73
97.94
84.45
71.42
60.62
53.13
49.10
47.80
47.81
47.56
45.86
42.34
37.38
31.80
26.38
21.43
16.64
11.17
3.93
-6.09
-19.42
-35.73
-53.49
-69.98
-81.70
-85.29
-78.64
-61.83
-37.32
-9.27
17.78
40.30
56.69
67.12
72.95
75.59
75.93
74.25
70.57
65.19
58.89
52.82
48.05
45.15
43.99
43.87
43.87
43.21
41.44
38.53
34.72
30.31
25.52
20.35
14.59
7.92
-0.03
-9.60
-21.01
-34.25
-48.78
-63.28
-75.55
-82.70
-81.90
-71.29
-50.84
-22.61
9.64
41.48
69.03
89.98
103.77
111.30
114.14
113.78
111.21
106.97
101.45
95.22
89.08
83.89
80.30
78.42
77.79
77.55
76.73
74.61
70.85
65.54
59.06
51.87
44.32
36.53
28.36
19.47
9.40
-2.27
-15.71
-30.60
-45.86
-59.47
-68.70
-70.70
-63.43
-46.60
-21.99
6.92
35.90
61.22
80.56
93.29
100.11
102.33
101.34
98.17
93.55
88.01
82.06
76.25
71.16
67.23
64.68
63.40
62.89
62.44
61.28
58.84
54.87
49.52
43.16
36.20
28.97
21.59
13.98
5.94
-2.87
-12.81
-24.13
-36.83
-50.27
-62.97
-72.64
-76.60
-72.63
-59.82
-39.06
-12.96
14.89
40.92
62.41
77.97
87.44
91.53
91.40
88.35
83.69
78.59
74.05
70.75
69.00
68.63
69.03
69.19
67.97
64.41
58.10
49.31
38.86
27.82
17.05
7.05
-1.98
-9.92
-16.53
-21.47
-24.59
-26.14
-27.02
-28.58
-32.31
-39.31
-49.73
-62.46
-75.01
-84.07
-86.37
-79.83
-64.34
-42.00
-16.47
8.23
28.93
44.04
53.56
58.48
60.00
59.04
56.19
51.90
46.77
41.60
37.26
34.37
33.07
33.03
33.60
34.15
34.28
33.85
32.85
31.21
28.73
25.12
20.13
13.84
6.64
-0.84
-7.93
-14.21
-19.62
-24.46
-29.41
-35.23
-42.57
-51.58
-61.53
-70.69
-76.61
-76.74
-69.36
-54.37
-33.52
-9.98
12.57
31.07
43.78
50.51
52.23
50.43
46.53
41.57
36.15
30.69
25.57
21.23
18.16
16.65
16.71
17.99
19.89
21.68
22.74
22.64
21.15
18.27
14.11
8.86
2.85
-3.55
-9.94
-15.98
-21.52
-26.69
-31.94
-37.90
-44.97
-52.99
-60.85
-66.62
-68.04
-63.24
-51.57
-34.02
-13.04
8.16
26.57
40.10
47.99
50.65
49.13
44.68
38.37
31.14
23.77
17.02
11.55
7.76
5.66
4.89
4.89
5.09
5.05
4.49
3.22
1.06
-2.10
-6.31
-11.47
-17.37
-23.78
-30.49
-37.37
-44.35
-51.38
-58.54
-66.02
-74.05
-82.65
-91.24
-98.46
-102.34
-100.92
-93.05
-79.03
-60.72
-41.02
-22.97
-8.86
0.27
4.52
4.78
2.20
-2.13
-7.29
-12.39
-16.58
-19.06
-19.31
-17.16
-12.92
-7.29
-1.19
4.49
9.07
12.22
13.96
14.64
14.71
14.56
14.37
14.03
13.29
11.97
10.03
7.60
4.76
1.31
-3.31
-9.78
-18.36
-28.44
-38.28
-45.49
-47.73
-43.68
-33.50
-18.89
-2.46
13.14
25.92
34.91
40.11
42.04
41.42
38.92
35.09
30.48
25.68
21.26
17.70
15.20
13.75
13.11
12.92
12.86
12.67
12.08
10.84
8.76
5.75
1.97
-2.16
-6.06
-9.15
-11.11
-11.98
-12.19
-12.51
-13.77
-16.65
-21.32
-27.28
-33.24
-37.43
-38.04
-33.88
-24.84
-12.06
2.40
16.17
27.30
34.77
38.53
39.29
38.09
35.83
33.08
30.01
26.57
22.69
18.47
14.26
10.59
7.94
6.55
6.27
6.57
6.69
5.95
3.90
0.52
-3.91
-8.88
-13.80
-18.15
-21.50
-23.57
-24.38
-24.22
-23.75
-23.86
-25.33
-28.47
-32.74
-36.79
-38.71
-36.69
-29.71
-17.96
-2.90
13.20
27.90
39.26
46.25
48.81
47.61
43.65
37.96
31.37
24.43
17.57
11.16
5.68
1.65
-0.47
-0.49
1.38
4.53
8.09
11.15
12.94
13.00
11.19
7.68
2.82
-2.87
-8.82
-14.57
-19.80
-24.56
-29.16
-34.10
-39.75
-45.98
-51.93
-56.02
-56.39
-51.50
-40.88
-25.46
-7.48
10.16
24.72
34.43
38.75
38.27
34.23
27.94
20.52
12.80
5.45
-0.89
-5.57
-8.06
-8.18
-6.19
-2.87
0.70
3.37
4.26
2.97
-0.28
-4.85
-9.92
-14.80
-19.15
-22.96
-26.50
-30.06
-33.89
-38.15
-42.85
-47.83
-52.49
-55.77
-56.14
-52.09
-42.76
-28.47
-10.95
7.13
22.86
34.06
39.82
40.52
37.45
32.15
25.87
19.41
13.19
7.51
2.74
-0.73
-2.56
-2.64
-1.23
1.09
3.54
5.32
5.80
4.67
1.99
-1.88
-6.43
-11.18
-15.82
-20.33
-24.82
-29.54
-34.73
-40.57
-47.04
-53.83
-60.19
-64.85
-66.20
-62.73
-53.59
-39.13
-21.01
-1.91
15.27
28.25
35.98
38.68
37.52
33.96
29.24
24.11
18.95
14.02
9.62
6.16
4.00
3.34
4.04
5.69
7.67
9.27
9.87
9.05
6.65
2.81
-2.07
-7.45
-12.83
-17.85
-22.33
-26.32
-30.15
-34.23
-39.03
-44.77
-51.11
-57.06
-60.95
-60.89
-55.44
-44.19
-28.17
-9.61
8.70
24.18
35.17
41.19
42.83
41.25
37.77
33.44
28.91
24.55
20.55
17.04
14.20
12.20
11.16
11.05
11.68
12.61
13.28
13.13
11.70
8.84
4.62
-0.58
-6.27
-11.89
-16.99
-21.29
-24.80
-27.82
-30.97
-34.96
-40.37
-47.30
-55.06
-62.16
-66.47
-65.87
-58.93
-45.52
-27.07
-6.24
13.75
30.09
41.10
46.55
47.45
45.46
42.13
38.54
35.13
31.92
28.85
26.04
23.84
22.66
22.85
24.45
27.19
30.56
33.85
36.32
37.30
36.26
32.94
27.27
19.52
10.23
0.14
-9.90
-19.12
-27.09
-33.83
-39.90
-46.11
-53.06
-60.68
-67.87
-72.76
-73.22
-67.77
-56.31
-40.24
-22.13
-4.80
9.51
19.72
25.96
29.20
30.61
31.20
31.55
31.86
32.16
32.43
32.71
33.12
33.82
34.83
36.03
37.05
37.35
36.36
33.67
29.23
23.38
16.78
10.16
4.16
-0.87
-4.91
-8.28
-11.48
-15.13
-19.83
-25.95
-33.41
-41.47
-48.61
-52.82
-52.02
-44.94
-31.63
-13.76
5.83
23.92
37.97
46.77
50.53
50.49
48.17
44.81
41.07
37.18
33.19
29.29
25.87
23.39
22.19
22.25
23.16
24.25
24.75
24.12
22.11
18.84
14.65
9.99
5.20
0.49
-4.12
-8.75
-13.67
-19.26
-25.87
-33.62
-42.10
-50.17
-56.02
-57.56
-53.16
-42.38
-26.31
-7.42
11.15
26.57
37.11
42.51
43.65
41.96
38.73
34.75
30.29
25.47
20.53
16.01
12.61
10.94
11.19
12.99
15.47
17.59
18.47
17.66
15.21
11.59
7.43
3.25
-0.70
-4.44
-8.26
-12.56
-17.69
-23.85
-30.95
-38.36
-44.96
-49.14
-49.22
-43.91
-32.89
-17.12
1.29
19.56
35.06
46.03
51.90
53.24
51.21
47.09
41.79
35.86
29.68
23.73
18.64
15.06
13.39
13.53
14.82
16.32
17.10
16.59
14.73
11.90
8.71
5.74
3.30
1.31
-0.68
-3.30
-7.21
-12.84
-20.27
-28.94
-37.70
-44.81
-48.34
-46.69
-39.22
-26.59
-10.71
5.82
20.44
31.37
37.90
40.32
39.47
36.33
31.76
26.37
20.62
14.92
9.66
5.24
1.98
0.01
-0.74
-0.67
-0.41
-0.59
-1.68
-3.75
-6.50
-9.45
-12.22
-14.77
-17.42
-20.67
-25.03
-30.83
-38.08
-46.48
-55.28
-63.25
-68.71
-69.79
-65.03
-53.96
-37.51
-17.91
1.79
18.74
30.96
37.83
39.94
38.55
35.02
30.40
25.33
20.19
15.32
11.19
8.29
6.97
7.21
8.58
10.33
11.67
11.99
11.13
9.30
7.00
4.67
2.48
0.24
-2.43
-5.98
-10.64
-16.41
-23.06
-30.34
-37.85
-44.93
-50.46
-52.97
-50.95
-43.50
-30.87
-14.66
2.57
18.12
29.89
36.94
39.55
38.74
35.86
32.07
28.18
24.61
21.52
18.94
16.87
15.34
14.41
14.12
14.44
15.16
15.92
16.22
15.57
13.64
10.39
6.08
1.15
-3.93
-8.83
-13.37
-17.52
-21.33
-24.95
-28.66
-32.81
-37.63
-42.85
-47.49
-49.83
-47.94
-40.46
-27.37
-10.25
8.10
24.57
36.80
43.74
45.71
43.91
39.74
34.37
28.59
22.98
18.04
14.29
12.12
11.59
12.37
13.82
15.26
16.18
16.44
16.16
15.51
14.51
12.97
10.53
6.97
2.35
-2.89
-8.11
-12.63
-16.08
-18.53
-20.42
-22.52
-25.62
-30.27
-36.44
-43.36
-49.41
-52.54
-50.87
-43.37
-30.45
-13.93
3.41
18.74
29.92
36.04
37.41
35.12
30.56
24.96
19.22
13.92
9.40
5.88
3.49
2.25
2.03
2.59
3.55
4.54
5.23
5.37
4.77
3.30
0.87
-2.48
-6.55
-10.99
-15.32
-19.14
-22.25
-24.68
-26.77
-29.01
-31.93
-35.87
-40.82
-46.14
-50.56
-52.34
-49.74
-41.75
-28.66
-12.20
4.85
19.50
29.52
34.08
33.75
30.14
25.03
19.83
15.23
11.38
8.18
5.63
3.90
3.21
3.64
4.90
6.48
7.70
7.99
7.02
4.78
1.42
-2.80
-7.58
-12.64
-17.66
-22.30
-26.31
-29.59
-32.34
-35.11
-38.64
-43.65
-50.33
-57.96
-64.88
-68.74
-67.29
-59.25
-44.91
-26.24
-6.34
11.54
24.92
32.71
35.26
33.92
30.43
26.30
22.46
19.29
16.81
14.93
13.65
13.08
13.29
14.22
15.56
16.88
17.71
17.67
16.56
14.31
10.92
6.44
1.05
-4.89
-10.85
-16.26
-20.72
-24.20
-27.21
-30.60
-35.31
-41.83
-49.74
-57.55
-62.93
-63.46
-57.51
-45.01
-27.59
-8.16
10.00
24.28
33.37
37.44
37.68
35.67
32.72
29.66
26.79
24.18
21.92
20.14
19.05
18.71
19.00
19.56
19.96
19.81
18.85
16.95
14.10
10.36
5.88
0.90
-4.26
-9.23
-13.80
-17.98
-22.05
-26.53
-32.06
-39.03
-47.30
-55.94
-63.24
-67.04
-65.38
-57.27
-43.17
-25.02
-5.74
11.66
24.86
32.81
35.78
34.98
32.04
28.44
25.20
22.83
21.36
20.60
20.30
20.21
20.21
20.12
19.83
19.22
18.17
16.53
14.17
10.92
6.69
1.52
-4.35
-10.54
-16.63
-22.32
-27.62
-32.81
-38.46
-45.15
-53.27
-62.63
-72.22
-80.25
-84.41
-82.59
-73.68
-58.19
-38.30
-17.24
1.64
15.96
24.84
28.83
29.40
28.18
26.43
24.82
23.57
22.65
22.05
21.78
21.86
22.27
22.90
23.53
23.93
23.83
22.94
21.05
18.04
13.96
9.00
3.46
-2.33
-8.07
-13.54
-18.74
-23.82
-29.23
-35.57
-43.41
-52.86
-63.22
-72.72
-78.89
-79.22
-72.14
-57.74
-37.89
-15.72
5.38
22.78
35.20
42.76
46.48
47.69
47.47
46.55
45.30
43.91
42.54
41.33
40.35
39.57
38.89
38.16
37.30
36.32
35.27
34.09
32.53
30.15
26.46
21.14
14.29
6.47
-1.49
-8.79
-15.02
-20.29
-25.31
-31.07
-38.47
-47.93
-58.98
-70.12
-79.03
-83.11
-80.32
-69.95
-53.05
-32.16
-10.58
8.70
23.74
34.09
40.44
44.02
46.01
47.17
47.80
48.05
48.07
48.10
48.41
49.10
49.99
50.70
50.84
50.24
49.04
47.55
46.08
44.59
42.65
39.56
34.70
27.91
19.66
10.93
2.83
-3.82
-8.85
-12.79
-16.68
-21.74
-28.87
-38.34
-49.48
-60.65
-69.49
-73.46
-70.58
-60.15
-43.14
-22.06
-0.18
19.39
34.59
44.76
50.38
52.51
52.24
50.37
47.44
44.00
40.71
38.32
37.34
37.85
39.36
41.06
42.16
42.24
41.33
39.79
38.01
36.07
33.67
30.26
25.44
19.19
12.07
4.93
-1.35
-6.26
-9.85
-12.74
-15.86
-20.22
-26.54
-35.00
-44.90
-54.65
-61.90
-64.15
-59.58
-47.77
-30.07
-9.24
11.36
28.84
41.48
49.04
52.36
52.76
51.46
49.24
46.51
43.45
40.30
37.41
35.17
33.87
33.52
33.87
34.50
35.00
35.13
34.69
33.57
31.54
28.30
23.68
17.77
11.06
4.25
-1.94
-7.15
-11.51
-15.64
-20.44
-26.67
-34.67
-43.97
-53.22
-60.35
-63.07
-59.59
-49.34
-33.34
-14.01
5.52
22.41
34.91
42.62
46.28
47.09
46.23
44.41
42.00
39.21
36.30
33.56
31.32
29.76
28.91
28.65
28.75
28.98
29.06
28.71
27.68
25.71
22.66
18.47
13.27
7.35
1.16
-4.80
-10.13
-14.75
-19.01
-23.65
-29.46
-36.82
-45.28
-53.37
-58.91
-59.60
-53.90
-41.62
-24.15
-4.08
15.53
32.04
43.83
50.55
52.92
52.22
49.83
46.83
43.87
41.16
38.67
36.31
33.97
31.61
29.26
27.01
25.02
23.43
22.39
21.84
21.51
20.87
19.24
16.01
10.79
3.62
-5.13
-14.82
-24.79
-34.60
-44.12
-53.54
-63.02
-72.38
-80.65
-86.13
-86.72
-80.77
-67.84
-49.17
-27.43
-5.95
12.33
25.66
33.70
37.21
37.41
35.46
32.20
28.22
24.04
20.14
17.00
14.86
13.73
13.35
13.35
13.39
13.24
12.76
11.81
10.24
7.87
4.57
0.37
-4.51
-9.72
-14.89
-19.79
-24.36
-28.73
-33.20
-38.14
-43.92
-50.63
-57.81
-64.31
-68.40
-68.24
-62.56
-51.28
-35.72
-18.30
-1.74
11.73
20.97
25.94
27.44
26.58
24.43
21.81
19.29
17.24
15.81
15.06
14.89
15.14
15.66
16.29
16.95
17.51
17.82
17.69
16.90
15.25
12.59
8.94
4.46
-0.46
-5.28
-9.51
-12.89
-15.57
-18.15
-21.45
-26.30
-33.06
-41.35
-49.91
-56.76
-59.61
-56.62
-47.10
-31.91
-13.37
5.43
21.51
32.91
39.05
40.62
38.98
35.54
31.31
26.85
22.42
18.18
14.38
11.31
9.27
8.38
8.55
9.49
10.76
11.87
12.35
11.86
10.17
7.29
3.37
-1.27
-6.18
-10.96
-15.33
-19.22
-22.85
-26.69
-31.26
-36.85
-43.25
-49.46
-53.84
-54.45
-49.78
-39.47
-24.59
-7.49
8.92
22.12
30.69
34.57
34.70
32.46
29.07
25.27
21.38
17.50
13.80
10.60
8.30
7.19
7.24
8.06
9.00
9.37
8.64
6.65
3.62
-0.03
-3.84
-7.54
-11.10
-14.67
-18.46
-22.70
-27.55
-33.20
-39.73
-46.99
-54.28
-60.28
-63.28
-61.62
-54.42
-42.06
-26.23
-9.50
5.48
16.81
23.74
26.70
26.85
25.50
23.61
21.62
19.56
17.27
14.75
12.22
10.02
8.48
7.69
7.51
7.61
7.58
7.03
5.75
3.61
0.65
-3.01
-7.13
-11.45
-15.72
-19.86
-23.98
-28.43
-33.64
-39.93
-47.13
-54.40
-60.15
-62.43
-59.56
-50.87
-37.10
-20.32
-3.25
11.57
22.51
29.19
32.25
32.84
32.04
30.54
28.60
26.26
23.57
20.76
18.24
16.44
15.57
15.55
15.97
16.20
15.63
13.91
10.96
7.04
2.55
-2.13
-6.76
-11.28
-15.78
-20.38
-25.23
-30.47
-36.24
-42.58
-49.32
-55.79
-60.75
-62.61
-59.96
-52.13
-39.65
-24.23
-8.23
6.07
17.18
24.62
28.80
30.57
30.70
29.71
27.86
25.37
22.57
19.95
17.97
16.92
16.79
17.31
18.08
18.69
18.82
18.20
16.63
13.97
10.17
5.35
-0.21
-6.10
-11.86
-17.16
-21.84
-25.99
-30.00
-34.40
-39.74
-46.25
-53.49
-60.24
-64.63
-64.74
-59.26
-48.14
-32.70
-15.29
1.47
15.46
25.57
31.74
34.62
35.10
33.95
31.80
29.13
26.45
24.33
23.19
23.19
24.13
25.50
26.75
27.49
27.62
27.30
26.73
25.94
24.72
22.61
19.17
14.22
7.94
0.88
-6.19
-12.49
-17.50
-21.13
-23.79
-26.33
-29.76
-34.94
-42.13
-50.69
-59.05
-64.96
-66.22
-61.40
-50.41
-34.68
-16.68
0.79
15.40
25.87
32.02
34.55
34.52
32.96
30.61
27.95
25.30
22.95
21.20
20.26
20.25
21.10
22.55
24.28
25.95
27.31
28.12
28.17
27.15
24.79
20.95
15.81
9.88
3.88
-1.45
-5.68
-8.87
-11.59
-14.76
-19.31
-25.82
-34.11
-43.05
-50.68
-54.66
-53.05
-44.99
-31.15
-13.63
4.65
20.80
32.84
40.03
42.79
42.24
39.69
36.21
32.55
29.15
26.32
24.22
22.93
22.38
22.30
22.37
22.30
21.92
21.16
20.03
18.44
16.18
13.01
8.73
3.38
-2.73
-9.03
-14.92
-19.97
-24.13
-27.76
-31.60
-36.50
-43.15
-51.58
-60.90
-69.25
-74.16
-73.31
-65.38
-50.70
-31.33
-10.41
8.76
23.76
33.53
38.43
39.69
38.81
37.03
35.12
33.46
32.21
31.42
31.11
31.23
31.59
31.92
31.89
31.29
30.05
28.25
25.97
23.23
19.95
15.97
11.27
6.03
0.64
-4.49
-9.11
-13.32
-17.64
-22.86
-29.71
-38.49
-48.69
-58.83
-66.69
-69.82
-66.38
-55.87
-39.45
-19.70
0.10
16.99
29.16
36.29
39.37
40.02
39.81
39.72
39.99
40.27
40.04
38.91
36.89
34.32
31.73
29.60
28.15
27.30
26.69
25.86
24.39
22.03
18.67
14.39
9.33
3.70
-2.26
-8.28
-14.19
-20.02
-26.01
-32.62
-40.20
-48.59
-56.83
-63.14
-65.35
-61.62
-51.23
-35.02
-15.29
4.90
22.59
35.83
44.03
47.90
48.88
48.49
47.83
47.43
47.25
47.01
46.41
45.30
43.70
41.78
39.74
37.74
35.86
34.03
32.04
29.58
26.34
22.10
16.86
10.85
4.48
-1.73
-7.39
-12.37
-16.86
-21.37
-26.65
-33.33
-41.67
-51.10
-60.15
-66.61
-68.17
-63.19
-51.46
-34.35
-14.56
4.74
20.86
32.28
38.81
41.36
41.28
39.93
38.28
36.90
36.00
35.56
35.42
35.35
35.07
34.39
33.22
31.64
29.87
28.12
26.51
24.95
23.11
20.53
16.76
11.60
5.22
-1.80
-8.64
-14.54
-19.05
-22.32
-25.12
-28.55
-33.72
-41.12
-50.31
-59.71
-66.91
-69.38
-65.25
-54.13
-37.32
-17.51
2.08
18.68
30.68
37.85
41.01
41.47
40.44
38.78
36.96
35.25
33.82
32.88
32.52
32.68
33.10
33.34
33.04
32.05
30.53
28.87
27.41
26.18
24.81
22.64
19.04
13.77
7.20
0.16
-6.42
-11.87
-16.08
-19.45
-22.74
-26.72
-32.02
-38.89
-47.06
-55.60
-62.87
-66.85
-65.61
-58.08
-44.55
-26.83
-7.68
9.98
24.01
33.48
38.72
40.73
40.64
39.24
36.94
33.90
30.28
26.45
22.96
20.36
18.97
18.73
19.24
19.93
20.33
20.27
19.92
19.53
19.21
18.67
17.25
14.22
9.16
2.26
-5.64
-13.36
-19.88
-24.73
-28.16
-31.02
-34.32
-38.95
-45.35
-53.37
-62.25
-70.59
-76.54
-78.15
-73.96
-63.61
-48.12
-29.77
-11.45
4.19
15.47
21.91
24.05
22.93
19.68
15.22
10.31
5.61
1.74
-0.82
-1.84
-1.45
-0.08
1.66
3.22
4.33
4.98
5.38
5.71
5.90
5.63
4.44
2.01
-1.66
-6.15
-10.75
-14.76
-17.77
-19.75
-21.16
-22.69
-25.14
-29.12
-34.80
-41.69
-48.52
-53.41
-54.32
-49.79
-39.52
-24.64
-7.46
9.24
23.06
32.58
37.56
38.63
36.86
33.28
28.72
23.82
19.12
15.10
12.16
10.52
10.13
10.70
11.77
12.92
13.81
14.31
14.38
14.00
13.00
11.07
7.82
3.05
-3.03
-9.80
-16.28
-21.57
-25.18
-27.24
-28.48
-29.96
-32.69
-37.15
-43.08
-49.31
-53.99
-55.10
-51.08
-41.45
-27.13
-10.27
6.33
20.07
29.27
33.48
33.35
30.17
25.30
19.85
14.56
9.80
5.85
2.86
