1717524305.00
64.000000
-0.00
-0.00
-0.00
-0.00
-0.00
-0.00
-0.00
-0.00
-0.00
-0.00
0.00
0.01
0.01
-0.00
-0.03
-0.05
-0.05
0.00
0.13
0.36
0.66
1.01
1.37
1.72
2.06
2.40
2.79
3.24
3.80
4.42
5.06
5.66
6.20
6.68
7.15
7.68
8.31
9.14
10.09
11.04
11.88
12.56
13.14
13.76
14.65
15.96
17.91
20.32
22.90
25.38
27.58
29.57
31.68
34.32
37.81
42.54
48.15
54.10
59.83
64.97
69.58
74.14
79.34
85.71
93.76
103.00
112.62
121.73
129.77
136.75
143.30
150.75
157.77
166.64
177.95
191.79
206.97
220.57
228.25
225.36
208.53
176.87
132.76
80.05
23.07
-34.94
-92.44
-149.16
-205.23
-260.37
-313.74
-363.87
-409.83
-450.91
-486.50
-515.74
-537.23
-549.22
-549.96
-538.37
-514.21
-478.67
-433.88
-382.45
-327.02
-269.84
-212.63
-156.66
-102.95
-52.37
-5.90
35.58
71.43
101.35
125.50
144.38
158.69
169.15
176.37
180.75
182.57
182.07
179.51
175.23
169.65
163.18
156.15
148.81
141.30
133.69
126.02
118.33
110.69
103.16
95.80
88.68
81.83
75.25
68.95
62.95
57.25
51.86
46.78
42.03
37.59
33.45
29.61
26.07
22.81
19.83
17.11
14.67
12.48
10.54
8.83
7.35
6.07
4.97
4.05
3.27
2.62
2.09
1.65
1.30
1.01
0.79
0.62
0.48
0.38
0.31
0.26
0.23
0.22
0.22
0.23
0.25
0.27
0.30
0.34
0.38
0.43
0.48
0.53
0.58
0.65
0.71
0.78
0.86
0.94
1.02
1.11
1.21
1.31
1.42
1.54
1.67
1.82
1.99
2.18
2.39
2.63
2.91
3.22
3.57
3.95
4.38
4.85
5.36
5.92
6.50
7.14
7.81
8.52
9.27
10.06
10.89
11.77
12.69
13.65
14.67
15.76
16.91
18.14
19.44
20.80
22.17
23.53
24.76
25.81
26.53
26.81
26.56
25.69
24.18
22.01
19.27
16.01
12.38
8.49
4.48
0.48
-3.43
-7.15
-10.66
-13.89
-16.84
-19.44
-21.67
-23.47
-24.75
-25.40
-25.31
-24.40
-22.54
-19.70
-15.85
-11.12
-5.69
0.14
6.00
11.42
15.99
19.32
21.19
21.61
20.59
18.35
15.19
11.46
7.51
3.74
0.61
-1.28
-1.24
1.09
6.02
13.63
23.54
35.29
48.11
61.27
74.27
86.97
98.92
109.94
119.70
127.63
133.20
135.85
135.52
132.89
129.47
126.43
124.95
125.40
126.73
127.35
124.80
116.81
101.74
83.72
65.56
49.58
36.56
24.73
12.18
-4.17
-26.21
-53.47
-83.05
-111.36
-134.95
-152.34
-166.12
-178.30
-193.69
-216.65
-249.64
-292.15
-340.80
-388.60
-425.99
-444.98
-435.61
-396.60
-334.82
-264.64
-204.09
-169.11
-167.34
-195.36
-242.83
-289.58
-321.09
-329.79
-316.09
-286.23
-248.71
-210.83
-159.77
-122.23
-95.13
-77.68
-67.16
-58.23
-43.20
-14.23
33.42
98.19
169.24
234.79
279.05
290.64
266.71
214.06
146.70
81.09
30.55
0.80
-7.06
1.41
19.63
43.39
72.23
108.18
152.68
196.30
238.34
268.81
277.57
259.36
216.10
156.24
91.17
31.00
-18.52
-55.91
-82.90
-100.62
-107.99
-101.93
-79.29
-39.64
12.79
68.77
116.63
144.12
144.01
116.77
70.67
19.19
-23.61
-47.85
-50.62
-35.08
-9.10
20.06
47.66
71.24
89.25
99.62
99.94
89.14
69.60
46.86
28.82
22.57
31.35
53.31
82.23
110.34
130.95
140.12
136.15
118.95
89.36
49.67
4.85
-36.97
-65.64
-72.05
-51.92
-8.50
47.55
101.48
139.76
155.10
148.53
127.97
104.16
85.95
77.56
78.68
86.61
98.66
113.12
128.56
142.58
151.23
150.24
137.15
113.10
82.69
52.54
29.08
16.90
17.78
30.70
51.78
74.72
91.74
95.23
79.86
44.35
-7.74
-68.49
-127.17
-172.62
-196.03
-193.54
-168.19
-129.87
-93.07
-72.25
-76.55
-106.03
-151.23
-196.77
-227.32
-233.28
-213.68
-175.40
-129.40
-86.10
-52.05
-28.89
-14.51
-5.53
0.47
4.09
4.42
0.51
-7.38
-17.17
-25.39
-28.35
-23.72
-11.56
5.65
24.00
39.50
49.23
51.60
46.03
32.73
12.92
-10.28
-31.40
-43.44
-40.33
-20.17
12.67
48.17
74.16
81.33
67.27
37.30
1.90
-28.00
-45.34
-48.78
-41.83
-30.03
-18.12
-8.66
-2.42
0.40
-0.57
-5.81
-15.01
-26.34
-36.42
-41.48
-38.82
-28.04
-10.94
9.48
30.58
50.98
70.47
88.74
104.38
114.37
114.80
102.38
76.15
38.45
-4.89
-45.36
-73.45
-81.38
-65.98
-30.58
15.08
57.75
85.51
92.81
82.64
64.79
50.67
47.55
54.99
65.74
70.06
61.21
38.70
7.55
-25.47
-55.98
-83.73
-110.82
-138.12
-162.76
-178.68
-179.79
-163.93
-134.87
-100.71
-69.86
-47.01
-31.34
-18.13
-2.66
16.16
34.34
43.99
36.43
5.64
-49.04
-122.01
-202.29
-276.51
-332.42
-362.56
-365.92
-347.41
-315.40
-278.40
-242.61
-210.72
-182.67
-157.21
-133.41
-111.12
-90.69
-71.78
-52.67
-30.68
-3.12
30.76
68.72
105.39
133.82
148.24
146.76
132.48
112.36
94.12
82.88
79.48
81.51
86.06
92.48
102.65
118.82
140.53
163.24
180.08
185.94
181.07
171.29
164.57
165.66
172.64
177.60
171.77
150.57
116.59
78.03
43.74
18.85
2.44
-10.54
-25.38
-43.89
-63.40
-78.25
-83.08
-75.97
-59.58
-40.47
-26.38
-23.20
-32.46
-50.54
-69.99
-82.60
-83.09
-71.43
-52.75
-34.53
-22.81
-19.59
-22.56
-27.46
-30.91
-32.02
-31.70
-30.64
-27.91
-21.45
-9.98
5.12
19.96
30.28
34.35
34.54
36.65
47.34
71.10
108.19
154.33
201.88
241.80
266.01
269.56
252.11
218.02
174.92
131.30
94.30
68.50
56.10
57.41
71.12
93.89
119.73
140.44
147.50
135.08
102.61
55.69
4.43
-39.88
-68.64
-78.35
-70.84
-51.33
-25.79
1.10
26.57
48.68
65.01
72.17
66.78
47.54
16.91
-18.83
-51.57
-74.26
-83.57
-80.47
-68.85
-52.95
-35.19
-15.79
6.00
29.95
53.61
72.64
82.74
82.15
73.13
61.68
55.08
58.28
71.23
88.36
100.50
98.74
78.35
40.78
-6.64
-53.57
-90.28
-110.67
-113.38
-100.92
-77.57
-47.44
-13.39
22.72
59.08
92.91
120.21
136.40
137.72
122.61
92.14
49.74
0.61
-49.00
-92.51
-124.31
-141.58
-145.81
-142.76
-140.63
-146.46
-162.44
-184.81
-205.76
-217.57
-216.61
-204.71
-187.18
-169.07
-152.10
-133.73
-108.96
-73.61
-26.98
27.03
80.71
125.00
152.29
158.32
142.83
108.77
61.00
5.35
-51.95
-104.32
-145.08
-168.30
-170.06
-149.54
-109.22
-54.18
8.98
72.59
128.23
167.08
181.47
167.54
127.60
70.60
10.02
-40.17
-69.88
-75.58
-60.70
-33.87
-5.95
13.08
16.42
1.87
-28.27
-68.16
-110.21
-146.95
-172.47
-183.12
-177.88
-158.46
-129.10
-96.23
-67.25
-48.57
-43.38
-50.08
-62.29
-70.58
-65.93
-43.37
-4.75
41.35
82.65
108.18
113.08
100.73
80.97
65.51
62.66
74.31
96.23
121.06
142.24
156.10
162.05
160.98
153.48
139.21
117.50
88.84
55.78
22.37
-7.87
-34.06
-59.07
-87.91
-124.13
-166.26
-206.81
-234.80
-240.74
-221.57
-182.28
-133.44
-86.15
-47.64
-19.99
-1.92
8.44
11.92
8.63
-0.82
-14.88
-31.82
-50.57
-70.93
-92.33
-112.34
-126.40
-129.17
-117.13
-90.56
-53.40
-11.52
29.94
68.25
102.87
133.98
161.22
183.49
199.55
208.78
211.71
209.50
203.37
194.11
182.18
168.18
153.11
138.37
125.47
115.65
109.73
108.16
111.16
118.63
129.76
142.80
155.23
164.62
169.49
169.64
165.64
157.94
146.27
130.07
109.62
87.01
66.04
50.69
42.97
41.39
41.15
35.72
19.31
-10.98
-54.36
-106.56
-160.88
-209.51
-244.96
-261.29
-255.55
-228.86
-186.82
-138.52
-94.46
-63.14
-48.48
-48.76
-57.95
-68.84
-76.55
-80.59
-84.39
-92.74
-108.43
-130.48
-154.45
-174.66
-186.78
-189.30
-183.30
-171.29
-155.63
-137.77
-118.02
-95.88
-70.64
-41.89
-10.04
23.48
56.28
85.44
108.23
122.95
129.37
128.93
124.10
117.95
113.39
112.42
115.61
121.87
128.93
133.94
134.45
128.82
116.41
97.62
73.89
47.82
22.74
1.85
-13.03
-22.07
-27.35
-31.60
-36.56
-42.10
-46.28
-46.62
-41.52
-31.02
-16.65
-0.64
14.82
27.81
36.63
39.88
36.94
28.56
17.25
6.50
-0.62
-2.78
-0.87
2.53
4.67
4.04
0.86
-3.32
-6.76
-8.53
-8.90
-8.87
-9.44
-10.95
-13.07
-15.14
-16.63
-17.33
-17.25
-16.56
-15.50
-14.42
-13.69
-13.68
-14.57
-16.28
-18.41
-20.25
-20.87
-19.41
-15.35
-8.88
-0.99
6.69
12.46
15.09
14.29
10.88
6.43
2.60
0.61
0.83
2.83
5.63
8.09
9.23
8.58
6.23
2.88
-0.34
-2.23
-2.04
0.29
3.99
7.75
10.20
10.37
8.10
4.12
-0.35
-3.99
-5.94
-6.14
-5.22
-4.10
-3.57
-3.90
-4.78
-5.56
-5.57
-4.36
-2.01
0.97
3.83
5.83
6.74
6.67
5.98
4.94
3.51
1.42
-1.47
-4.65
-7.03
-7.27
-4.69
0.07
5.22
8.57
8.81
6.31
2.90
0.68
0.84
2.80
4.84
5.31
3.73
1.08
-0.94
-1.23
0.01
1.50
1.85
0.55
-1.72
-3.81
-4.89
-5.15
-5.52
-6.76
-8.79
-10.56
-10.69
-8.48
-4.43
0.01
3.22
4.23
3.11
0.72
-1.82
-3.62
-4.30
-3.95
-2.82
-1.23
0.64
2.67
4.76
6.69
8.19
8.93
8.79
7.94
6.79
5.87
5.53
5.78
6.32
6.65
6.31
5.07
3.02
0.54
-1.89
-3.89
-5.33
-6.31
-7.09
-7.97
-9.17
-10.71
-12.41
-13.93
-14.89
-15.11
-14.68
-14.00
-13.56
-13.69
-14.28
-14.74
-14.19
-11.97
-8.02
-3.07
1.65
4.96
6.29
5.93
4.70
3.46
2.62
1.97
1.10
-0.24
-1.78
-2.86
-2.87
-1.71
0.10
1.74
2.57
2.59
2.31
2.41
3.28
4.82
6.53
7.92
8.61
8.39
7.18
4.93
1.78
-1.89
-5.50
-8.58
-10.92
-12.63
-13.94
-14.62
-14.21
-12.31
-9.00
-5.14
-2.00
-0.68
-1.50
-3.89
-6.46
-8.03
-8.20
-7.25
-5.64
-3.41
-0.21
4.34
10.08
16.74
23.38
28.87
32.42
33.97
34.13
33.72
33.35
33.21
34.12
36.45
40.02
44.29
48.74
53.40
58.68
65.28
73.76
85.30
99.81
115.49
129.20
137.76
139.08
132.76
119.99
96.33
62.41
23.58
-12.34
-39.34
-55.58
-62.49
-62.80
-59.01
-52.97
-44.88
-35.06
-24.40
-14.13
-5.14
2.54
9.08
14.64
19.19
23.49
28.01
32.74
37.08
40.73
43.98
47.01
49.25
50.17
50.14
49.91
50.08
50.92
52.50
55.11
58.51
60.54
59.42
54.92
48.11
40.34
32.11
22.61
15.27
10.95
6.41
-1.54
-14.17
-30.46
-48.48
-66.79
-84.74
-102.16
-119.76
-142.70
-175.41
-219.51
-273.23
-333.17
-396.21
-460.06
-523.12
-556.51
-542.35
-480.89
-390.95
-296.32
-213.25
-147.59
-98.00
-59.76
-28.23
-4.18
10.68
16.06
14.13
8.20
0.82
-6.96
-14.78
-21.87
-28.98
-34.54
-34.39
-23.87
-1.51
29.15
60.84
86.27
101.39
104.66
98.08
85.76
71.90
59.11
48.37
39.99
34.70
33.16
35.49
40.45
46.10
50.63
52.76
52.08
49.13
44.98
40.77
36.96
33.08
28.20
21.42
12.31
1.09
-11.42
-24.06
-35.89
-46.02
-54.47
-61.79
-68.86
-76.37
-84.65
-93.60
-102.84
-112.01
-120.44
-127.94
-134.55
-140.39
-145.44
-149.34
-151.31
-150.05
-147.08
-142.71
-137.14
-130.61
-123.37
-115.62
-107.51
-99.12
-90.46
-81.58
-72.13
-62.06
-51.55
-40.90
-30.55
-20.79
-11.73
-3.27
4.84
13.18
21.98
31.06
39.88
47.74
54.14
58.97
62.65
65.95
69.81
74.77
80.66
86.80
92.27
96.56
99.95
103.59
109.24
118.68
132.94
151.87
174.36
198.77
223.70
248.48
273.31
299.11
327.38
360.02
398.87
444.85
496.57
549.50
596.14
627.97
638.42
625.56
593.01
548.49
500.76
456.42
418.32
385.97
357.38
330.89
305.95
282.81
261.46
240.97
219.55
195.35
167.31
135.58
101.64
67.68
35.85
7.64
-16.56
-37.43
-56.43
-75.19
-94.99
-116.32
-138.92
-162.02
-184.96
-207.57
-230.49
-254.95
-282.42
-314.28
-351.77
-396.02
-447.73
-506.20
-568.13
-627.14
-674.73
-702.69
-706.12
-685.41
-646.19
-597.05
-546.33
-499.68
-459.37
-425.32
-396.90
-374.07
-357.36
-346.97
-341.92
-339.96
-338.28
-334.63
-328.03
-318.92
-308.65
-298.45
-288.70
-278.61
-266.51
-250.54
-229.52
-203.52
-174.02
-143.39
-114.06
-87.62
-64.32
-43.01
-21.73
1.42
27.41
55.79
84.96
112.67
137.06
157.45
174.64
190.81
208.75
231.06
259.01
291.78
326.20
357.30
379.65
389.06
384.01
366.38
340.84
313.78
291.21
277.09
272.12
273.59
276.55
275.85
268.40
254.65
238.32
224.61
217.21
216.09
217.12
214.04
201.79
178.96
148.51
116.08
87.43
66.39
54.27
50.28
52.35
57.62
63.09
66.52
67.18
66.42
67.07
72.09
82.83
98.22
115.17
130.23
141.07
146.94
148.38
146.21
141.22
134.76
129.37
128.71
136.19
153.13
177.87
206.17
232.81
253.28
264.96
267.30
261.38
249.30
233.75
217.75
204.34
196.01
193.89
197.55
205.18
214.49
223.48
231.12
237.13
241.42
243.45
242.32
236.98
226.53
211.00
191.23
168.85
145.72
123.33
102.36
82.55
62.99
42.60
20.77
-2.38
-26.11
-49.44
-71.89
-93.80
-116.39
-141.34
-170.05
-202.84
-238.80
-276.14
-312.80
-347.38
-379.63
-410.37
-441.23
-474.26
-511.68
-555.32
-605.60
-660.26
-713.70
-757.53
-782.82
-783.29
-757.79
-710.99
-651.47
-588.48
-528.84
-475.61
-428.69
-386.77
-349.04
-315.73
-287.55
-264.67
-246.09
-230.02
-214.73
-199.35
-184.05
-169.83
-157.61
-147.54
-138.81
-129.85
-119.13
-105.82
-90.13
-73.24
-56.69
-41.74
-28.76
-17.27
-6.15
5.85
19.59
35.28
52.59
70.91
89.73
108.87
128.53
149.05
170.79
193.94
218.44
243.96
270.06
296.29
322.60
349.59
378.85
412.43
451.78
496.17
542.30
584.56
616.88
634.73
636.32
622.50
595.53
558.29
514.03
466.78
421.34
382.47
353.28
333.82
320.93
309.63
295.38
275.81
251.10
223.02
193.51
163.96
135.03
107.17
80.93
56.90
35.51
16.68
0.09
-14.68
-27.84
-39.83
-51.00
-62.28
-74.76
-89.79
-108.66
-132.17
-160.84
-194.93
-234.71
-279.92
-329.41
-380.90
-431.60
-479.18
-522.57
-561.88
-597.13
-626.81
-647.17
-653.28
-641.26
-610.68
-565.40
-512.39
-459.06
-410.47
-368.06
-330.09
-293.51
-255.83
-216.23
-175.60
-135.79
-98.86
-65.87
-36.67
-10.07
15.66
41.98
69.74
99.21
130.39
162.90
195.38
224.64
245.72
253.49
245.52
224.32
197.27
173.47
158.84
152.82
148.77
137.97
114.76
79.86
39.40
1.27
-29.16
-50.81
-65.55
-75.73
-81.84
-82.86
-77.57
-66.22
-50.31
-31.72
-11.33
10.80
34.18
56.88
75.67
87.50
91.14
87.82
80.37
71.42
62.64
54.53
47.77
44.44
48.05
62.23
89.00
127.28
172.65
218.71
258.33
285.16
294.35
283.14
251.60
202.79
142.47
77.54
14.86
-40.23
-84.24
-116.01
-136.22
-147.02
-151.07
-150.66
-147.14
-140.65
-130.52
-115.80
-96.22
-72.93
-48.35
-25.91
-8.74
1.61
5.93
7.24
10.26
19.87
39.65
70.61
110.49
154.49
196.34
230.21
251.68
258.54
250.73
229.57
197.18
155.93
108.84
59.95
14.67
-21.51
-44.89
-55.54
-57.81
-58.72
-64.90
-79.59
-101.32
-124.94
-144.26
-154.88
-155.63
-148.23
-135.59
-120.16
-102.92
-83.73
-62.41
-39.75
-17.64
1.59
15.99
24.96
29.27
30.57
30.59
30.73
31.81
34.47
39.21
46.36
55.69
66.05
75.47
81.64
82.77
78.42
69.68
58.72
47.91
38.90
32.12
27.01
22.80
19.08
16.18
14.82
15.40
17.51
19.88
20.94
19.58
15.73
10.22
4.37
-0.77
-4.72
-7.68
-10.11
-12.55
-15.44
-19.31
-24.69
-31.80
-40.15
-48.29
-54.00
-55.18
-50.68
-40.83
-27.26
-12.08
2.88
16.50
28.15
37.38
43.50
45.79
44.00
38.84
32.33
27.40
27.32
34.71
50.78
74.73
103.69
133.06
157.48
172.11
173.80
161.81
138.01
106.37
71.93
39.73
13.68
-4.10
-13.11
-14.57
-10.94
-5.18
0.03
3.02
3.57
2.77
2.40
5.05
12.23
23.56
36.98
49.49
58.54
63.11
64.08
63.79
66.94
77.15
95.58
120.41
147.66
173.10
193.76
208.71
218.56
227.84
240.56
259.09
283.42
311.56
340.57
367.57
390.26
407.31
422.79
441.37
466.43
497.92
531.86
561.94
582.27
589.70
558.97
477.04
343.83
174.16
-7.86
-179.19
-325.22
-440.45
-525.47
-583.74
-616.12
-624.89
-614.51
-591.60
-563.45
-535.91
-511.91
-491.75
-474.32
-455.55
-432.93
-406.31
-377.81
-350.52
-326.86
-307.40
-291.23
-276.75
-261.35
-244.44
-227.27
-212.46
-202.80
-199.92
-204.08
-214.51
-229.63
-246.90
-263.43
-276.27
-283.03
-283.50
-279.96
-275.95
-273.90
-272.10
-265.40
-247.87
-216.50
-172.90
-124.13
-79.75
-47.50
-30.13
-23.87
-22.53
-20.77
-16.12
-6.64
8.30
29.31
57.65
87.84
117.58
144.88
167.74
184.18
196.63
208.04
220.71
235.48
252.19
271.56
293.56
317.16
340.44
365.60
394.27
426.31
459.58
491.39
520.92
548.54
575.82
576.33
536.02
456.56
353.87
245.15
138.50
34.45
-68.35
-167.98
-258.54
-329.14
-372.12
-385.53
-372.78
-339.91
-293.01
-238.58
-182.69
-131.92
-89.55
-57.27
-34.61
-19.76
-10.49
-4.56
-0.06
-1.40
-7.63
-15.81
-24.12
-31.85
-39.21
-47.07
-56.70
-70.12
-89.61
-115.65
-145.49
-173.45
-194.09
-203.05
-199.56
-186.43
-168.19
-148.63
-128.88
-108.88
-88.97
-70.97
-57.68
-50.89
-49.00
-47.39
-39.70
-22.02
3.98
31.99
54.80
67.85
70.68
66.37
58.81
51.03
44.34
38.73
34.07
30.92
29.99
31.21
33.73
36.03
36.89
36.06
34.29
32.91
33.28
35.88
39.96
44.08
46.49
46.22
43.21
38.32
32.96
28.88
27.69
30.22
35.85
41.46
42.32
33.61
12.67
-19.00
-55.52
-88.15
-109.04
-114.72
-107.07
-91.50
-73.98
-58.38
-45.68
-34.99
-25.35
-16.96
-10.89
-8.13
-8.48
-10.54
-12.37
-12.19
-9.41
-4.65
0.48
4.36
6.01
5.54
3.95
2.58
2.57
4.28
7.30
10.69
13.50
15.19
15.89
16.19
16.93
18.73
21.63
25.13
28.40
30.51
30.71
28.71
24.63
18.86
11.98
4.58
-2.72
-9.35
-14.76
-18.46
-20.14
-19.74
-17.48
-13.86
-9.64
-5.57
-2.34
-0.37
0.16
-0.54
-2.04
-3.74
-4.89
-4.85
-3.13
0.55
6.19
13.47
21.97
30.97
39.68
47.49
53.91
58.61
61.29
61.97
61.02
59.23
57.22
55.50
54.55
54.65
56.03
58.57
62.13
66.76
72.73
79.91
88.19
97.51
107.72
118.73
129.87
140.62
150.94
161.23
171.38
181.23
190.44
198.49
204.72
206.71
202.25
189.70
172.15
151.27
128.12
103.33
77.27
50.22
19.39
-16.74
-56.96
-97.74
-135.82
-168.94
-196.03
-216.93
-232.04
-247.33
-267.09
-291.65
-317.63
-341.40
-360.61
-374.46
-383.14
-387.43
-395.48
-413.42
-442.42
-478.82
-518.17
-557.50
-595.62
-632.36
-624.61
-552.47
-426.79
-281.66
-149.25
-45.14
29.96
82.60
120.96
151.81
172.40
179.73
174.31
160.55
143.37
125.88
109.49
95.59
86.80
81.60
80.32
85.18
98.17
117.87
139.23
156.36
166.02
168.97
165.29
156.34
143.81
129.29
113.42
97.43
83.47
74.36
72.57
77.36
86.97
99.72
114.19
128.04
137.20
136.22
120.68
90.22
49.61
8.80
-21.02
-32.38
-25.02
-5.63
15.74
30.42
34.36
28.56
17.40
5.55
-3.24
-6.10
-0.42
15.91
43.26
79.13
115.01
140.85
148.38
134.84
105.25
71.44
47.91
46.31
70.57
114.92
166.29
208.70
229.45
223.30
193.38
148.82
100.22
55.58
17.86
-14.23
-44.62
-77.27
-114.12
-154.24
-193.61
-226.04
-244.68
-244.33
-223.77
-187.50
-144.47
-105.10
-77.73
-66.43
-70.77
-87.45
-112.12
-139.81
-166.51
-187.51
-198.62
-197.16
-182.97
-158.38
-127.07
-93.13
-59.24
-29.84
-8.22
3.33
5.06
0.94
-2.06
3.06
19.79
47.10
75.10
92.91
91.72
68.99
29.49
-16.11
-55.33
-78.16
-78.11
-58.88
-26.24
13.17
54.94
98.02
143.46
191.64
226.25
255.88
270.20
264.37
240.47
207.45
177.89
162.60
166.36
186.85
219.25
254.22
287.19
316.43
341.01
358.27
363.08
349.73
315.16
263.13
199.52
134.66
78.10
35.51
7.30
-10.33
-22.93
-35.06
-47.65
-60.85
-72.38
-80.41
-85.10
-89.20
-96.97
-112.48
-137.49
-169.48
-203.15
-230.36
-242.96
-235.19
-205.63
-157.73
-99.25
-40.85
6.77
35.24
41.40
28.09
2.85
-25.44
-50.24
-69.92
-87.29
-106.60
-129.39
-152.57
-169.64
-174.50
-165.64
-147.17
-126.49
-109.68
-98.22
-89.03
-77.50
-61.74
-44.70
-33.09
-33.93
-50.87
-82.34
-122.09
-161.60
-192.70
-209.48
-209.10
-192.02
-161.37
-122.16
-79.68
-37.86
1.51
38.31
72.57
103.12
127.65
144.32
153.55
158.64
164.26
173.84
187.37
201.03
209.43
208.64
198.60
183.33
168.93
160.58
160.24
165.86
172.65
175.22
169.61
154.36
130.55
100.69
67.65
33.64
-0.14
-33.41
-66.34
-99.29
-132.59
-166.10
-198.79
-228.27
-250.66
-261.46
-256.87
-235.06
-196.55
-143.81
-80.37
-10.80
58.93
121.17
167.24
189.78
185.62
157.65
114.11
65.81
21.88
-13.19
-39.97
-62.55
-85.85
-113.82
-148.59
-190.32
-237.04
-284.50
-326.43
-356.00
-368.01
-360.86
-337.16
-302.56
-263.40
-224.41
-187.87
-154.05
-122.52
-93.19
-66.19
-41.41
-17.76
6.84
34.80
67.59
104.56
142.72
177.16
202.66
215.43
214.49
202.05
182.69
161.83
144.26
133.10
129.42
132.36
139.58
148.00
154.52
157.01
154.76
148.65
140.86
134.16
131.26
134.28
144.42
161.27
182.45
203.48
218.50
222.13
211.48
187.92
157.08
127.02
104.94
94.27
93.11
94.97
91.26
74.52
41.35
-6.15
-60.76
-112.42
-151.51
-172.08
-173.68
-160.79
-140.40
-118.87
-99.82
-84.15
-71.52
-62.47
-59.14
-64.31
-79.46
-103.56
-133.29
-164.59
-194.10
-219.48
-238.76
-249.83
-250.74
-240.92
-222.24
-198.69
-174.38
-151.10
-127.17
-98.60
-62.20
-18.59
26.62
64.62
86.78
88.10
69.08
35.44
-3.94
-39.49
-63.27
-70.74
-61.27
-37.76
-5.38
30.23
65.01
97.42
127.86
156.92
183.44
203.61
212.09
204.06
177.71
135.44
83.54
30.46
-15.63
-49.16
-68.55
-76.14
-77.14
-77.65
-82.68
-94.83
-113.82
-137.04
-160.52
-179.78
-190.51
-188.81
-171.71
-138.29
-90.86
-35.45
19.40
64.82
94.68
107.46
106.03
95.85
82.48
69.85
59.79
52.81
48.89
47.58
47.42
45.62
38.86
25.26
6.33
-12.43
-23.56
-21.40
-5.52
18.33
40.62
52.74
51.52
40.77
29.02
24.82
32.16
49.13
69.95
89.18
105.07
119.82
136.98
157.81
179.02
193.49
193.49
174.30
136.22
84.11
25.26
-32.99
-84.74
-125.86
-153.66
-166.46
-163.80
-146.45
-116.70
-78.16
-35.36
6.90
44.16
72.75
90.17
95.22
88.27
71.54
49.03
25.99
7.57
-2.95
-5.77
-5.13
-7.95
-21.01
-47.46
-84.70
-124.49
-155.95
-169.51
-160.36
-129.58
-82.97
-28.46
26.34
75.50
115.01
142.11
155.10
153.26
137.58
111.28
79.61
48.91
24.91
11.16
8.04
12.96
21.49
29.26
33.65
34.62
34.28
35.60
40.74
49.96
61.66
72.94
80.51
81.33
72.92
53.86
24.53
-12.08
-50.34
-82.89
-102.93
-106.58
-94.31
-70.61
-42.03
-14.63
7.81
24.21
35.39
42.62
46.61
47.33
44.51
38.27
29.42
19.39
9.72
1.57
-4.64
-9.29
-12.96
-16.05
-18.22
-18.59
-16.43
-11.89
-6.31
-1.63
0.75
0.66
-0.57
-0.95
1.27
6.86
15.20
24.30
30.92
31.32
22.62
4.68
-18.55
-39.66
-50.47
-45.94
-26.74
1.15
29.88
54.08
73.21
90.40
108.69
127.54
142.13
145.87
134.39
108.19
72.16
32.67
-5.58
-40.94
-74.10
-106.17
-136.98
-164.88
-187.46
-202.57
-208.92
-206.21
-194.78
-175.66
-150.98
-124.03
-98.87
-79.25
-67.17
-62.01
-61.02
-60.44
-57.26
-50.31
-40.17
-28.41
-16.75
-6.51
1.07
4.70
3.23
-3.39
-13.09
-21.49
-22.85
-12.23
12.24
47.98
88.26
124.18
147.62
153.91
143.31
120.78
94.19
71.64
59.05
58.55
68.37
83.85
99.20
109.03
109.59
99.23
78.48
49.53
15.75
-19.08
-51.21
-77.30
-95.09
-103.95
-105.13
-101.48
-96.29
-92.14
-90.10
-89.90
-90.77
-92.15
-93.85
-95.43
-95.56
-91.96
-82.30
-65.73
-43.97
-21.27
-2.95
6.84
6.69
-1.53
-13.55
-24.39
-29.98
-28.21
-19.36
-5.90
8.34
19.13
22.86
17.65
3.73
-16.43
-38.80
-59.16
-74.45
-83.92
-89.11
-93.09
-99.27
-109.92
-125.25
-142.98
-158.89
-167.99
-166.23
-151.99
-126.76
-94.64
-60.86
-29.86
-4.07
16.50
33.77
50.65
70.08
94.22
123.56
156.26
187.99
212.78
225.06
221.99
204.86
178.79
150.78
126.99
110.74
102.19
99.43
100.14
102.68
106.18
109.82
112.25
111.89
107.71
100.16
91.18
83.40
78.77
77.59
78.35
78.55
76.10
70.01
60.75
49.76
38.49
27.56
16.80
5.12
-8.71
-24.99
-42.43
-58.09
-68.28
-70.03
-62.35
-46.36
-25.55
-4.33
13.67
26.83
35.84
42.61
48.97
55.81
64.02
73.59
83.97
94.58
105.16
115.72
126.03
135.27
142.46
147.72
151.01
151.41
147.51
138.00
122.58
102.28
79.08
49.17
13.47
-23.52
-56.17
-80.26
-94.70
-100.68
-100.36
-95.93
-90.04
-83.92
-78.79
-76.99
-80.98
-92.51
-112.00
-137.61
-166.57
-195.80
-221.38
-235.18
-231.44
-208.48
-169.63
-121.38
-70.70
-23.07
18.22
52.47
80.25
101.65
116.42
123.26
120.91
108.74
86.57
54.98
15.43
-27.60
-69.29
-105.87
-135.61
-158.36
-174.84
-186.21
-193.83
-198.99
-202.67
-205.43
-206.07
-201.29
-186.55
-158.68
-118.41
-71.00
-24.52
13.59
38.92
51.42
54.32
51.85
47.03
40.89
33.39
24.84
16.66
10.69
8.04
8.26
9.54
9.71
7.23
2.37
-2.80
-5.70
-3.26
6.05
21.69
41.51
62.89
83.57
102.41
119.69
136.29
153.19
171.04
189.74
208.33
224.69
235.52
237.11
226.60
203.22
168.96
128.13
85.48
45.12
9.68
-19.77
-42.87
-59.29
-68.70
-71.63
-69.62
-65.70
-63.23
-64.70
-71.04
-82.06
-97.38
-117.37
-143.51
-173.58
-205.52
-236.36
-263.75
-287.54
-309.98
-334.17
-361.01
-388.33
-408.87
-415.53
-403.47
-372.52
-327.59
-276.43
-226.43
-181.90
-145.30
-113.90
-85.19
-55.26
-19.21
27.52
88.09
163.54
252.22
340.67
412.74
447.71
431.84
365.53
263.61
149.77
48.13
-18.81
-50.40
-50.73
-30.70
-0.12
35.66
75.41
121.01
169.23
218.15
253.69
286.05
310.45
313.43
287.07
231.16
153.80
68.37
-1.00
-52.46
-86.55
-106.51
-111.71
-102.67
-79.44
-45.52
-7.66
25.64
45.14
49.39
39.64
21.80
3.97
-6.44
-5.40
7.97
30.52
56.73
83.28
105.20
117.64
117.35
104.64
84.29
65.35
54.19
52.02
54.55
52.48
38.28
11.84
-18.04
-38.33
-37.61
-15.98
18.09
52.54
77.96
93.09
104.48
121.66
141.49
171.82
200.43
213.96
203.47
168.64
117.54
62.60
14.79
-20.83
-44.63
-63.78
-84.12
-108.27
-135.58
-163.67
-191.05
-218.19
-246.28
-274.20
-300.58
-321.86
-335.78
-343.59
-349.50
-357.75
-369.25
-380.04
-382.50
-371.23
-344.64
-306.71
-264.67
-225.02
-190.67
-160.81
-132.97
-105.57
-80.11
-59.28
-45.21
-38.20
-36.35
-36.62
-36.45
-34.83
-32.67
-32.23
-35.53
-43.16
-53.59
-63.39
-68.39
-65.17
-52.20
-30.32
-1.99
30.00
63.84
98.97
135.51
173.20
210.69
245.62
275.33
297.76
311.60
315.91
309.52
291.48
261.99
223.75
182.43
145.68
120.72
111.78
118.53
136.29
157.98
176.49
186.72
186.25
174.80
153.24
122.73
84.77
41.93
-1.43
-39.45
-66.07
-77.05
-71.76
-53.60
-28.65
-3.26
18.33
34.99
47.94
58.90
68.28
74.54
75.06
67.83
52.91
32.79
11.58
-6.54
-18.67
-23.79
-22.55
-16.41
-7.11
3.54
13.63
21.26
24.94
24.55
21.70
19.57
21.86
31.41
48.96
72.66
98.22
119.82
131.58
129.11
110.78
78.34
36.34
-9.20
-52.72
-90.52
-121.33
-145.56
-164.07
-176.86
-182.61
-179.11
-164.18
-136.89
-98.45
-52.80
-6.16
34.34
63.14
78.16
81.66
79.04
76.18
76.67
80.39
84.02
83.36
75.67
60.86
40.91
18.41
-4.64
-27.17
-48.20
-66.08
-78.26
-82.03
-75.54
-58.83
-33.98
-4.84
24.02
48.46
65.85
75.54
78.66
77.40
74.00
69.80
64.58
56.91
44.88
27.25
4.32
-21.75
-47.30
-68.22
-81.21
-84.77
-79.41
-67.23
-50.99
-33.14
-15.38
1.31
16.20
28.49
37.19
41.51
41.29
37.18
30.61
23.43
17.46
13.84
12.79
13.54
14.69
14.68
12.12
5.90
-5.00
-21.34
-43.27
-69.57
-97.48
-123.06
-142.48
-153.32
-155.30
-149.98
-139.55
-125.64
-108.83
-89.05
-66.62
-42.91
-20.51
-2.74
7.12
6.76
-4.38
-24.43
-48.90
-71.54
-86.08
-88.54
-78.66
-59.86
-37.60
-16.99
-1.00
9.93
16.81
20.81
22.31
21.20
17.75
13.13
9.17
7.46
8.42
11.00
13.29
13.74
11.98
8.99
6.30
5.02
5.23
6.04
6.33
5.51
3.87
2.43
2.46
4.99
10.62
19.48
31.25
45.12
59.76
73.34
83.77
89.22
88.59
82.01
70.86
57.45
44.43
34.08
27.60
24.80
24.28
24.14
22.80
19.73
15.62
11.89
10.00
10.73
13.83
18.20
22.31
24.83
24.98
22.72
18.63
13.68
8.84
5.09
3.16
3.57
6.53
11.77
18.46
25.38
31.23
35.09
36.79
36.83
36.08
35.37
35.06
35.04
34.83
33.89
31.81
28.43
23.89
18.68
13.69
9.83
7.75
7.46
8.30
9.32
9.80
9.66
9.49
10.30
12.91
17.67
24.33
32.17
40.43
48.43
55.66
61.76
66.56
70.13
72.85
75.22
77.81
81.02
84.78
88.50
91.19
91.92
90.08
85.90
80.49
75.82
74.49
77.95
85.70
95.02
102.02
103.36
97.95
87.37
74.91
64.30
57.30
53.40
50.78
47.93
44.58
41.50
39.48
38.29
37.14
33.98
26.40
12.51
-8.28
-35.10
-65.95
-98.02
-132.01
-165.28
-193.96
-214.37
-225.04
-226.85
-221.96
-212.62
-200.42
-186.42
-170.80
-154.83
-140.25
-129.53
-125.00
-128.36
-140.89
-163.54
-196.85
-239.38
-286.39
-329.47
-359.13
-368.21
-355.10
-324.89
-287.31
-254.90
-232.08
-218.95
-211.78
-205.86
-197.24
-184.23
-167.32
-147.62
-125.36
-98.15
-65.02
-25.47
18.85
63.78
103.68
133.60
151.58
159.50
162.45
165.80
172.96
184.26
196.93
207.36
212.98
213.52
209.66
201.40
186.37
160.87
122.87
74.74
24.48
-16.91
-40.04
-42.02
-27.32
-4.96
17.08
36.60
57.11
84.72
122.47
166.71
207.77
234.26
238.78
221.65
191.43
159.81
137.42
129.18
132.17
137.65
135.27
117.87
84.98
44.27
5.52
-20.97
-29.82
-23.01
-8.88
1.71
0.40
-14.75
-37.26
-59.91
-74.81
-79.14
-76.53
-74.60
-80.08
-94.48
-112.81
-124.17
-122.58
-104.89
-73.93
-36.62
-0.12
31.47
57.95
68.82
82.79
99.02
117.10
135.35
151.62
163.75
169.56
167.39
156.90
141.65
122.62
102.92
84.23
66.18
47.57
28.72
12.67
3.93
6.75
17.30
28.20
30.18
17.16
-10.13
-44.21
-74.80
-93.90
-98.35
-92.66
-83.11
-75.22
-71.70
-72.44
-75.81
-79.95
-83.43
-84.75
-83.52
-79.34
-72.50
-64.06
-55.62
-48.64
-44.04
-41.91
-41.52
-42.15
-42.99
-43.36
-42.77
-40.83
-37.28
-32.18
-26.05
-19.92
-15.00
-12.35
-12.28
-14.20
-16.82
-18.60
-18.41
-15.93
-11.73
-6.88
-2.45
0.94
3.27
4.93
6.38
7.88
9.45
10.92
12.11
12.88
13.13
12.79
11.81
10.18
8.04
5.69
3.52
1.84
0.84
0.51
0.76
1.46
2.43
3.40
4.06
4.07
3.35
2.17
1.02
0.45
0.67
1.46
2.30
2.59
2.04
0.81
-0.58
-1.58
-1.84
-1.43
-0.68
-0.02
0.24
-0.02
-0.67
-1.39
-1.83
-1.72
-1.02
0.00
0.87
1.11
0.39
-1.27
-3.58
-6.09
-8.36
-10.10
-11.15
-11.46
-11.03
-9.94
-8.39
-6.70
-5.30
-4.57
-4.69
-5.64
-7.17
-8.89
-10.41
-11.44
-11.83
-11.63
-11.01
-10.23
-9.51
-8.93
-8.37
-7.58
-6.34
-4.64
-2.78
-1.28
-0.70
-1.39
-3.31
-6.10
-9.16
-11.88
-13.75
-14.44
-13.82
-11.96
-9.19
-6.06
-3.22
-1.33
-0.76
-1.51
-3.16
-5.07
-6.52
-6.93
-5.99
-3.68
-0.24
3.92
8.31
12.40
15.75
18.04
19.13
19.07
18.07
16.46
14.56
12.63
10.85
9.30
7.99
6.98
6.31
6.05
6.19
6.65
7.19
7.50
7.25
6.16
4.16
1.40
-1.75
-4.83
-7.50
-9.81
-12.28
-15.81
-21.30
-29.24
-39.24
-50.03
-59.73
-66.45
-68.82
-66.44
-59.82
-50.11
-38.66
-26.73
-15.32
-5.18
3.13
9.34
13.45
15.88
17.30
18.46
19.97
22.02
24.43
26.69
28.27
28.82
28.30
27.01
25.40
23.91
22.82
22.19
21.87
21.58
21.02
20.00
18.53
16.80
15.06
13.40
11.85
10.28
8.63
7.00
5.60
4.70
4.39
4.57
4.90
5.05
4.81
4.15
3.24
2.27
1.37
0.53
-0.32
-1.26
-2.28
-3.32
-4.27
-5.01
-5.43
-5.46
-5.08
-4.31
-3.27
-2.17
-1.22
-0.66
-0.54
-0.80
-1.20
-1.50
-1.64
-1.67
-1.77
-2.05
-2.49
-2.87
-2.99
-2.74
-2.17
-1.45
-0.75
-0.12
0.51
1.26
2.21
3.26
4.22
4.85
5.01
4.71
4.10
3.42
2.81
2.25
1.57
0.56
-0.78
-2.17
-3.03
-2.82
-1.28
1.33
4.30
6.74
7.94
7.74
6.49
4.84
3.39
2.44
1.90
1.49
0.98
0.37
-0.18
-0.41
-0.24
0.22
0.65
0.78
0.55
0.21
0.17
0.78
2.15
3.97
5.71
6.80
6.95
6.20
4.90
3.42
2.04
0.83
-0.24
-1.17
-1.80
-1.90
-1.27
0.13
2.08
4.20
6.01
7.11
7.26
6.49
5.05
3.39
1.90
0.80
0.04
-0.67
-1.61
-2.85
-4.18
-5.19
-5.52
-5.03
-3.89
-2.42
-0.97
0.27
1.28
2.07
2.66
3.00
3.05
2.85
2.50
2.12
1.75
1.38
0.90
0.30
-0.34
-0.81
-0.92
-0.60
0.07
0.87
1.61
2.16
2.51
2.67
2.62
2.28
1.60
0.63
-0.44
-1.37
-2.00
-2.30
-2.39
-2.48
-2.66
-2.95
-3.20
-3.23
-2.88
-2.06
-0.79
0.85
2.67
4.48
6.02
7.15
7.77
7.92
7.67
7.15
6.50
5.80
5.13
4.50
3.94
3.42
3.00
2.67
2.50
2.51
2.74
3.17
3.69
4.14
4.28
3.93
3.05
1.78
0.45
-0.64
-1.33
-1.67
-1.84
-2.07
-2.45
-2.90
-3.30
-3.52
-3.53
-3.40
-3.18
-2.88
-2.51
-2.06
-1.55
-1.04
-0.60
-0.25
0.01
0.16
0.20
0.08
-0.19
-0.54
-0.89
-1.15
-1.29
-1.35
-1.35
-1.28
-1.11
-0.84
-0.56
-0.47
-0.78
-1.54
-2.62
-3.68
-4.39
-4.55
-4.19
-3.54
-2.89
-2.38
-2.07
-1.91
-1.86
-1.97
-2.30
-2.79
-3.28
-3.49
-3.13
-2.10
-0.51
1.32
2.96
4.09
4.56
4.37
3.74
2.87
1.95
1.05
0.20
-0.59
-1.24
-1.69
-1.85
-1.71
-1.30
-0.65
0.21
1.26
2.34
3.25
3.64
3.28
2.19
0.60
-1.00
-2.21
-2.77
-2.75
-2.39
-2.00
-1.83
-1.96
-2.36
-2.90
-3.44
-3.79
-3.75
-3.20
-2.14
-0.76
0.58
1.51
1.78
1.33
0.34
-0.94
-2.19
-3.22
-3.91
-4.18
-4.03
-3.48
-2.63
-1.67
-0.83
-0.26
-0.03
0.00
0.03
0.16
0.44
0.75
0.95
0.97
0.80
0.49
0.06
-0.45
-1.02
-1.55
-1.93
-2.05
-1.95
-1.76
-1.64
-1.73
-1.99
-2.23
-2.19
-1.70
-0.70
0.73
2.39
4.10
5.60
6.67
7.07
6.71
5.71
4.33
2.93
1.73
0.87
0.31
0.01
-0.07
0.11
0.54
1.15
1.78
2.26
2.50
2.54
2.48
2.37
2.18
1.84
1.28
0.56
-0.18
-0.77
-1.11
-1.26
-1.37
-1.58
-1.92
-2.37
-2.88
-3.41
-3.93
-4.36
-4.53
-4.26
-3.45
-2.16
-0.63
0.84
1.95
2.54
2.57
2.10
1.28
0.28
-0.76
-1.67
-2.33
-2.69
-2.74
-2.58
-2.25
-1.85
-1.45
-1.09
-0.82
-0.63
-0.55
-0.63
-0.93
-1.45
-2.18
-2.97
-3.59
-3.84
-3.62
-3.02
-2.28
-1.69
-1.44
-1.60
-2.09
-2.70
-3.14
-3.08
-2.26
-0.53
2.16
5.58
9.25
12.47
14.54
15.06
14.14
12.39
10.78
10.43
11.99
15.28
19.30
22.68
24.49
24.67
24.07
24.01
26.04
30.92
38.27
46.64
54.23
59.75
63.01
64.73
66.13
68.99
74.45
82.51
91.84
100.33
105.97
107.52
104.54
97.57
89.46
84.55
87.53
101.35
125.33
154.46
180.56
194.99
185.88
148.55
87.76
16.53
-49.97
-101.63
-136.46
-158.05
-171.09
-178.26
-179.18
-173.10
-160.90
-145.66
-131.43
-121.29
-116.04
-114.21
-113.27
-110.18
-103.33
-92.97
-81.08
-70.34
-62.71
-58.62
-57.05
-56.29
-54.39
-50.26
-44.00
-36.78
-30.19
-25.41
-22.73
-21.56
-21.00
-20.01
-18.01
-15.01
-11.56
-8.38
-6.02
-4.61
-3.92
-3.56
-3.12
-2.35
-1.23
0.06
1.31
2.33
3.08
3.60
3.98
4.28
4.57
4.86
5.15
5.46
5.79
6.16
6.56
7.01
7.53
8.14
8.91
9.87
11.04
12.43
13.98
15.59
17.09
18.28
18.98
19.06
18.45
17.18
15.42
13.47
11.75
10.67
10.59
11.72
14.06
17.39
21.25
25.07
28.23
30.30
31.00
30.25
28.17
24.97
20.94
16.37
11.56
6.78
2.24
-1.87
-5.37
-8.24
-10.55
-12.50
-14.43
-16.64
-19.39
-22.69
-26.34
-29.96
-33.20
-35.83
-37.91
-39.68
-41.49
-43.54
-45.71
-47.50
-48.27
-47.50
-45.13
-41.63
-37.95
-35.15
-34.00
-34.72
-36.73
-39.28
-41.57
-43.05
-43.57
-43.27
-42.52
-42.02
-42.90
-46.26
-52.79
-61.44
-68.64
-68.79
-56.15
-27.75
14.61
64.12
111.35
147.53
167.77
172.18
164.52
149.49
130.47
108.91
84.05
57.70
33.18
14.00
1.80
-4.93
-10.27
-18.67
-32.34
-49.88
-66.88
-78.76
-83.44
-82.43
-79.91
-80.10
-84.61
-91.44
-96.31
-95.48
-88.70
-79.87
-74.76
-77.40
-87.55
-100.52
-109.87
-111.05
-103.74
-91.52
-78.78
-67.40
-55.28
-37.78
-10.87
25.97
69.02
111.78
147.32
170.56
179.47
175.06
160.79
141.74
123.16
109.11
101.23
98.34
97.21
94.43
88.08
78.46
67.36
56.15
44.66
31.42
15.49
-1.90
-16.86
-24.69
-22.74
-12.55
0.19
8.22
6.37
-5.71
-23.37
-39.48
-48.12
-47.42
-40.12
-31.90
-28.23
-31.73
-41.16
-52.39
-60.61
-62.60
-58.13
-49.77
-41.46
-36.60
-36.56
-40.39
-45.71
-50.20
-52.88
-54.32
-55.92
-58.62
-61.92
-63.97
-62.64
-56.79
-47.04
-35.61
-25.15
-17.44
-12.69
-9.76
-7.10
-3.72
0.42
4.75
8.70
12.23
15.77
19.74
24.13
28.26
31.21
32.43
32.15
31.31
31.02
31.84
33.52
35.26
36.20
35.96
34.79
33.16
31.32
29.05
25.73
20.87
14.54
7.54
1.11
-3.58
-6.08
-6.78
-6.86
-7.66
-10.11
-14.26
-19.22
-23.52
-25.65
-24.73
-20.77
-14.57
-7.43
-0.62
4.87
8.50
10.13
9.92
8.30
5.93
3.65
2.17
1.93
2.83
4.30
5.46
5.65
4.63
2.83
1.08
0.21
0.66
2.16
3.97
5.11
4.75
2.55
-1.36
-6.45
-11.99
-17.17
-21.22
-23.57
-23.98
-22.66
-20.25
-17.56
-15.23
-13.48
-12.01
-10.19
-7.42
-3.27
2.23
8.69
15.47
21.88
27.38
31.62
34.53
36.21
36.77
36.38
35.17
33.31
31.02
28.59
26.21
24.02
22.00
20.20
18.77
17.95
17.90
18.50
19.20
19.21
17.85
14.95
10.92
6.69
3.29
1.50
1.53
2.93
4.78
5.98
5.78
4.16
2.04
1.01
2.83
8.63
18.32
30.47
42.80
52.98
59.50
62.08
61.53
59.31
56.75
54.71
53.49
53.04
53.47
55.20
58.87
64.50
70.89
75.58
75.60
68.64
54.18
33.44
8.67
-17.82
-44.10
-68.37
-88.25
-100.76
-103.22
-94.86
-77.95
-57.53
-39.44
-27.79
-23.48
-24.41
-27.29
-29.69
-30.91
-31.37
-31.50
-30.97
-28.91
-25.05
-20.49
-17.83
-20.07
-29.14
-44.85
-64.60
-84.21
-99.24
-106.46
-104.76
-95.55
-82.24
-69.02
-59.49
-55.29
-55.73
-58.29
-59.87
-58.13
-52.32
-43.26
-32.40
-21.24
-10.46
-0.19
9.71
19.16
27.76
35.04
40.80
45.22
48.54
50.82
51.65
50.53
47.27
42.40
36.99
32.22
28.74
26.55
25.38
25.18
26.28
29.10
33.57
38.72
43.02
45.02
44.07
40.69
36.24
32.23
29.71
28.80
28.88
29.00
28.30
26.48
23.83
21.00
18.64
17.07
16.12
15.37
14.46
13.29
12.11
11.13
10.32
9.29
7.55
4.88
1.53
-1.70
-4.22
-5.69
-6.42
-6.94
-7.58
-8.13
-8.04
-6.96
-5.15
-3.37
-2.26
-1.61
-0.37
2.80
8.44
15.82
23.10
28.36
30.46
29.62
26.88
23.46
20.17
17.32
15.15
13.89
13.78
14.88
16.86
19.15
21.22
22.86
23.87
24.24
23.85
22.81
21.52
20.64
20.66
21.43
22.23
22.17
20.98
19.24
18.25
19.08
21.85
25.56
28.52
29.14
26.38
20.15
11.38
2.03
-5.20
-7.48
-3.02
7.68
21.34
32.68
36.43
29.68
13.22
-8.82
-30.92
-48.51
-59.56
-64.77
-66.41
-66.81
-67.28
-67.81
-67.64
-66.02
-62.80
-58.63
-54.49
-51.20
-48.91
-47.02
-44.50
-40.54
-35.12
-29.11
-23.91
-20.68
-19.83
-20.86
-22.60
-23.70
-23.14
-20.50
-15.91
-10.01
-3.67
2.19
6.90
10.14
12.05
13.13
13.92
14.76
15.63
16.11
15.79
14.52
12.57
10.56
9.12
8.54
8.68
9.12
9.49
9.72
9.97
10.51
11.36
12.14
12.20
10.98
8.30
4.57
0.54
-3.05
-5.71
-7.44
-8.54
-9.33
-10.02
-10.62
-11.08
-11.37
-11.57
-11.69
-11.61
-11.06
-9.68
-7.27
-3.99
-0.33
3.13
5.87
7.70
8.75
9.33
9.78
10.26
10.70
10.97
10.95
10.67
10.34
10.30
10.92
12.38
14.59
17.19
19.68
21.57
22.46
22.20
20.86
18.69
15.98
13.03
10.14
7.55
5.42
3.76
2.46
1.31
0.10
-1.29
-2.77
-3.97
-4.43
-3.72
-1.63
1.79
6.12
10.69
14.77
17.71
19.15
19.08
17.82
15.92
13.97
12.37
11.20
10.31
9.37
8.14
6.54
4.78
3.20
2.10
1.65
1.77
2.21
2.57
2.44
1.50
-0.35
-2.98
-6.04
-9.12
-11.82
-13.90
-15.40
-16.53
-17.56
-18.65
-19.84
-20.98
-21.83
-22.14
-21.64
-20.15
-17.54
-13.79
-9.05
-3.68
1.78
6.69
10.50
12.90
13.84
13.61
12.66
11.49
10.45
9.76
9.40
9.24
9.11
8.84
8.36
7.70
7.00
6.44
6.17
6.17
6.27
6.22
5.73
4.63
2.93
0.81
-1.47
-3.71
-5.85
-7.91
-9.98
-12.11
-14.28
-16.38
-18.29
-19.91
-21.08
-21.64
-21.29
-19.75
-16.86
-12.77
-8.02
-3.41
0.24
2.39
2.94
2.27
0.96
-0.40
-1.51
-2.31
-3.00
-3.69
-4.43
-5.15
-5.69
-5.89
-5.68
-5.10
-4.32
-3.62
-3.35
-3.74
-4.86
-6.66
-8.97
-11.70
-14.79
-18.02
-20.84
-22.33
-21.46
-17.70
-11.43
-3.94
3.08
8.37
11.76
14.14
16.71
20.29
24.66
28.84
31.74
32.87
32.58
31.80
31.33
31.40
31.62
31.35
30.16
28.20
26.07
24.50
23.93
24.31
25.13
25.70
25.47
24.26
22.29
19.98
17.67
15.46
13.19
10.65
7.74
4.55
1.28
-1.92
-5.07
-8.28
-11.60
-14.96
-18.12
-20.83
-22.94
-24.35
-25.03
-24.75
-23.24
-20.30
-16.04
-11.01
-6.08
-2.08
0.48
1.65
1.92
1.91
2.04
2.31
2.42
2.00
0.89
-0.75
-2.49
-3.85
-4.46
-4.22
-3.28
-1.90
-0.44
0.81
1.62
1.81
1.37
0.40
-0.85
-2.15
-3.33
-4.36
-5.31
-6.30
-7.40
-8.57
-9.73
-10.71
-11.32
-11.40
-10.87
-9.73
-8.08
-6.08
-3.99
-2.08
-0.64
0.11
0.17
-0.30
-0.95
-1.44
-1.57
-1.37
-1.06
-0.85
-0.83
-0.84
-0.64
-0.08
0.81
1.74
2.37
2.48
2.09
1.34
0.41
-0.67
-1.94
-3.45
-5.07
-6.60
-7.79
-8.53
-8.92
-9.23
-9.74
-10.60
-11.73
-12.87
-13.71
-13.92
-13.29
-11.69
-9.20
-6.09
-2.80
0.16
2.39
3.76
4.41
4.55
4.43
4.17
3.80
3.28
2.61
1.89
1.25
0.81
0.60
0.64
0.83
1.12
1.47
1.85
2.23
2.51
2.47
1.81
0.35
-1.80
-4.22
-6.31
-7.69
-8.24
-8.26
-8.25
-8.64
-9.56
-10.94
-12.54
-14.12
-15.57
-16.73
-17.39
-17.27
-16.13
-13.98
-11.16
-8.28
-5.98
-4.73
-4.57
-5.11
-5.69
-5.63
-4.60
-2.69
-0.46
1.46
2.54
2.68
2.10
1.23
0.51
0.21
0.45
1.19
2.29
3.52
4.55
5.12
5.09
4.60
3.98
3.55
3.46
3.62
3.72
3.53
2.97
2.13
1.23
0.41
-0.24
-0.60
-0.46
0.41
2.13
4.52
7.08
9.15
10.25
10.30
9.68
8.96
8.57
8.58
8.77
8.76
8.38
7.79
7.49
8.04
9.83
12.78
16.30
19.52
21.58
22.01
21.04
19.46
18.34
18.54
20.29
23.03
25.65
26.94
26.33
24.10
21.39
19.65
19.99
22.75
27.30
32.35
36.17
37.03
33.32
24.04
9.34
-8.90
-27.15
-41.25
-48.04
-47.04
-40.75
-33.60
-29.59
-30.34
-34.50
-38.89
-40.56
-38.51
-34.09
-29.89
-28.12
-29.33
-32.35
-35.14
-35.94
-34.09
-30.30
-26.22
-23.80
-24.56
-29.12
-36.94
-46.29
-54.69
-59.84
-60.66
-58.04
-54.85
-55.03
-61.84
-76.37
-96.75
-118.64
-136.70
-146.36
-145.01
-132.53
-111.02
-84.04
-56.01
-31.33
-13.47
-3.99
-1.91
-3.93
-5.72
-3.73
3.49
14.87
27.60
38.75
46.56
50.97
53.29
55.09
57.31
59.72
61.09
59.98
55.66
48.52
40.15
32.66
27.66
25.64
25.79
26.43
26.00
23.75
20.19
16.68
14.77
15.42
18.64
23.63
29.17
34.27
38.41
41.67
44.48
47.42
50.83
54.81
59.13
63.25
66.54
68.36
68.36
66.62
63.74
60.69
58.35
57.13
56.73
56.34
55.12
52.58
48.69
43.66
37.72
31.07
24.06
17.37
11.96
8.71
7.83
8.57
9.43
8.86
6.04
1.37
-3.82
-7.89
-9.79
-9.57
-8.29
-7.47
-8.25
-10.85
-14.40
-17.47
-18.78
-17.93
-15.56
-12.93
-11.18
-10.69
-10.91
-10.77
-9.45
-6.95
-4.14
-2.22
-1.92
-3.06
-4.58
-5.24
-4.38
-2.33
-0.23
0.72
-0.04
-2.04
-4.09
-5.00
-4.29
-2.54
-0.98
-0.77
-2.27
-4.88
-7.41
-8.74
-8.37
-6.59
-4.20
-2.00
-0.45
0.47
0.97
1.23
1.16
0.58
-0.63
-2.25
-3.73
-4.36
-3.59
-1.29
2.05
5.41
7.61
7.75
5.61
1.70
-3.01
-7.55
-11.34
-14.21
-16.27
-17.59
-18.00
-17.24
-15.19
-12.23
-9.14
-6.88
-6.11
-6.90
-8.73
-10.77
-12.27
-12.87
-12.65
-12.05
-11.63
-11.75
-12.45
-13.39
-13.92
-13.36
-11.16
-7.20
-1.83
4.14
9.76
14.22
16.99
17.93
17.15
14.93
11.67
7.89
4.19
1.20
-0.63
-1.21
-0.87
-0.32
-0.33
-1.52
-4.06
-7.63
-11.53
-14.87
-16.91
-17.18
-15.77
-13.16
-10.08
-7.29
-5.28
-4.28
-4.26
-5.10
-6.65
-8.78
-11.30
-13.95
-16.42
-18.38
-19.63
-20.06
-19.67
-18.54
-16.78
-14.53
-11.98
-9.30
-6.58
-3.56
0.27
5.54
12.44
20.50
28.45
34.59
37.45
36.39
31.90
25.33
18.37
12.33
7.84
4.88
3.16
2.43
2.63
3.69
5.31
6.89
7.77
7.50
6.17
4.28
2.60
1.60
1.20
0.68
-0.85
-4.07
-9.00
-15.00
-21.01
-25.97
-29.15
-30.29
-29.50
-27.05
-23.24
-18.31
-12.56
-6.46
-0.61
4.31
7.83
9.89
10.85
11.33
11.93
12.92
14.21
15.44
16.35
16.98
17.79
19.41
22.20
26.02
30.17
33.71
35.82
36.07
34.44
31.22
26.75
21.39
15.51
9.63
4.36
0.28
-2.41
-3.97
-5.02
-6.18
-7.75
-9.58
-11.23
-12.23
-12.40
-11.97
-11.42
-11.15
-11.40
-12.11
-13.11
-14.27
-15.48
-16.54
-17.14
-16.87
-15.43
-12.80
-9.36
-5.77
-2.66
-0.42
1.02
1.95
2.81
3.82
5.03
6.31
7.55
8.62
9.38
9.76
9.70
9.25
8.60
8.02
7.75
7.90
8.33
8.79
8.91
8.37
6.89
4.32
0.78
-3.30
-7.18
-10.07
-11.40
-11.10
-9.55
-7.35
-5.07
-3.02
-1.33
-0.18
0.18
-0.62
-2.67
-5.76
-9.27
-12.52
-15.00
-16.59
-17.39
-17.55
-17.11
-15.88
-13.75
-10.73
-7.11
-3.40
-0.17
2.01
2.80
2.17
0.47
-1.64
-3.37
-4.17
-3.88
-2.84
-1.78
-1.44
-2.29
-4.29
-6.84
-9.20
-10.70
-11.07
-10.52
-9.48
-8.31
-7.13
-5.77
-3.94
-1.55
1.13
3.47
4.81
4.85
3.85
2.61
1.99
2.51
4.03
5.90
7.38
7.97
7.80
7.42
7.43
8.05
9.05
9.82
9.83
8.91
7.29
5.50
4.03
3.29
3.51
4.85
7.28
10.41
13.60
15.91
16.45
14.73
10.82
5.41
-0.48
-5.83
-9.85
-12.23
-13.26
-13.59
-14.01
-15.05
-16.69
-18.39
-19.33
-18.92
-17.13
-14.60
-12.24
-10.80
-10.48
-10.95
-11.62
-12.02
-12.05
-11.79
-11.34
-10.57
-9.15
-6.86
-3.78
-0.35
2.76
4.96
6.05
6.23
5.96
5.71
5.64
5.67
5.52
5.00
3.99
2.58
1.02
-0.37
-1.22
-1.18
0.03
2.45
5.77
9.45
12.80
15.21
16.40
16.51
16.00
15.43
15.29
15.85
17.11
18.92
21.00
23.01
24.59
25.33
24.85
22.96
19.67
15.28
10.31
5.45
1.32
-1.61
-3.18
-3.68
-3.71
-4.00
-5.10
-7.29
-10.39
-13.98
-17.49
-20.40
-22.36
-23.26
-23.23
-22.54
-21.44
-20.04
-18.24
-15.77
-12.37
-8.01
-3.09
1.64
5.31
7.22
7.07
5.02
1.66
-2.21
-5.76
-8.36
-9.79
-10.22
-10.09
-9.82
-9.66
-9.56
-9.43
-9.28
-9.28
-9.69
-10.58
-11.75
-12.70
-12.93
-12.13
-10.44
-8.26
-6.03
-4.09
-2.54
-1.41
-0.70
-0.44
-0.59
-0.95
-1.18
-0.93
-0.03
1.31
2.63
3.36
3.12
1.86
-0.12
-2.32
-4.24
-5.63
-6.51
-7.13
-7.72
-8.29
-8.54
-8.03
-6.45
-3.82
-0.56
2.70
5.32
6.92
7.43
7.05
6.07
4.78
3.49
2.43
1.74
1.40
1.17
0.65
-0.45
-2.25
-4.61
-7.17
-9.54
-11.38
-12.38
-12.31
-10.99
-8.45
-4.98
-1.18
2.27
4.85
6.37
7.07
7.36
7.63
8.03
8.47
8.74
8.70
8.30
7.64
6.86
6.05
5.37
4.94
4.91
5.34
6.15
7.07
7.73
7.78
7.07
5.68
3.93
2.24
0.98
0.26
-0.04
-0.30
-0.96
-2.32
-4.40
-6.86
-9.08
-10.33
-10.08
-8.17
-4.91
-0.89
3.15
6.67
9.39
11.34
12.72
13.73
14.44
14.77
14.63
14.02
13.05
11.90
10.76
9.75
8.94
8.36
8.01
7.81
7.68
7.45
6.94
6.01
4.66
2.96
1.12
-0.71
-2.39
-3.87
-5.13
-6.25
-7.31
-8.35
-9.41
-10.48
-11.48
-12.29
-12.69
-12.45
-11.40
-9.43
-6.64
-3.28
0.21
3.36
5.75
7.10
7.45
7.03
6.27
5.58
5.13
4.93
4.80
4.61
4.36
4.19
4.31
4.80
5.58
6.44
7.17
7.55
7.51
6.98
5.93
4.36
2.40
0.28
-1.72
-3.35
-4.54
-5.40
-6.19
-7.19
-8.58
-10.39
-12.47
-14.49
-16.04
-16.69
-16.13
-14.22
-11.08
-7.02
-2.56
1.71
5.26
7.74
9.06
9.44
9.22
8.75
8.26
7.77
7.17
6.39
5.44
4.42
3.46
2.69
2.08
1.63
1.34
1.24
1.36
1.58
1.65
1.31
0.33
-1.26
-3.23
-5.18
-6.71
-7.60
-7.85
-7.76
-7.71
-8.15
-9.37
-11.37
-13.81
-16.02
-17.26
-16.87
-14.68
-10.99
-6.53
-2.12
1.63
4.47
6.50
7.95
9.20
10.65
12.83
16.11
20.44
25.27
29.54
32.18
32.61
31.04
28.22
25.11
22.21
19.55
17.01
14.59
12.71
11.94
12.49
13.95
15.50
16.46
16.84
17.49
19.64
24.09
30.54
37.60
43.26
45.89
45.07
41.79
38.09
35.97
36.21
37.91
38.54
34.96
24.79
7.68
-14.52
-38.14
-58.88
-72.85
-77.45
-71.74
-56.53
-34.52
-9.63
14.13
34.37
51.37
68.32
90.11
120.71
160.97
207.30
252.63
289.06
311.18
318.36
314.65
306.47
299.04
293.65
287.13
273.70
248.85
213.00
172.84
139.33
123.11
129.25
154.66
189.28
220.63
239.05
241.27
230.44
213.04
194.81
178.09
161.80
143.51
121.45
96.77
73.18
54.64
42.76
35.73
29.37
19.28
3.04
-19.60
-46.19
-72.63
-95.00
-111.17
-121.35
-127.24
-130.66
-132.41
-133.61
-133.77
-130.73
-121.83
-105.77
-83.43
-57.27
-30.21
-4.68
12.69
17.89
11.57
-1.96
-18.54
-36.42
-55.96
-78.29
-104.19
-143.98
-203.30
-278.54
-358.58
-432.49
-494.67
-544.38
-583.53
-614.55
-655.80
-718.68
-799.93
-884.23
-956.18
-1008.62
-1042.07
-1061.16
-1071.41
-1098.87
-1160.14
-1252.48
-1357.36
-1455.78
-1539.15
-1608.38
-1669.27
-1592.97
-1321.31
-897.59
-438.44
-42.88
253.84
463.84
616.33
737.56
843.19
916.12
940.10
915.55
858.93
796.78
748.20
721.65
716.43
726.57
727.82
703.72
655.51
599.24
553.30
530.36
535.45
563.38
606.75
647.37
671.59
675.68
664.81
631.81
574.44
500.54
426.69
368.27
325.88
292.92
263.28
234.97
207.94
182.72
157.22
127.57
91.18
47.73
1.50
-40.89
-74.15
-96.73
-107.66
-106.53
-92.33
-66.34
-32.79
0.43
23.56
28.38
12.54
-17.67
-51.47
-78.24
-92.39
-94.36
-88.70
-81.58
-77.45
-76.81
-76.30
-73.36
-68.02
-62.97
-60.18
-59.18
-56.92
-49.43
-34.08
-9.96
20.36
52.14
80.12
100.19
110.78
113.42
112.99
111.47
113.42
120.97
130.96
134.87
122.54
87.84
33.44
-28.51
-81.24
-110.23
-110.85
-89.71
-60.50
-37.03
-27.48
-32.79
-48.90
-70.83
-95.03
-120.70
-148.01
-175.94
-201.50
-220.49
-229.64
-228.37
-219.12
-205.99
-193.05
-182.19
-172.31
-159.92
-140.93
-112.76
-75.63
-32.69
11.23
51.01
82.58
103.70
114.20
115.76
111.60
105.57
101.07
99.87
101.42
103.26
102.41
97.31
89.09
81.46
78.98
84.73
98.67
117.43
135.73
148.49
152.88
149.15
140.15
130.07
122.83
120.97
124.93
133.22
142.91
150.59
153.59
150.94
144.05
136.24
131.64
133.44
142.56
156.99
172.18
182.38
182.29
168.51
140.14
99.09
49.95
-0.54
-44.56
-74.81
-86.12
-76.72
-48.84
-8.30
36.52
76.19
101.99
107.59
90.12
51.03
-4.29
-67.52
-128.64
-177.27
-204.24
-203.21
-172.83
-118.49
-52.26
10.10
54.88
76.25
78.63
73.64
73.28
83.21
100.13
114.75
118.03
106.44
82.85
53.31
22.71
-7.02
-35.88
-63.23
-86.79
-104.37
-115.82
-123.38
-129.54
-133.69
-131.31
-117.33
-91.27
-59.87
-35.05
-27.17
-38.59
-61.93
-84.65
-96.76
-97.05
-92.94
-95.02
-109.82
-136.07
-166.38
-192.55
-211.33
-225.97
-243.22
-267.59
-297.41
-325.33
-342.81
-345.59
-336.32
-322.66
-312.52
-309.08
-309.11
-305.51
-291.97
-266.73
-233.26
-197.70
-165.46
-138.92
-117.62
-100.03
-85.06
-72.53
-62.13
-52.78
-42.62
-29.70
-12.86
7.89
31.05
54.59
76.92
97.50
117.28
138.21
162.92
193.63
231.06
273.59
317.00
355.09
381.17
389.86
378.44
348.08
303.62
252.18
200.86
154.79
116.19
84.99
60.31
41.24
28.27
23.18
27.84
42.53
64.83
90.18
113.63
131.77
142.57
146.57
146.41
144.74
141.95
135.78
123.69
105.81
86.26
69.92
60.87
60.16
64.49
67.01
60.47
41.52
12.44
-20.77
-55.00
-90.78
-131.26
-178.94
-233.37
-290.05
-340.75
-376.37
-376.39
-331.75
-253.48
-168.25
-100.17
-58.46
-38.74
-30.92
-26.25
-20.75
-17.15
-19.80
-30.10
-45.11
-59.82
-70.03
-74.00
-72.08
-66.23
-60.63
-58.08
-58.88
-60.99
-61.59
-58.65
-51.62
-41.18
-28.93
-16.70
-6.57
0.36
4.08
5.52
6.36
8.64
14.57
25.95
45.69
71.60
101.33
132.11
161.63
189.06
214.72
240.04
266.42
297.85
336.54
382.31
431.34
476.49
509.38
522.54
512.74
463.54
374.41
260.59
147.35
55.72
-7.00
-44.61
-65.24
-74.54
-76.52
-71.32
-60.45
-48.28
-40.01
-40.48
-51.50
-72.49
-99.54
-130.14
-161.54
-195.69
-237.77
-286.20
-337.24
-383.16
-427.12
-464.35
-489.93
-491.32
-466.58
-421.62
-366.90
-314.07
-271.12
-240.93
-220.16
-204.65
-190.55
-177.28
-165.37
-155.33
-147.70
-142.17
-137.83
-132.11
-123.31
-110.43
-94.04
-74.77
-53.17
-30.27
-7.15
15.16
36.84
58.18
80.29
105.36
136.60
176.62
225.00
277.33
325.53
360.39
374.14
362.77
328.05
276.18
215.88
156.57
107.39
76.03
67.23
80.93
111.72
152.32
193.24
224.59
238.39
230.61
201.77
156.10
100.51
43.12
-4.24
-32.72
-39.69
-29.14
-8.20
17.27
44.88
75.74
112.84
163.96
233.26
317.67
407.23
489.24
552.94
592.03
605.14
565.05
462.68
312.86
149.41
4.56
-106.13
-182.70
-232.51
-263.64
-282.28
-287.97
-280.76
-263.97
-243.97
-226.89
-215.61
-209.61
-206.64
-204.33
-197.42
-182.94
-161.82
-138.45
-117.93
-103.31
-94.93
-91.71
-91.27
-88.80
-80.91
-67.27
-50.75
-35.64
-25.36
-21.26
-22.96
-28.22
-32.65
-32.63
-27.27
-18.77
-11.39
-9.04
-13.61
-25.03
-40.79
-57.14
-70.91
-80.75
-87.03
-91.25
-95.42
-96.82
-95.83
-94.75
-96.34
-101.31
-106.77
-106.71
-95.52
-72.02
-41.43
-14.10
0.94
1.59
-5.02
-5.85
10.97
48.87
100.42
150.31
181.93
185.78
162.34
120.03
69.37
17.65
-33.26
-84.88
-138.36
-192.48
-243.51
-288.34
-326.36
-358.96
-386.47
-405.69
-410.42
-394.73
-357.20
-302.10
-237.23
-168.94
-98.57
-22.99
60.39
148.11
229.42
290.88
324.10
331.49
326.80
328.44
350.01
393.31
446.84
493.40
519.79
522.89
509.17
489.73
473.49
462.98
454.55
439.37
411.04
369.48
320.21
270.09
223.64
181.46
141.27
99.91
51.40
-6.93
-71.92
-136.06
-192.27
-236.59
-268.60
-290.15
-303.95
-317.63
-336.73
-361.87
-389.74
-417.37
-444.53
-473.29
-506.37
-513.18
-476.33
-402.78
-317.78
-242.65
-184.84
-142.38
-110.19
-83.24
-58.00
-37.76
-25.78
-21.84
-22.16
-22.83
-21.95
-19.87
-17.58
-15.16
-14.67
-15.00
-10.96
3.57
30.80
66.98
104.24
134.84
154.41
160.74
155.61
143.83
130.31
117.78
106.93
97.99
92.23
91.39
94.38
97.29
94.41
79.89
50.37
7.55
-41.88
-88.32
-123.04
-142.25
-148.86
-146.57
-140.22
-133.07
-126.09
-119.01
-111.91
-105.72
-101.33
-97.83
-91.41
-77.14
-51.33
-13.79
30.84
74.81
110.27
132.70
142.52
144.46
144.50
147.21
154.48
165.56
178.07
189.33
197.41
201.22
200.63
195.89
187.17
175.07
160.99
146.95
135.14
126.79
120.95
114.18
101.42
77.56
40.62
-7.14
-59.97
-111.14
-155.61
-191.75
-221.56
-244.39
-261.77
-275.30
-286.41
-297.05
-310.44
-330.75
-361.45
-402.83
-450.55
-496.22
-528.80
-538.56
-520.63
-476.52
-412.82
-338.44
-261.57
-188.06
-121.71
-64.33
-16.38
22.61
53.89
79.31
100.58
118.66
133.41
143.65
148.37
147.12
139.91
127.13
109.49
88.41
66.40
46.89
33.08
26.81
27.60
33.03
39.63
44.53
46.69
47.29
49.13
55.50
69.48
93.09
126.84
168.62
213.19
252.67
278.91
287.13
278.37
259.75
242.05
235.30
244.75
269.06
301.09
330.77
348.36
346.99
323.89
280.39
221.19
152.72
81.81
14.11
-46.90
-99.77
-144.37
-181.56
-213.28
-242.57
-272.89
-306.44
-342.20
-375.78
-400.93
-412.79
-410.56
-398.25
-382.88
-370.74
-364.45
-362.01
-358.10
-346.76
-323.62
-286.78
-236.28
-173.12
-98.63
-14.86
74.70
164.76
248.84
320.21
373.74
407.28
422.09
422.49
414.94
406.85
404.92
413.32
431.98
455.98
476.72
484.74
473.35
441.36
393.20
336.50
278.61
223.74
172.38
122.48
71.75
18.79
-36.90
-95.76
-158.13
-223.14
-287.57
-345.88
-392.20
-422.99
-438.60
-442.94
-441.13
-436.70
-430.07
-419.29
-401.77
-376.15
-342.67
-302.39
-256.04
-203.56
-144.47
-78.83
-8.03
65.40
138.48
208.08
271.42
326.28
371.26
405.77
430.15
445.53
453.81
457.86
461.54
469.20
484.38
507.96
536.81
564.15
581.63
582.72
565.43
533.20
493.29
453.40
418.70
390.51
367.13
345.86
324.81
303.27
281.27
258.63
234.51
207.82
178.03
145.77
112.93
82.20
55.88
35.31
20.57
10.41
2.76
-4.53
-13.04
-23.37
-35.22
-48.24
-61.85
-75.37
-88.48
-101.55
-115.40
-130.92
-148.48
-167.79
-189.10
-211.93
-235.20
-257.99
-280.42
-303.69
-329.20
-357.43
-387.24
-417.80
-446.70
-470.24
-485.03
-489.81
-485.95
-476.67
-465.79
-457.15
-456.60
-467.53
-488.71
-514.22
-535.69
-545.26
-538.32
-515.05
-467.37
-400.74
-331.38
-276.88
-245.36
-234.12
-235.79
-243.85
-255.74
-268.47
-281.21
-291.64
-295.89
-289.95
-271.79
-241.86
-202.69
-156.43
-104.85
-51.38
1.46
52.49
101.70
148.76
192.38
230.70
265.40
298.39
329.41
357.33
381.08
400.66
416.47
428.61
436.80
445.73
458.87
476.32
495.32
512.25
525.14
533.69
538.66
541.28
549.12
567.55
597.23
633.92
671.17
703.93
729.18
745.55
712.90
611.04
445.18
244.83
45.07
-130.76
-273.66
-384.21
-467.17
-528.27
-566.56
-582.98
-581.22
-568.23
-551.96
-537.31
-526.26
-517.80
-510.22
-497.49
-477.24
-449.98
-419.52
-391.12
-367.68
-349.09
-333.74
-319.84
-303.18
-283.37
-260.43
-235.32
-212.42
-192.86
-175.00
-156.26
-134.35
-106.56
-74.56
-39.19
-1.34
37.67
67.27
78.80
67.48
34.80
5.94
-11.51
-15.82
-6.33
7.03
20.34
32.76
44.24
54.68
63.29
66.09
61.73
50.71
34.20
15.34
-2.29
-15.97
-24.18
-26.96
-27.47
-27.21
-26.43
-25.00
-21.49
-14.47
-3.33
11.69
29.55
47.59
64.59
80.41
95.23
109.85
125.17
142.15
161.92
185.14
210.47
235.10
254.62
264.18
260.89
245.32
221.27
194.20
168.85
147.46
130.06
115.64
103.58
94.16
87.98
84.65
82.27
77.90
68.86
53.97
34.12
11.93
-9.24
-26.22
-36.90
-40.64
-37.90
-29.69
-16.91
0.09
21.09
44.84
68.54
87.94
98.80
98.90
89.53
75.43
63.14
58.28
63.25
76.49
93.45
108.68
118.04
119.94
115.43
107.10
97.76
89.13
81.64
74.61
67.00
58.10
47.71
36.13
23.89
11.71
0.26
-9.95
-18.77
-26.51
-33.56
-40.02
-45.46
-49.29
-51.40
-52.72
-55.03
-59.92
-67.66
-76.48
-83.36
-85.57
-82.35
-75.22
-66.96
-59.67
-53.55
-47.19
-38.93
-28.56
-17.77
-9.33
-5.34
-5.99
-9.47
-13.06
-14.87
-14.64
-13.52
-12.93
-13.21
-13.32
-11.44
-6.34
1.72
10.81
18.15
21.33
19.29
12.71
3.46
-6.18
-14.44
-20.59
-25.03
-28.90
-33.48
-39.45
-46.43
-53.09
-57.67
-58.91
-56.45
-50.98
-43.63
-35.26
-26.16
-16.18
-5.54
4.83
13.16
17.49
16.51
10.30
0.34
-10.91
-20.88
-27.67
-30.40
-29.11
-24.41
-17.08
-7.88
2.38
12.65
21.63
28.07
31.34
31.77
30.67
29.73
30.22
32.50
35.83
38.99
40.90
41.04
39.36
36.07
31.21
24.69
16.55
7.28
-2.11
-10.41
-16.56
-20.11
-21.29
-20.87
-19.78
-18.82
-18.35
-18.31
-18.35
-18.06
-17.14
-15.48
-13.20
-10.55
-7.79
-5.17
-2.81
-0.72
1.17
2.88
4.34
5.29
5.38
4.44
2.57
0.29
-1.69
-2.78
-2.79
-2.04
-1.15
-0.69
-0.81
-1.21
-1.37
-0.91
0.16
1.43
2.38
2.61
2.05
0.81
-1.05
-3.49
-6.43
-9.64
-12.68
-15.04
-16.46
-17.00
-16.96
-16.60
-15.97
-14.98
-13.61
-12.20
-11.35
-11.60
-12.94
-14.65
-15.50
-14.38
-10.88
-5.49
0.52
5.82
9.48
11.23
11.45
10.84
10.06
9.56
9.42
9.46
9.39
8.91
7.78
5.92
3.58
1.23
-0.53
-1.23
-0.75
0.71
2.59
4.19
5.00
4.87
4.04
3.03
2.39
2.56
4.13
7.23
11.41
15.68
18.92
20.50
20.55
19.95
19.85
21.83
26.43
32.90
39.51
44.69
47.94
50.11
52.92
57.95
67.18
80.96
97.91
115.38
130.71
142.43
150.54
156.13
160.71
167.39
178.40
194.06
212.16
228.34
237.41
234.81
218.08
177.87
113.25
31.90
-52.03
-124.68
-178.48
-213.18
-232.58
-241.02
-241.76
-235.46
-223.03
-206.65
-189.51
-174.53
-163.13
-154.94
-148.42
-142.03
-133.67
-122.56
-109.43
-96.12
-84.49
-75.51
-68.94
-63.78
-58.94
-52.98
-45.30
-36.24
-26.81
-18.10
-10.65
-4.32
1.45
7.21
13.58
20.61
27.83
34.38
39.32
42.15
42.75
41.38
38.49
34.74
30.61
26.48
22.64
19.36
16.88
15.43
15.24
16.44
19.07
22.80
27.33
32.40
37.85
43.54
49.41
55.46
61.78
68.56
75.45
82.32
89.08
95.72
102.22
108.66
115.11
121.70
128.65
135.42
141.65
147.06
151.31
153.95
154.35
151.48
143.59
133.50
121.80
108.81
94.79
80.03
64.94
49.93
35.38
21.51
8.40
-4.82
-18.88
-34.26
-50.97
-68.52
-86.09
-102.91
-118.83
-134.52
-151.81
-172.11
-195.46
-220.07
-242.68
-259.49
-267.23
-263.93
-249.01
-223.49
-189.36
-149.56
-107.87
-68.38
-34.58
-8.33
10.62
24.44
35.94
47.50
60.03
72.74
83.69
90.86
93.04
90.60
85.31
79.64
75.49
72.86
69.70
62.86
50.36
33.43
16.68
6.19
6.30
17.30
35.58
55.96
74.62
90.62
105.03
118.59
129.99
136.14
134.20
123.92
108.35
92.11
78.58
68.00
57.66
44.17
25.99
4.59
-16.30
-32.70
-42.69
-47.23
-49.70
-54.64
-65.57
-83.91
-108.55
-136.26
-162.85
-184.35
-198.21
-203.87
-202.95
-198.70
-195.01
-195.13
-200.56
-210.65
-223.16
-235.26
-244.81
-251.06
-254.44
-256.02
-256.65
-256.45
-254.88
-251.01
-243.73
-231.98
-214.80
-191.76
-163.34
-131.27
-98.28
-67.36
-40.90
-19.87
-4.01
7.59
15.63
20.25
21.11
18.32
13.12
7.97
5.95
9.40
18.86
32.74
48.14
62.11
72.89
80.28
85.20
88.73
91.15
91.88
89.85
84.27
75.39
64.49
53.48
43.96
36.64
30.95
25.51
19.01
10.76
1.23
-8.38
-16.63
-22.58
-26.07
-27.58
-27.63
-26.31
-23.16
-17.52
-9.10
1.61
13.22
23.90
32.04
36.68
37.83
36.35
33.55
30.65
28.47
27.29
27.01
27.50
28.51
29.63
30.13
29.17
26.27
21.80
17.03
13.58
12.40
12.96
13.23
10.71
4.00
-6.16
-16.88
-24.62
-26.88
-23.55
-16.80
-9.76
-5.11
-4.06
-6.18
-10.12
-14.32
-17.41
-18.18
-15.46
-8.08
4.74
22.67
43.82
65.03
82.56
93.40
96.45
92.85
85.76
79.09
76.14
78.40
85.26
94.53
103.53
110.24
114.00
115.61
116.84
119.35
123.72
128.73
131.53
128.47
116.55
94.54
63.36
25.55
-15.94
-59.11
-103.62
-150.20
-198.91
-247.28
-289.88
-319.69
-331.42
-324.48
-303.77
-277.58
-253.50
-234.76
-219.44
-202.90
-181.67
-156.23
-130.75
-110.17
-96.74
-88.45
-80.14
-66.51
-44.79
-15.61
18.05
52.45
84.59
112.52
135.17
152.02
163.15
169.23
171.37
170.57
167.21
161.04
151.73
139.59
126.08
113.53
104.10
98.62
95.97
93.57
88.50
78.71
63.57
43.85
21.35
-1.67
-22.64
-39.06
-48.86
-51.06
-46.22
-36.30
-23.88
-11.25
0.32
10.61
20.04
29.11
38.20
47.64
57.83
69.21
81.54
93.47
102.68
106.30
102.23
90.04
71.33
49.28
27.53
9.07
-4.58
-13.51
-18.94
-22.64
-26.16
-30.48
-35.88
-42.20
-49.16
-56.66
-64.80
-73.53
-82.10
-88.55
-89.88
-83.22
-67.45
-44.57
-19.52
1.45
13.51
15.33
9.63
1.71
-2.97
-1.15
7.37
20.31
34.48
47.15
56.73
62.83
65.84
66.66
66.39
66.01
65.68
64.32
59.88
50.32
34.99
15.52
-4.62
-21.64
-33.20
-39.42
-42.47
-44.89
-48.05
-51.45
-53.45
-52.70
-49.20
-44.38
-40.01
-37.29
-36.17
-35.67
-34.68
-32.59
-29.37
-25.39
-21.18
-17.33
-14.34
-12.64
-12.32
-12.88
-13.15
-11.57
-7.08
0.31
9.33
18.02
24.73
28.87
31.16
33.04
35.70
39.33
43.01
45.42
45.69
44.00
41.46
39.42
38.57
38.48
37.93
35.68
31.34
25.69
20.53
17.82
18.85
23.56
30.53
37.44
41.87
42.03
37.39
28.92
18.78
9.35
2.22
-2.52
-6.25
-10.91
-17.74
-26.21
-33.89
-37.52
-34.63
-24.81
-10.08
5.86
19.13
27.09
28.92
25.62
19.58
13.67
10.46
11.46
16.64
24.45
32.39
37.84
38.96
35.09
26.95
16.15
4.76
-5.31
-12.53
-16.19
-16.46
-14.21
-10.77
-7.37
-4.83
-3.46
-3.17
-3.82
-5.31
-7.61
-10.63
-14.05
-17.27
-19.55
-20.31
-19.44
-17.28
-14.55
-11.91
-9.61
-7.47
-5.07
-2.25
0.69
3.05
4.12
3.65
1.95
-0.08
-1.63
-2.10
-1.37
0.41
2.92
5.71
8.22
9.82
10.09
9.12
7.60
6.67
7.34
9.99
14.13
18.63
22.20
23.89
23.40
21.02
17.33
12.98
8.55
4.40
0.89
-1.83
-3.90
-5.80
-8.28
-12.04
-17.40
-23.88
-30.16
-34.41
-34.95
-30.92
-22.85
-12.49
-2.30
5.37
9.08
8.63
5.11
0.26
-4.15
-6.87
-7.40
-5.82
-2.56
1.91
7.09
12.47
17.47
21.47
24.01
24.94
24.56
23.40
21.97
20.54
19.08
17.34
15.29
13.10
11.14
9.60
8.40
7.16
5.50
3.31
0.75
-1.84
-4.18
-6.18
-7.84
-9.01
-9.34
-8.49
-6.55
-4.06
-1.96
-1.17
-2.18
-4.88
-8.57
-12.40
-15.78
-18.51
-20.57
-21.75
-21.57
-19.65
-16.00
-11.30
-6.81
-3.87
-3.23
-4.49
-6.10
-6.28
-4.40
-1.01
2.60
5.32
6.71
7.13
7.35
8.14
9.46
9.54
6.55
0.11
-7.89
-14.19
-15.85
-11.66
-2.63
8.06
15.05
14.40
5.46
-8.87
-24.33
-37.69
-47.46
-53.14
-55.06
-55.52
-56.88
-60.94
-68.81
-81.53
-100.15
-124.47
-152.19
-165.55
-149.82
-102.14
-34.65
35.91
98.35
148.74
185.69
213.16
231.83
238.42
229.98
206.11
169.43
123.37
70.72
16.39
-33.37
-73.92
-105.17
-129.40
-148.20
-160.68
-165.45
-162.27
-152.78
-140.05
-128.34
-121.97
-123.41
-132.39
-145.22
-156.24
-158.88
-147.96
-122.38
-86.72
-49.78
-20.04
-3.24
4.42
9.86
19.89
37.70
62.03
88.47
112.31
130.35
140.90
142.88
135.94
121.79
104.73
90.92
85.49
89.50
98.64
105.05
101.57
85.64
60.45
31.40
1.58
-27.07
-54.02
-78.29
-96.61
-104.07
-95.91
-71.28
-36.01
-1.21
18.47
13.53
-13.66
-47.49
-75.59
-92.60
-97.22
-95.65
-95.29
-100.94
-112.17
-124.28
-131.25
-130.05
-120.95
-105.93
-86.81
-62.72
-30.99
10.31
59.50
111.41
157.83
191.77
210.09
213.72
206.69
193.56
178.26
163.71
153.54
149.35
150.46
153.79
155.60
153.76
148.27
141.42
136.91
140.94
158.00
188.55
228.31
269.85
304.76
325.81
329.32
302.12
244.01
168.98
98.40
47.67
20.13
10.45
11.13
16.99
25.73
38.66
55.83
75.85
93.49
104.88
108.93
107.00
102.11
97.10
95.47
98.40
104.31
109.53
110.76
108.68
104.89
101.52
100.22
102.71
109.04
117.63
125.78
131.63
133.80
131.97
126.99
120.22
113.24
106.70
100.03
91.87
81.04
64.40
39.70
6.77
-32.57
-75.75
-120.75
-166.29
-211.39
-254.80
-299.79
-348.19
-398.19
-444.64
-481.92
-506.52
-517.42
-515.37
-501.99
-487.17
-478.80
-478.91
-483.54
-487.02
-485.83
-479.34
-468.82
-456.27
-454.12
-471.92
-511.62
-567.31
-630.74
-696.26
-761.79
-827.51
-829.73
-734.35
-550.90
-327.66
-115.70
57.17
186.15
278.60
344.95
394.55
423.89
429.77
414.58
387.09
357.27
331.49
312.12
299.23
292.73
285.50
273.18
256.62
240.72
229.79
224.33
222.08
220.18
217.22
208.63
191.94
167.99
140.45
113.43
89.61
70.51
56.35
46.75
38.40
28.44
15.75
1.52
-11.72
-22.85
-28.42
-26.35
-15.71
2.63
26.88
54.99
85.05
115.14
143.25
167.75
186.61
197.85
199.94
191.78
172.96
144.01
106.58
63.31
17.98
-25.18
-62.77
-92.45
-112.90
-123.91
-126.17
-121.12
-112.11
-100.17
-86.70
-72.97
-59.65
-46.86
-34.50
-22.58
-11.33
-1.13
7.86
15.07
20.07
22.62
22.80
20.74
16.74
11.21
4.64
-2.18
-8.85
-15.25
-21.40
-27.33
-33.17
-39.16
-45.36
-51.79
-58.19
-64.34
-69.96
-75.62
-81.36
-86.99
-92.21
-96.39
-98.80
-98.38
-94.22
-85.48
-71.53
-52.03
-27.10
2.39
35.12
69.26
102.74
133.36
159.03
177.96
189.06
191.86
186.47
173.77
155.08
132.06
106.43
79.74
53.29
28.01
4.38
-17.47
-37.64
-56.38
-73.99
-90.66
-106.62
-121.93
-136.58
-150.42
-163.35
-175.21
-185.98
-195.66
-204.23
-211.76
-218.22
-223.54
-227.61
-230.26
-231.24
-230.37
-227.51
-222.53
-215.45
-206.31
-195.29
-182.60
-168.56
-153.59
-138.10
-122.55
-107.34
-92.86
-79.41
-67.15
-56.22
-46.59
-38.15
-30.79
-24.30
-18.54
-13.44
-8.99
-5.27
-2.46
-0.81
-0.56
-1.94
-5.14
-10.20
-17.08
-25.60
-35.47
-46.33
-57.73
-69.20
-80.23
-90.31
-98.99
-105.83
-110.42
-112.48
-111.80
-108.28
-101.93
-92.96
-81.64
-68.41
-53.81
-38.43
-22.91
-7.90
6.07
18.50
29.03
37.45
43.69
47.77
49.90
50.34
49.44
47.60
45.17
42.50
39.86
37.51
35.58
34.15
33.23
32.79
32.77
33.07
33.60
34.26
35.00
35.76
36.50
37.22
37.83
38.30
38.55
38.51
38.10
37.29
36.10
34.56
32.75
30.71
28.49
26.12
23.60
20.93
18.12
15.20
12.26
9.39
6.69
4.24
2.07
0.23
-1.28
-2.40
-2.98
-2.88
-1.93
-0.07
2.64
5.92
9.44
12.87
16.09
19.15
22.39
26.17
30.84
36.56
43.20
50.54
58.38
66.72
75.92
86.56
99.33
114.69
132.73
153.09
175.03
197.60
219.81
240.82
260.06
277.41
293.33
308.94
325.50
343.53
361.94
377.74
386.69
384.89
370.43
344.50
311.13
275.87
243.83
218.48
201.23
192.23
191.23
197.79
210.67
227.05
242.48
252.19
252.95
244.51
229.39
211.36
193.42
176.48
159.62
141.41
121.44
100.80
81.33
64.33
49.80
36.70
24.14
12.44
3.10
-2.03
-2.27
1.12
5.18
6.57
3.19
-4.65
-14.28
-21.97
-24.61
-21.30
-13.70
-5.22
0.54
1.29
-3.31
-11.95
-22.46
-32.81
-41.68
-48.43
-52.83
-54.61
-53.54
-49.64
-43.49
-36.42
-30.21
-26.50
-25.94
-27.80
-30.38
-31.78
-30.88
-27.76
-23.47
-19.35
-16.59
-16.20
-19.25
-26.89
-39.57
-55.85
-71.88
-82.20
-81.93
-69.33
-47.10
-21.47
0.49
14.04
18.53
17.11
14.42
14.12
17.22
22.19
26.26
27.29
24.88
20.36
15.79
12.73
11.31
10.26
7.87
3.07
-4.39
-14.34
-27.25
-44.29
-66.26
-92.16
-118.33
-139.15
-149.38
-146.72
-133.02
-113.57
-94.91
-82.18
-77.77
-81.26
-90.38
-102.14
-113.50
-121.62
-124.04
-118.99
-105.96
-86.05
-62.05
-37.75
-17.35
-4.10
0.52
-2.68
-11.04
-21.17
-30.29
-37.39
-43.46
-51.11
-63.08
-80.42
-101.40
-121.50
-134.88
-136.78
-125.64
-103.70
-75.84
-46.96
-19.76
5.89
31.83
59.25
87.14
112.24
130.82
140.85
143.28
141.59
139.92
141.17
145.81
152.14
157.36
159.07
156.16
148.91
138.52
126.37
113.68
101.37
89.97
79.80
70.91
63.11
56.05
49.47
43.31
37.81
33.24
29.65
26.68
23.65
19.87
14.97
9.13
3.09
-2.08
-5.40
-6.33
-5.02
-2.31
0.58
2.51
2.69
0.99
-2.22
-6.25
-10.29
-13.46
-14.94
-14.01
-10.29
-3.98
3.95
11.83
17.86
20.64
19.84
16.33
11.90
8.65
8.02
10.33
14.54
18.88
21.53
21.40
18.47
13.63
8.16
3.13
-0.90
-3.84
-5.75
-6.44
-5.46
-2.39
2.82
9.48
16.18
21.20
23.00
20.74
14.45
5.00
-6.17
-17.50
-27.63
-35.74
-41.64
-45.78
-48.93
-51.79
-54.73
-57.59
-59.90
-60.90
-59.92
-56.39
-50.00
-40.76
-29.24
-16.57
-4.42
5.43
11.77
14.26
13.68
11.30
8.29
5.33
2.77
0.89
0.13
0.93
3.28
6.40
8.86
9.28
7.18
3.39
-0.15
-1.62
-0.14
3.59
7.75
10.26
9.56
5.01
-3.31
-14.62
-27.57
-39.91
-48.81
-51.55
-46.58
-34.52
-18.05
-1.08
12.98
22.37
27.26
28.84
28.37
26.24
22.19
16.00
8.14
0.07
-6.39
-9.80
-9.85
-7.40
-4.07
-1.60
-1.07
-2.52
-5.00
-7.08
-7.42
-5.44
-1.56
3.07
6.97
9.13
9.30
7.93
5.84
3.59
1.28
-1.37
-4.71
-8.75
-13.05
-17.10
-20.73
-24.28
-28.68
-34.76
-42.81
-52.22
-61.55
-68.95
-72.88
-72.67
-68.83
-63.01
-57.33
-53.45
-51.81
-51.68
-51.66
-50.95
-50.09
-50.72
-54.45
-61.30
-68.86
-73.13
-70.34
-58.91
-40.18
-17.20
7.21
31.74
56.50
81.50
105.26
125.16
138.96
146.59
150.42
153.56
157.15
158.99
154.54
139.86
114.79
83.74
53.51
29.83
14.39
4.46
-4.76
-17.08
-33.61
-52.84
-72.38
-90.53
-106.48
-119.51
-128.21
-130.40
-124.21
-109.34
-87.80
-63.16
-39.11
-18.06
-0.78
13.12
24.36
33.46
40.72
46.57
51.68
56.61
61.42
65.40
67.37
66.33
62.11
55.53
48.07
41.31
36.48
34.30
35.01
38.20
42.84
47.25
49.37
47.34
39.97
27.24
10.34
-8.45
-26.47
-41.65
-53.19
-61.79
-69.21
-77.43
-87.66
-99.72
-111.98
-121.99
-127.44
-127.25
-121.88
-113.22
-103.88
-96.17
-91.44
-89.58
-89.08
-87.34
-81.31
-68.20
-46.30
-15.82
20.91
59.32
93.63
118.36
130.32
130.21
122.92
115.78
115.63
125.61
143.67
163.38
176.77
177.66
163.97
137.85
104.09
67.87
32.95
1.37
-25.91
-48.16
-64.61
-74.55
-78.03
-76.17
-70.99
-64.87
-59.77
-56.66
-55.25
-54.49
-53.09
-50.41
-46.79
-43.32
-41.17
-40.81
-41.72
-42.62
-42.31
-40.39
-37.49
-34.79
-33.16
-32.56
-31.89
-29.66
-24.82
-17.29
-8.24
0.49
6.95
9.85
8.73
4.20
-2.30
-8.75
-13.13
-14.04
-11.21
-5.80
0.25
4.86
6.81
6.14
4.14
2.63
3.15
6.42
11.97
18.41
23.90
26.80
26.32
22.82
17.65
12.37
8.11
4.91
1.74
-2.63
-8.71
-15.68
-21.51
-24.01
-22.01
-15.90
-7.59
0.60
6.91
10.78
12.78
14.01
15.57
17.96
21.35
25.53
30.18
34.86
38.87
41.34
41.57
39.47
35.71
31.66
28.71
27.63
28.33
29.92
31.05
30.64
28.01
22.92
15.64
6.77
-2.80
-12.04
-20.09
-26.39
-30.71
-33.11
-33.70
-32.63
-30.43
-28.23
-27.40
-29.07
-33.21
-38.20
-41.51
-40.73
-34.85
-24.96
-13.83
-4.70
0.12
0.15
-3.22
-7.61
-10.82
-11.61
-10.21
-7.86
-6.15
-6.18
-8.14
-11.10
-13.47
-13.50
-9.99
-2.52
8.18
20.19
30.83
37.31
37.79
32.12
22.27
11.59
3.82
1.77
6.37
16.19
27.51
35.06
33.55
19.77
-5.70
-37.66
-67.62
-86.79
-89.28
-74.61
-47.77
-17.06
9.09
24.81
28.13
20.86
6.96
-8.60
-21.69
-29.76
-31.93
-28.81
-21.64
-11.28
2.33
19.49
40.59
64.95
90.82
116.51
140.79
163.45
185.44
208.49
233.20
259.73
286.52
310.16
327.75
337.35
339.22
335.97
331.40
326.67
322.07
315.95
305.23
290.02
272.84
257.78
248.47
246.30
247.91
251.55
257.26
265.89
280.68
302.85
329.75
356.25
377.21
386.68
385.34
377.82
348.22
285.85
186.05
52.96
-99.19
-230.48
-327.00
-388.01
-419.73
-430.75
-432.07
-429.56
-427.52
-429.76
-439.80
-463.05
-498.93
-541.75
-583.28
-613.33
-624.14
-613.69
-585.30
-545.37
-503.22
-463.99
-429.27
-398.50
-369.03
-337.78
-303.04
-264.88
-224.81
-186.52
-151.80
-120.81
-93.10
-69.12
-51.05
-42.04
-43.05
-50.00
-54.82
-47.94
-24.50
11.52
48.32
73.34
80.76
75.64
71.04
79.28
104.49
140.58
176.28
203.47
223.50
245.19
277.57
321.96
369.01
402.54
408.00
379.35
320.38
241.74
155.20
70.10
-6.58
-69.13
-112.70
-134.10
-133.59
-115.70
-87.91
-58.73
-36.01
-25.83
-32.68
-58.39
-100.40
-150.78
-197.40
-228.31
-237.18
-226.12
-203.81
-180.07
-159.53
-139.77
-114.38
-79.60
-38.91
-2.80
16.94
14.81
-4.61
-28.71
-43.49
-40.54
-20.00
11.29
44.60
73.27
94.09
105.82
107.13
96.10
72.35
39.71
7.00
-14.42
-15.51
6.21
45.58
92.65
137.72
175.77
206.91
233.49
255.85
269.69
267.58
243.56
198.12
140.23
84.50
44.81
28.10
31.61
44.55
53.40
47.86
24.13
-14.70
-61.89
-110.85
-157.55
-200.71
-240.97
-279.11
-315.51
-349.72
-379.75
-401.92
-410.74
-400.73
-369.58
-320.73
-263.19
-208.10
-163.64
-131.92
-109.99
-93.75
-81.74
-76.23
-80.53
-95.51
-118.34
-144.75
-171.63
-198.71
-226.88
-254.52
-275.66
-281.32
-264.01
-222.48
-163.17
-97.17
-35.86
13.02
45.74
60.76
57.54
36.92
3.29
-34.15
-62.73
-70.42
-50.48
-4.13
60.22
130.57
195.86
249.05
287.76
312.91
326.54
330.98
328.92
323.34
317.62
315.39
319.76
333.02
355.62
384.86
414.87
437.92
447.16
440.05
419.32
391.61
363.69
338.97
315.84
289.38
255.09
212.07
164.07
117.06
75.94
42.13
14.26
-9.93
-31.47
-49.68
-62.57
-69.08
-70.82
-72.07
-78.53
-94.96
-123.36
-161.86
-205.42
-246.77
-278.83
-297.28
-302.00
-297.09
-289.57
-287.17
-295.62
-317.03
-349.10
-385.87
-419.80
-444.62
-457.68
-460.86
-459.72
-460.90
-469.25
-486.35
-509.93
-534.95
-555.54
-567.20
-566.97
-553.29
-525.20
-482.01
-424.03
-353.01
-272.47
-187.09
-102.32
-22.96
47.84
108.85
160.76
205.33
244.70
280.50
313.94
345.92
377.51
409.74
442.73
474.68
501.26
516.44
514.38
491.54
448.47
389.88
323.32
257.17
198.66
152.85
122.55
108.34
108.58
119.60
136.33
152.99
164.28
165.92
155.13
130.93
94.42
48.71
-1.45
-50.51
-93.78
-128.53
-154.42
-172.31
-182.31
-182.57
-169.78
-141.33
-97.86
-44.21
11.80
62.52
103.44
134.32
157.65
175.84
188.89
194.26
189.02
172.73
149.06
124.82
107.13
100.30
104.30
115.47
128.87
140.75
149.85
157.20
164.77
173.94
184.85
196.62
208.17
218.92
228.89
238.00
245.88
251.28
252.06
245.70
230.32
205.59
173.23
136.00
95.93
54.32
11.08
-34.67
-83.36
-133.73
-182.64
-225.84
-260.84
-288.80
-312.82
-337.03
-364.83
-397.63
-434.68
-473.90
-511.62
-544.57
-570.21
-585.15
-587.32
-578.73
-566.43
-560.67
-571.15
-601.53
-635.96
-653.50
-631.55
-556.08
-429.23
-267.94
-94.91
61.70
195.79
307.35
393.90
450.48
470.90
451.07
391.41
300.39
193.52
89.58
2.93
-59.97
-99.47
-120.42
-128.49
-126.44
-112.62
-79.19
-20.88
59.83
152.73
244.41
322.81
380.49
415.47
430.19
429.16
417.34
398.23
374.19
347.59
320.95
296.97
277.78
263.69
252.13
237.43
212.65
173.10
119.55
58.71
0.79
-44.78
-73.00
-84.76
-85.44
-81.50
-77.33
-74.04
-70.58
-65.71
-59.55
-53.47
-49.10
-47.24
-47.39
-48.03
-47.28
-44.11
-38.45
-31.29
-23.87
-16.88
-10.33
-3.40
5.02
15.64
28.13
41.22
52.75
60.85
63.84
61.09
53.58
43.18
32.26
23.05
16.93
14.05
13.23
12.33
8.76
0.40
-14.19
-35.10
-60.83
-88.82
-115.92
-139.11
-155.72
-163.90
-162.52
-151.23
-130.54
-101.56
-67.03
-30.77
2.63
28.41
42.64
43.05
29.19
2.46
-33.62
-74.65
-114.69
-147.00
-165.96
-168.86
-157.42
-137.18
-116.70
-100.02
-88.62
-80.41
-71.65
-59.50
-43.54
-25.94
-9.49
4.05
15.23
25.59
36.73
48.66
59.39
66.00
65.55
56.90
41.26
22.12
3.50
-10.81
-18.04
-17.33
-9.89
0.16
6.85
5.04
-6.32
-22.00
-30.96
-20.38
16.12
77.71
153.91
228.37
285.52
316.41
320.40
303.11
272.47
235.72
199.34
169.42
151.92
150.66
164.08
183.89
198.01
196.76
178.57
151.11
126.47
113.89
114.95
123.16
127.88
121.40
103.07
78.74
55.44
36.05
17.22
-7.20
-40.96
-83.07
-125.63
-156.21
-162.86
-139.78
-90.98
-29.54
27.12
62.70
64.22
26.90
-44.87
-139.66
-244.05
-347.02
-442.14
-526.50
-581.94
-591.78
-548.77
-460.72
-346.20
-225.22
-112.64
-16.90
59.76
119.81
166.01
201.49
229.08
251.03
268.62
282.97
292.78
296.88
295.40
287.95
274.85
257.04
236.03
213.51
190.50
167.11
143.26
119.14
93.81
65.62
36.71
8.36
-18.60
-44.12
-68.87
-93.72
-119.33
-146.74
-176.50
-207.84
-238.44
-264.39
-281.47
-286.76
-279.62
-261.83
-237.09
-209.32
-181.32
-154.64
-129.61
-106.09
-84.03
-63.68
-45.13
-28.20
-12.50
2.71
17.72
32.35
45.58
55.53
59.84
56.68
46.00
30.02
12.73
-1.70
-10.40
-12.72
-9.95
-4.34
2.10
8.12
12.97
16.11
17.09
15.73
12.61
8.97
6.02
4.39
3.65
2.56
-0.08
-4.95
-11.91
-20.06
-28.59
-37.00
-45.29
-53.83
-62.98
-72.74
-82.84
-92.63
-101.48
-108.72
-113.93
-116.71
-116.66
-113.68
-107.99
-100.50
-92.34
-84.76
-78.32
-72.96
-67.79
-61.80
-54.41
-45.68
-36.40
-27.20
-18.45
-9.84
-0.83
9.16
20.16
31.82
43.42
54.41
64.50
73.67
81.98
89.34
95.36
99.49
101.04
99.68
95.53
89.24
82.10
75.65
71.38
69.96
71.40
74.67
78.45
81.36
82.55
81.81
79.62
76.50
72.84
68.95
64.73
59.99
54.43
48.02
41.15
34.74
29.77
26.92
26.42
27.60
29.05
29.38
27.75
24.40
20.16
15.89
12.07
9.23
7.70
7.52
8.79
11.48
15.23
19.60
23.69
26.55
28.61
30.40
32.18
33.70
34.73
35.17
35.79
37.19
39.73
45.11
53.93
65.15
76.61
86.32
93.45
99.80
107.77
119.68
138.95
166.37
199.52
233.67
263.94
286.70
301.08
306.34
287.29
236.33
157.37
65.29
-23.69
-97.98
-160.56
-214.65
-262.55
-306.04
-339.22
-358.62
-364.18
-359.34
-348.87
-337.31
-326.24
-315.55
-303.86
-288.14
-267.53
-243.73
-220.49
-200.80
-185.92
-174.01
-162.33
-148.47
-130.49
-108.39
-83.34
-56.93
-29.88
-4.19
14.95
19.93
5.29
-28.99
-78.04
-132.53
-187.65
-239.43
-284.70
-320.44
-344.14
-351.02
-338.32
-306.15
-257.35
-197.20
-131.40
-65.78
-5.15
47.24
89.83
121.94
143.34
154.54
156.53
151.61
142.59
132.53
124.33
120.28
121.42
127.17
136.06
146.10
156.03
165.71
176.59
191.51
213.75
245.49
286.04
331.22
374.10
407.59
426.72
430.22
420.41
401.83
379.36
356.16
333.19
309.20
282.30
249.26
205.73
147.42
72.59
-15.16
-106.33
-187.36
-244.72
-267.39
-251.82
-202.80
-131.38
-50.62
28.12
96.45
148.68
181.19
194.98
192.61
177.53
153.69
125.97
100.04
81.01
72.33
75.16
92.48
124.95
170.04
222.27
275.41
324.85
368.37
406.03
413.43
377.30
299.30
195.78
86.92
-13.24
-98.56
-168.13
-223.03
-265.08
-292.58
-304.97
-304.19
-294.71
-281.82
-269.78
-261.66
-259.20
-263.20
-270.29
-276.71
-279.91
-280.16
-278.37
-275.01
-269.62
-261.08
-247.84
-226.38
-194.22
-151.06
-98.40
-40.83
16.92
70.21
113.83
141.86
150.01
136.87
105.38
62.94
19.54
-15.64
-37.48
-46.21
-45.96
-41.45
-35.75
-29.88
-23.52
-16.56
-9.84
-4.86
-2.79
-3.56
-5.81
-7.54
-6.86
-3.03
3.45
11.25
18.97
25.72
31.51
36.95
42.78
49.37
56.23
62.35
66.01
65.84
61.25
52.62
41.15
28.41
15.99
4.99
-4.01
-10.98
-16.04
-19.38
-21.04
-21.00
-19.35
-16.23
-11.96
-6.90
-1.48
3.97
9.30
14.47
19.63
24.65
29.46
33.97
38.06
41.72
44.89
47.75
50.55
53.73
57.31
61.59
66.75
73.07
80.76
89.79
100.21
111.87
124.69
137.87
150.76
162.72
173.17
181.48
186.95
188.69
185.39
179.45
171.63
162.48
152.46
142.02
131.47
121.08
111.07
101.69
93.21
85.40
78.08
71.16
64.50
57.93
51.27
44.44
37.41
30.30
22.97
15.35
7.52
-0.43
-8.39
-16.26
-23.90
-31.13
-37.74
-43.80
-49.48
-55.14
-61.44
-69.12
-78.75
-90.58
-104.28
-119.02
-133.59
-146.60
-156.89
-163.81
-167.18
-167.01
-163.42
-156.34
-145.62
-131.23
-113.46
-93.34
-72.58
-53.23
-37.11
-25.27
-17.67
-13.34
-10.97
-9.84
-10.21
-13.23
-20.55
-33.28
-51.89
-76.27
-106.54
-142.93
-185.02
-230.52
-275.17
-314.08
-343.79
-364.41
-379.25
-392.93
-408.60
-426.62
-445.39
-463.22
-479.97
-496.04
-510.41
-518.78
-514.49
-491.00
-445.50
-380.84
-304.93
-228.65
-163.18
-118.31
-100.52
-111.31
-145.88
-192.72
-236.33
-261.89
-260.61
-232.05
-183.30
-124.58
-64.77
-8.93
41.93
88.59
131.64
170.51
204.26
232.17
254.20
270.99
283.05
290.66
293.38
290.84
283.29
272.40
260.37
248.69
238.38
229.75
223.67
220.43
220.57
224.96
235.29
253.05
277.53
306.56
336.13
362.18
378.36
378.11
356.96
315.17
257.30
189.32
118.63
51.90
-4.05
-48.36
-84.63
-118.19
-150.86
-180.00
-201.93
-212.01
-208.33
-191.22
-169.39
-155.25
-158.77
-180.68
-200.67
-199.17
-165.48
-121.82
-78.17
-39.74
-4.12
27.69
56.05
80.00
93.49
92.08
75.69
52.28
30.94
20.51
26.80
52.96
95.26
141.14
178.43
199.85
206.15
200.98
189.46
168.20
139.56
116.59
97.12
72.45
39.76
3.88
-26.40
-41.40
-34.08
-1.81
49.29
100.00
128.39
120.64
79.77
20.56
-41.89
-99.24
-148.66
-191.34
-231.95
-268.87
-296.25
-308.18
-302.90
-283.60
-256.42
-225.83
-196.50
-171.90
-151.34
-131.67
-109.94
-85.55
-60.48
-37.72
-19.33
-6.10
2.77
10.65
21.66
38.84
62.80
91.48
121.59
150.38
176.20
199.13
220.85
243.12
266.71
291.32
315.66
338.59
360.07
380.66
400.43
417.45
427.05
423.09
401.20
359.63
300.33
228.82
152.33
78.50
14.11
-34.67
-61.98
-62.12
-34.34
14.63
71.57
120.86
150.87
157.80
146.46
127.00
110.47
101.08
95.16
84.94
63.82
30.89
-10.42
-54.71
-106.36
-161.57
-211.55
-247.83
-266.75
-269.34
-257.04
-232.49
-199.58
-163.22
-127.33
-95.81
-71.46
-52.98
-38.25
-23.63
-7.45
9.22
23.30
31.86
31.46
18.98
-7.09
-48.26
-96.51
-140.38
-168.94
-175.51
-159.74
-128.24
-91.89
-61.07
-41.52
-32.57
-30.41
-30.80
-31.12
-31.06
-31.66
-33.76
-36.98
-39.59
-39.49
-36.42
-31.98
-28.62
-28.68
-33.08
-41.31
-51.89
-62.89
-72.34
-79.46
-84.51
-87.85
-90.48
-91.55
-89.82
-84.21
-74.04
-59.46
-41.76
-22.91
-4.83
11.18
24.55
35.27
43.65
50.11
54.90
57.90
59.09
58.77
57.79
57.02
56.77
56.61
55.66
52.85
47.71
41.03
34.70
31.02
31.16
34.66
39.61
43.92
46.24
46.20
44.52
40.10
33.56
26.58
22.31
24.54
36.31
58.17
87.16
117.65
143.66
162.00
172.84
178.41
180.33
177.50
166.61
144.17
108.88
62.83
11.11
-40.34
-86.20
-122.21
-145.18
-153.15
-146.34
-128.32
-105.58
-85.26
-72.16
-66.50
-64.23
-60.25
-52.00
-41.24
-32.56
-29.93
-33.57
-39.83
-43.43
-40.77
-32.19
-21.47
-13.17
-9.82
-10.64
-12.53
-12.17
-8.01
-1.03
5.81
9.15
6.84
-1.15
-12.43
-23.58
-30.97
-31.90
-25.65
-13.55
1.62
16.85
30.13
41.12
49.94
57.11
63.12
68.12
71.69
73.19
72.21
69.26
65.93
63.05
60.99
59.72
58.78
57.18
53.67
46.86
35.65
19.40
-4.09
-36.77
-79.40
-130.58
-187.45
-246.28
-303.75
-357.32
-393.47
-400.33
-372.26
-313.91
-237.78
-157.72
-83.03
-17.53
39.11
88.76
131.49
165.73
189.08
201.11
201.41
191.16
173.15
151.17
128.65
106.55
84.51
61.89
38.69
14.94
-8.79
-32.06
-52.87
-69.36
-80.19
-83.24
-76.08
-54.24
-19.73
18.53
48.28
60.92
55.34
36.70
12.96
-8.80
-25.43
-37.20
-44.18
-45.45
-39.39
-25.19
-3.85
22.32
50.75
78.64
103.20
123.66
141.34
159.25
180.11
203.87
226.81
241.94
240.44
215.66
166.96
100.23
25.94
-45.54
-108.07
-160.46
-199.16
-219.61
-217.69
-191.96
-145.40
-84.15
-15.94
51.45
112.35
164.18
206.07
238.19
262.87
280.63
291.35
294.94
291.04
280.02
263.15
241.63
216.77
189.80
161.47
132.17
104.94
82.26
66.20
58.23
58.48
66.11
79.53
96.70
115.93
135.67
154.14
169.74
181.18
187.27
186.99
179.61
164.46
141.15
109.24
67.81
16.12
-45.99
-117.56
-196.09
-277.20
-355.40
-424.61
-479.58
-517.08
-536.28
-538.58
-526.84
-504.41
-474.48
-440.02
-403.56
-367.69
-335.17
-308.78
-291.06
-284.00
-289.08
-307.12
-337.46
-376.93
-419.31
-455.86
-477.79
-479.33
-459.88
-424.52
-381.85
-340.58
-306.59
-281.69
-264.67
-253.09
-245.06
-239.52
-235.73
-232.35
-227.22
-218.07
-203.50
-183.79
-160.62
-136.63
-114.04
-93.86
-75.52
-57.22
-37.00
-13.83
11.85
37.99
61.54
79.48
89.74
91.71
86.44
76.02
63.02
49.92
38.80
31.56
30.12
36.57
52.89
80.79
121.05
173.26
235.80
305.84
379.48
451.61
516.19
566.77
598.12
607.63
596.17
568.03
529.41
486.46
443.60
402.97
364.95
329.29
295.89
264.97
236.90
211.59
188.41
166.42
144.84
123.51
102.85
83.67
66.73
52.22
39.61
27.88
16.07
3.77
-8.54
-19.84
-29.02
-35.49
-39.42
-41.58
-42.73
-43.22
-43.03
-42.01
-40.18
-37.94
-35.73
-33.78
-31.77
-29.11
-24.93
-18.83
-11.30
-3.45
3.33
8.21
11.22
13.17
15.16
18.13
22.21
26.40
28.95
28.47
24.49
17.90
10.57
4.52
1.74
3.27
8.60
15.82
22.57
26.69
26.78
22.41
13.99
4.17
-4.38
-10.37
-14.19
-17.06
-19.69
-21.48
-21.40
-18.60
-10.37
4.23
22.75
39.91
50.43
51.51
43.97
30.41
13.70
0.85
-2.74
4.00
17.32
31.53
42.12
47.44
48.40
48.32
59.64
95.77
165.12
267.09
393.35
531.76
669.72
796.01
860.36
828.07
697.27
503.17
293.12
101.00
-58.95
-185.17
-281.34
-352.47
-396.64
-412.75
-404.18
-380.32
-352.49
-329.19
-314.18
-307.50
-307.28
-305.91
-296.75
-277.78
-252.56
-227.29
-207.05
-194.22
-189.00
-190.51
-194.46
-196.92
-196.60
-195.29
-195.96
-200.44
-209.25
-220.40
-230.77
-235.53
-230.37
-212.87
-183.26
-143.74
-97.46
-47.48
1.71
46.21
83.72
113.15
134.34
147.84
154.89
157.16
156.74
155.32
153.68
151.24
146.47
137.79
124.50
107.15
86.68
64.19
40.52
16.60
-5.95
-24.80
-37.66
-43.34
-42.04
-35.38
-25.06
-12.27
2.18
17.10
30.39
39.45
42.40
39.67
33.80
28.13
24.59
23.01
20.82
15.95
8.48
0.65
-4.49
-5.46
-3.70
-2.99
-7.52
-19.67
-38.74
-61.34
-82.68
-98.35
-105.74
-104.32
-95.43
-81.74
-66.52
-52.97
-43.38
-38.17
-35.61
-32.97
-27.70
-18.89
-7.01
6.52
20.42
34.30
48.04
61.62
74.19
84.45
91.01
94.26
95.53
96.11
96.20
92.57
83.02
65.32
39.43
4.83
-36.16
-79.78
-121.84
-158.47
-186.63
-203.95
-209.28
-199.61
-177.89
-147.49
-111.71
-74.54
-36.59
0.74
35.31
64.25
84.61
93.67
91.42
80.17
64.10
48.58
37.96
34.59
38.11
45.52
52.13
54.55
51.47
44.11
36.08
31.21
30.47
33.70
38.58
40.54
34.95
18.24
-10.44
-48.08
-88.89
-125.42
-150.67
-159.88
-151.85
-128.13
-93.29
-53.71
-15.42
16.95
41.24
53.98
53.57
41.83
23.82
2.68
-22.02
-52.39
-89.72
-133.00
-178.64
-224.70
-268.66
-305.07
-329.31
-338.30
-330.43
-305.17
-262.65
-201.50
-123.46
-31.43
74.30
191.54
315.21
437.70
550.80
647.93
725.57
783.03
797.38
757.85
668.30
545.88
411.97
283.77
171.68
80.41
10.04
-42.38
-78.04
-99.50
-110.41
-114.62
-114.92
-112.55
-107.91
-101.93
-96.18
-90.04
-83.30
-76.86
-72.34
-71.12
-73.82
-80.24
-89.76
-101.16
-111.54
-119.40
-125.47
-133.00
-146.16
-167.37
-195.26
-224.41
-244.92
-248.94
-233.39
-201.19
-159.74
-117.46
-80.43
-50.98
-28.61
-11.75
0.66
9.06
13.58
14.64
13.21
10.68
8.61
7.96
8.96
11.01
13.25
14.84
15.14
13.78
10.68
6.43
1.99
-1.43
-2.81
-1.83
1.33
6.03
11.45
17.16
23.46
30.77
39.22
48.66
58.88
70.14
83.62
100.62
121.20
142.99
161.13
169.02
163.11
143.13
112.96
78.59
44.99
13.97
-16.20
-48.68
-84.45
-120.10
-149.06
-163.73
-158.17
-133.01
-93.55
-47.78
-2.97
36.15
68.96
95.47
115.38
127.39
129.31
120.04
100.49
73.61
44.04
16.31
-6.84
-24.60
-37.70
-48.15
-57.63
-67.02
-75.99
-83.85
-89.94
-94.25
-97.82
-101.48
-105.45
-109.55
-112.79
-113.54
-110.52
-103.18
-92.20
-79.21
-66.06
-54.50
-45.49
-39.11
-34.59
-30.93
-27.36
-23.71
-20.10
-16.67
-13.44
-10.23
-6.85
-3.39
-0.07
3.26
6.96
11.94
18.99
27.88
37.24
45.05
49.72
50.99
50.38
49.71
49.80
49.69
47.20
40.48
29.82
18.23
9.93
8.67
15.74
29.72
47.48
65.50
81.01
92.20
98.01
97.65
90.61
77.13
58.54
37.12
15.13
-5.47
-23.64
-38.86
-50.87
-59.81
-65.93
-69.64
-71.73
-71.72
-69.95
-67.12
-64.18
-62.09
-61.60
-63.04
-65.93
-69.13
-71.30
-71.39
-69.03
-64.42
-58.04
-50.36
-41.70
-32.11
-21.93
-11.90
-3.01
3.99
9.16
13.54
18.63
25.68
35.13
46.40
58.35
69.78
79.81
88.01
93.56
95.51
92.63
84.46
71.79
56.94
43.38
34.32
31.83
35.96
44.55
54.09
60.87
62.30
57.61
47.99
35.56
22.44
10.21
-0.34
-8.90
-15.19
-18.71
-19.34
-17.37
-13.86
-10.31
-7.88
-7.14
-7.89
-9.52
-11.29
-12.88
-14.19
-15.40
-16.67
-18.11
-19.70
-21.44
-23.22
-24.77
-25.58
-24.96
-22.33
-17.66
-11.71
-5.99
-2.20
-1.48
-3.91
-8.52
-13.52
-17.15
-18.24
-16.54
-12.70
-8.05
-4.16
-2.41
-3.63
-7.74
-13.98
-20.83
-26.75
-30.51
-31.76
-31.03
-29.02
-26.75
-24.73
-23.37
-22.60
-22.26
-22.06
-22.04
-22.26
-22.18
-20.99
-17.90
-12.79
-6.36
0.10
5.14
7.65
7.12
4.52
1.17
-1.94
-4.67
-7.08
-8.83
-8.92
-6.23
-0.34
9.62
23.98
42.76
65.68
92.60
123.90
160.08
200.83
236.33
255.89
252.11
225.30
182.21
131.55
80.68
34.65
-3.97
-34.80
-57.53
-72.32
-79.75
-81.07
-78.12
-73.00
-67.53
-63.18
-60.92
-60.00
-59.12
-57.14
-53.79
-49.62
-45.46
-41.93
-39.32
-37.50
-35.75
-33.43
-30.26
-26.77
-23.87
-22.17
-21.71
-22.03
-22.54
-22.90
-23.63
-25.87
-31.16
-40.66
-54.37
-70.85
-88.09
-102.80
-111.58
-111.47
-100.55
-78.95
-49.54
-17.94
9.02
24.81
27.09
18.58
5.77
-4.26
-7.21
-3.03
4.90
12.14
16.02
16.75
16.27
16.49
17.91
19.46
19.46
17.07
12.45
6.89
2.00
-1.32
-2.87
-2.64
-0.15
5.66
16.10
31.44
50.58
70.86
88.93
102.02
109.01
109.80
105.26
96.62
84.82
70.76
55.46
40.06
25.83
13.54
3.39
-4.96
-12.01
-18.31
-23.93
-28.52
-31.67
-32.98
-32.54
-30.68
-28.13
-25.55
-23.52
-22.35
-21.75
-21.47
-21.06
-20.27
-19.00
-17.42
-15.76
-14.19
-12.83
-11.56
-10.38
-9.15
-7.85
-6.60
-5.62
-5.20
-5.50
-6.59
-8.36
-10.70
-13.26
-15.82
-18.13
-20.03
-21.47
-22.31
-22.63
-22.39
-21.68
-20.55
-19.08
-17.35
-15.41
-13.27
-10.93
-8.38
-5.66
-2.75
0.30
3.43
6.41
9.00
10.99
12.17
12.48
11.95
10.73
9.07
7.23
5.48
4.11
3.36
3.35
4.03
5.30
6.94
8.71
10.38
11.72
12.65
13.12
13.14
12.75
12.04
11.00
9.72
8.23
6.60
4.92
3.23
1.56
-0.10
-1.72
-3.36
-5.02
-6.73
-8.50
-10.27
-12.00
-13.56
-14.83
-15.71
-16.17
-16.23
-15.99
-15.58
-15.13
-14.77
-14.56
-14.49
-14.52
-14.47
-14.21
-13.59
-12.43
-10.64
-8.30
-5.48
-2.40
0.57
3.21
5.23
6.53
7.15
7.30
7.14
7.00
7.04
7.39
8.11
9.13
10.34
11.59
12.73
13.59
14.14
14.27
14.13
13.86
13.66
13.71
14.11
14.86
15.90
16.99
17.85
18.25
18.02
17.00
15.18
12.68
9.77
6.81
4.21
2.36
1.59
2.01
3.60
6.11
9.14
12.25
14.92
16.80
17.59
17.17
15.54
12.89
9.53
5.80
2.07
-1.41
-4.47
-7.09
-9.44
-11.74
-14.13
-16.67
-19.35
-21.94
-24.19
-25.83
-26.45
-25.90
-24.08
-20.99
-16.90
-12.22
-7.42
-3.15
0.08
1.93
2.21
1.09
-1.07
-3.74
-6.37
-8.30
-9.05
-8.29
-5.91
-2.17
2.48
7.41
11.89
15.33
17.32
17.71
16.66
14.53
11.77
8.89
6.33
4.33
3.01
2.25
1.76
1.20
0.24
-1.37
-3.66
-6.48
-9.48
-12.17
-14.03
-14.64
-13.74
-11.27
-7.45
-2.75
2.18
6.63
10.02
11.89
12.07
10.64
7.89
4.33
0.52
-3.04
-5.94
-7.89
-8.84
-8.93
-8.51
-8.03
-7.87
-8.35
-9.61
-11.64
-14.21
-16.95
-19.45
-21.27
-22.05
-21.52
-19.69
-16.67
-12.79
-8.49
-4.32
-0.75
1.83
3.17
3.32
2.35
0.58
-1.60
-3.80
-5.67
-6.88
-7.22
-6.65
-5.15
-3.00
-0.45
2.14
4.32
5.80
6.32
5.76
4.15
1.73
-1.15
-3.97
-6.19
-7.40
-7.14
-5.23
-1.82
2.79
8.09
13.42
18.19
21.93
24.32
25.44
25.56
25.12
24.67
24.63
25.30
26.68
28.57
30.42
31.73
31.94
30.65
27.73
23.24
17.55
11.22
4.88
-0.93
-5.68
-9.21
-11.63
-13.20
-14.42
-15.74
-17.57
-20.22
-23.84
-28.28
-33.45
-39.17
-45.24
-51.45
-57.63
-63.66
-69.40
-74.66
-79.17
-82.70
-85.01
-85.85
-84.86
-81.72
-76.37
-68.86
-59.24
-47.89
-35.60
-23.62
-13.17
-5.24
-0.26
1.65
0.78
-1.32
-2.92
-2.67
0.11
5.65
13.82
24.35
36.22
47.78
58.43
67.36
73.37
75.02
71.67
64.01
54.27
45.49
40.91
45.30
62.39
93.35
135.88
185.39
236.62
285.31
329.21
354.45
351.71
319.57
265.65
200.89
133.72
68.75
8.62
-44.50
-88.85
-121.82
-142.55
-152.57
-155.26
-154.40
-152.67
-151.60
-152.03
-154.66
-158.81
-163.87
-169.75
-176.73
-185.00
-193.85
-201.78
-207.47
-208.98
-203.96
-191.00
-170.20
-143.38
-113.63
-84.48
-59.37
-41.04
-31.34
-30.71
-38.45
-52.99
-72.10
-93.21
-113.49
-130.19
-140.83
-143.70
-138.09
-124.41
-104.16
-79.43
-52.48
-24.82
0.41
21.77
39.13
53.22
65.27
76.54
87.88
99.65
111.92
124.52
137.76
152.01
167.53
184.54
203.16
223.27
244.18
264.48
281.84
293.72
298.01
293.60
281.03
262.11
238.94
212.88
184.24
152.43
116.69
76.96
34.10
-10.00
-52.79
-91.76
-124.97
-151.49
-171.40
-185.47
-194.62
-199.40
-199.61
-194.49
-183.28
-165.65
-142.32
-114.80
-84.93
-54.59
-25.69
0.01
20.78
34.94
41.46
40.16
31.88
18.70
3.51
-10.68
-21.29
-26.72
-26.76
-22.26
-15.00
-7.08
-0.52
3.08
2.89
-1.10
-8.13
-16.85
-25.41
-31.95
-34.80
-32.87
-26.03
-15.13
-1.78
11.79
23.23
30.51
32.25
27.85
17.80
3.34
-13.70
-30.93
-45.82
-56.04
-59.87
-56.73
-47.43
-33.85
-18.97
-6.18
1.47
1.95
-5.25
-19.29
-38.26
-59.45
-79.36
-94.79
-103.34
-103.94
-96.94
-83.75
-66.37
-46.88
-26.37
-4.33
19.47
44.01
66.51
82.93
89.74
85.46
71.02
50.76
31.91
20.78
21.05
32.95
53.71
79.23
105.33
127.80
145.06
159.20
173.50
191.60
216.42
249.31
290.14
337.15
386.11
422.07
432.76
409.73
351.46
263.95
158.24
46.77
-51.66
-132.82
-196.82
-243.62
-273.90
-289.00
-290.95
-284.01
-271.24
-254.83
-237.30
-218.75
-196.91
-169.40
-134.58
-92.26
-44.30
5.88
53.67
93.66
122.99
141.69
150.89
151.62
143.83
126.50
98.94
62.02
18.43
-26.49
-66.35
-96.18
-113.45
-118.17
-112.21
-98.38
-80.12
-61.63
-46.90
-39.17
-40.29
-49.86
-65.12
-81.59
-94.18
-98.53
-92.12
-74.62
-48.12
-16.71
14.32
39.76
55.29
58.58
50.05
32.96
12.71
-4.56
-13.46
-10.54
5.61
33.79
70.97
113.60
158.64
204.26
249.78
295.12
339.90
382.61
418.62
440.15
437.95
404.47
337.03
239.59
122.17
-4.65
-126.76
-231.03
-308.54
-356.13
-375.77
-372.42
-352.00
-320.32
-282.94
-244.67
-209.72
-180.93
-159.22
-143.53
-131.45
-120.49
-109.03
-96.72
-84.10
-72.38
-62.76
-55.78
-51.04
-47.39
-43.61
-38.91
-33.25
-26.98
-20.90
-15.85
-12.29
-10.12
-8.80
-7.63
-6.12
-4.15
-1.80
0.62
2.72
4.22
5.12
5.61
5.96
6.38
6.95
7.71
8.55
9.34
9.93
10.24
10.27
10.15
9.96
9.87
10.05
10.75
12.23
14.70
18.35
23.24
29.36
36.43
44.06
51.63
58.46
63.84
67.01
67.40
64.62
58.63
49.68
38.42
25.72
12.62
0.19
-10.63
-19.13
-24.90
-27.91
-28.42
-26.88
-23.94
-20.27
-16.43
-12.81
-9.68
-7.10
-4.96
-3.09
-1.23
0.85
3.23
5.99
9.09
12.30
15.43
18.35
21.05
23.57
26.09
28.81
32.04
36.08
40.83
46.26
52.28
58.79
65.63
72.65
79.69
86.72
93.80
100.47
106.57
111.98
116.77
120.96
124.69
128.06
131.30
134.66
137.68
140.12
141.77
142.50
142.05
139.98
135.46
127.04
118.08
109.60
102.20
96.19
91.70
88.68
86.91
86.12
86.03
86.51
86.69
86.15
84.66
82.22
78.92
74.86
70.18
65.04
59.73
54.04
48.00
41.77
35.57
29.46
23.26
16.56
8.84
-0.28
-11.28
-24.12
-38.36
-53.24
-68.04
-82.41
-96.31
-110.14
-124.33
-139.34
-155.22
-171.67
-188.21
-204.37
-219.95
-234.99
-249.78
-264.84
-280.93
-298.89
-319.15
-341.13
-362.73
-380.42
-390.04
-388.20
-373.40
-346.69
-311.32
-272.03
-233.52
-199.34
-171.02
-148.17
-129.32
-112.75
-97.14
-81.97
-67.38
-53.61
-40.65
-28.34
-17.03
-8.40
-5.03
-9.18
-21.42
-40.11
-61.43
-80.79
-94.36
-100.25
-99.48
-94.85
-89.48
-85.76
-85.55
-89.34
-96.31
-104.54
-111.11
-114.41
-113.41
-107.36
-96.44
-84.07
-75.02
-73.37
-80.00
-90.37
-99.00
-99.45
-86.19
-57.40
-18.80
20.64
53.12
75.54
91.60
103.64
114.06
125.18
137.86
147.62
148.44
135.66
108.17
71.25
27.30
-20.18
-65.90
-79.15
-38.08
58.50
188.12
300.64
390.21
462.80
525.52
587.25
649.35
706.43
752.39
784.45
804.13
818.32
827.66
829.76
821.02
798.00
756.46
694.71
615.98
528.28
444.17
371.02
312.25
268.50
237.75
214.78
193.60
169.88
141.43
109.27
72.52
29.76
-19.37
-74.54
-135.00
-199.12
-263.69
-324.62
-377.20
-418.81
-448.73
-467.30
-476.62
-479.21
-477.48
-472.69
-465.42
-455.83
-444.33
-431.43
-417.45
-403.20
-389.10
-375.11
-360.65
-345.19
-328.45
-310.52
-291.75
-272.38
-253.92
-237.06
-221.02
-203.56
-182.04
-154.31
-119.18
-76.35
-26.29
25.78
75.50
120.99
162.96
202.41
238.62
268.81
289.01
295.17
275.55
223.10
138.48
30.52
-88.98
-210.21
-326.94
-435.79
-535.02
-637.37
-750.77
-874.03
-995.98
-1103.08
-1186.96
-1246.02
-1283.45
-1304.83
-1333.98
-1387.14
-1467.11
-1561.82
-1654.01
-1730.86
-1786.49
-1819.99
-1721.33
-1439.60
-1000.43
-498.97
-36.65
327.90
582.45
742.20
831.85
875.76
869.59
818.59
733.66
634.66
542.52
470.85
424.05
399.96
393.72
386.73
367.90
334.70
295.89
263.89
247.26
248.48
265.80
295.73
325.78
347.81
359.66
366.55
376.06
393.12
418.69
450.78
486.26
517.48
539.05
548.64
547.75
539.47
525.86
507.56
484.12
455.03
418.43
373.75
321.82
265.14
207.02
150.30
97.14
49.08
7.17
-27.92
-55.68
-76.05
-89.16
-95.25
-94.88
-88.80
-77.85
-63.04
-45.40
-25.96
-5.64
14.75
34.63
53.61
71.43
88.04
103.43
117.66
130.68
142.24
151.84
158.80
162.25
161.19
154.76
142.20
123.21
98.03
67.40
32.64
-4.49
-41.89
-77.33
-108.57
-133.73
-151.29
-160.26
-160.24
-151.42
-134.53
-110.76
-81.62
-48.82
-14.16
20.72
54.39
85.71
113.95
138.71
159.89
177.71
192.56
204.84
215.08
223.65
230.73
236.34
240.10
241.41
239.39
233.18
222.03
205.63
184.11
158.01
128.30
96.02
62.32
28.15
-5.53
-37.74
-67.36
-93.14
-113.71
-127.91
-135.12
-135.45
-129.79
-119.51
-106.06
-90.51
-73.34
-54.31
-32.86
-8.72
17.87
45.94
73.98
100.44
124.14
144.53
161.75
176.58
190.21
203.81
218.02
232.43
245.02
252.43
250.86
237.63
212.48
177.86
138.19
98.19
61.34
28.74
-0.98
-30.59
-62.78
-98.80
-137.81
-176.78
-211.72
-238.61
-254.43
-257.89
-249.28
-229.83
-201.26
-165.73
-125.60
-83.80
-43.62
-8.07
20.91
42.78
58.38
69.46
77.79
84.73
90.81
95.87
99.46
101.20
101.13
99.71
97.62
95.63
94.15
93.28
92.90
92.99
93.59
95.15
98.29
103.63
111.73
122.78
136.60
152.68
170.39
188.86
207.29
224.78
240.41
253.22
262.27
266.68
265.76
259.10
246.70
228.93
206.62
180.87
153.03
124.54
96.81
71.04
48.20
28.99
13.69
2.29
-5.57
-10.48
-13.21
-14.47
-15.04
-15.50
-16.27
-17.63
-19.67
-22.38
-25.52
-28.88
-32.10
-34.89
-37.00
-38.17
-38.31
-37.36
-35.28
-32.21
-28.38
-24.11
-19.81
-15.92
-12.93
-11.30
-11.32
-13.19
-16.94
-22.34
-29.01
-36.48
-44.09
-51.22
-57.28
-61.74
-64.23
-64.55
-62.73
-58.94
-53.57
-47.11
-40.08
-33.04
-26.45
-20.65
-15.89
-12.20
-9.49
-7.69
-6.51
-5.69
-4.95
-4.00
-2.63
-0.65
2.11
5.64
9.93
14.81
19.98
25.04
29.44
32.55
33.85
32.83
29.31
23.30
15.11
5.24
-5.72
-17.20
-28.81
-40.33
-51.78
-63.43
-75.74
-89.23
-104.34
-121.38
-140.29
-160.70
-181.80
-202.51
-221.53
-237.45
-248.94
-254.94
-254.72
-248.09
-235.26
-216.84
-193.86
-167.47
-138.91
-109.41
-80.06
-51.78
-25.20
-0.67
21.70
42.04
60.59
77.74
93.87
109.32
124.36
139.06
153.37
167.13
180.17
192.28
203.33
213.10
221.35
227.88
232.28
234.21
233.49
230.22
224.72
217.59
209.43
200.75
191.79
182.32
171.75
159.56
145.36
129.08
111.14
92.25
73.28
54.97
37.66
21.33
5.70
-9.58
-24.68
-39.43
-53.21
-65.03
-73.50
-77.46
-76.29
-70.57
-62.22
-54.11
-49.22
-49.65
-56.08
-67.66
-82.60
-98.96
-115.28
-130.77
-145.13
-158.22
-170.17
-180.92
-190.11
-196.82
-199.59
-196.92
-187.78
-172.50
-152.75
-130.90
-109.27
-89.31
-71.68
-56.75
-44.77
-36.01
-30.08
-25.65
-20.83
-14.05
-5.10
4.65
12.61
16.42
15.10
9.39
1.44
-6.26
-11.87
-14.63
-14.72
-13.16
-11.21
-9.88
-9.55
-10.02
-10.52
-10.63
-10.55
-11.30
-14.29
-20.59
-30.29
-42.20
-54.37
-64.90
-72.53
-76.74
-77.80
-75.99
-71.48
-64.24
-54.63
-43.44
-32.00
-21.86
-13.98
-8.37
-3.93
1.18
8.71
19.30
32.31
45.86
57.58
65.33
68.02
65.58
59.01
49.88
39.87
30.70
23.59
18.78
15.28
11.30
5.22
-3.42
-13.06
-20.56
-22.70
-17.72
-6.29
9.07
25.32
40.26
53.19
64.52
74.98
84.83
93.68
100.64
104.75
104.91
99.73
87.74
67.86
40.30
7.36
-26.48
-55.47
-74.50
-80.79
-74.88
-60.26
-42.15
-25.91
-15.60
-13.19
-18.50
-29.60
-43.40
-56.55
-65.95
-69.47
-66.55
-58.20
-46.68
-34.79
-24.76
-17.73
-13.82
-12.35
-12.44
-13.61
-15.92
-19.67
-25.12
-32.05
-39.61
-46.93
-53.41
-58.76
-63.14
-66.26
-67.44
-65.65
-60.15
-50.97
-39.28
-26.86
-15.58
-6.63
-0.29
3.90
6.77
8.91
10.73
12.00
12.40
11.59
9.53
6.75
4.04
2.24
1.94
3.08
4.74
5.69
4.80
1.74
-2.76
-7.21
-10.29
-11.41
-10.97
-10.25
-10.45
-12.32
-15.88
-20.70
-26.58
-33.79
-43.10
-54.84
-68.49
-82.39
-94.14
-101.81
-104.68
-103.77
-101.67
-101.68
-106.51
-117.35
-133.34
-151.87
-169.19
-181.24
-184.54
-176.60
-156.40
-124.80
-84.61
-40.27
2.94
39.83
66.76
82.25
87.40
85.24
79.79
74.83
72.91
74.65
78.65
82.07
81.82
76.49
67.02
57.00
51.51
55.45
71.32
98.06
131.23
164.47
192.28
211.54
221.77
223.98
218.82
205.03
179.68
139.53
83.01
12.47
-66.31
-145.44
-216.73
-273.07
-309.33
-322.66
-312.87
-282.34
-234.04
-172.80
-104.85
-36.85
25.39
78.16
119.89
150.67
171.60
187.96
204.27
222.47
241.15
256.71
265.50
265.18
255.16
236.28
216.46
203.10
200.52
208.88
225.82
248.91
276.98
309.88
347.71
397.90
465.65
550.77
646.51
742.52
829.12
900.38
954.72
947.06
853.30
676.65
448.81
211.53
-4.02
-183.96
-326.95
-437.12
-520.18
-574.24
-598.47
-595.96
-574.46
-543.74
-512.41
-486.53
-469.47
-462.98
-461.42
-458.89
-451.71
-440.08
-425.34
-407.95
-387.11
-362.11
-334.36
-304.34
-274.97
-249.73
-232.44
-222.95
-216.69
-207.49
-191.47
-169.30
-143.61
-118.25
-96.18
-78.34
-63.83
-51.32
-40.39
-31.67
-26.33
-24.19
-23.91
-23.77
-22.15
-18.36
-12.61
-5.62
2.39
11.96
24.34
40.57
60.42
82.54
103.74
120.35
129.31
129.17
120.42
105.18
86.34
66.62
48.08
31.49
16.92
3.99
-7.54
-17.71
-26.58
-34.54
-42.47
-50.86
-59.54
-67.01
-71.08
-69.77
-62.60
-51.07
-38.03
-26.44
-17.86
-12.11
-7.72
-3.19
2.05
7.31
11.10
12.05
9.80
5.15
-0.26
-4.68
-7.08
-7.30
-5.88
-3.67
-1.32
0.69
2.28
3.74
5.49
7.78
10.42
12.70
13.49
11.85
7.19
-0.25
-9.46
-19.02
-27.59
-34.23
-38.53
-40.46
-40.12
-37.66
-33.35
-27.64
-21.14
-14.52
-8.19
-2.30
3.17
8.43
13.46
18.03
21.87
24.55
25.86
25.70
24.18
21.55
18.29
14.83
11.65
8.93
6.61
4.46
2.09
-0.48
-3.01
-4.94
-5.71
-5.10
-3.37
-1.25
0.33
0.50
-1.22
-4.73
-9.40
-14.25
-18.12
-20.07
-19.50
-16.07
-9.98
-1.88
7.07
15.36
21.54
24.54
24.03
20.55
15.27
9.67
5.05
2.28
1.76
3.62
7.66
13.47
20.40
27.40
33.27
36.88
37.55
35.14
30.34
24.30
18.44
14.09
12.22
13.14
16.67
21.90
27.42
31.66
33.01
30.41
23.37
12.16
-2.26
-18.29
-33.98
-47.32
-56.54
-60.42
-58.41
-50.84
-38.69
-23.60
-7.51
7.46
19.28
26.46
28.17
24.62
17.01
7.14
-2.98
-11.65
-17.85
-21.37
-22.53
-21.91
-19.90
-16.57
-11.72
-4.96
3.87
14.63
26.61
38.62
49.28
57.29
61.92
63.09
61.53
58.31
54.42
50.12
44.81
37.22
25.98
10.48
-8.70
-29.71
-50.12
-67.65
-80.75
-88.87
-92.21
-91.29
-86.38
-77.50
-64.69
-48.55
-30.51
-12.68
2.65
13.87
20.46
23.31
24.01
24.20
24.94
26.35
27.98
29.27
29.98
30.27
30.49
30.84
31.40
32.35
34.05
36.96
41.13
45.67
48.45
46.59
37.58
20.45
-3.41
-30.61
-56.79
-78.12
-92.19
-98.30
-97.04
-89.63
-77.32
-61.21
-42.41
-22.11
-1.66
17.57
34.55
48.70
59.93
68.58
75.12
79.88
83.10
84.97
86.15
87.59
90.23
94.15
97.96
98.76
92.89
77.41
51.38
16.41
-23.81
-64.86
-102.62
-134.18
-157.88
-173.10
-179.81
-178.73
-171.16
-159.02
-144.65
-130.01
-116.57
-104.87
-94.67
-85.17
-75.43
-64.67
-52.50
-38.95
-24.31
-9.04
6.69
23.02
40.39
59.24
79.52
100.65
121.31
139.82
154.65
164.72
169.89
170.59
167.44
160.95
151.23
138.09
121.40
101.38
78.70
54.65
30.52
7.51
-13.68
-32.77
-49.74
-64.65
-77.47
-88.26
-97.12
-104.33
-110.21
-114.93
-118.46
-120.56
-120.74
-118.53
-113.84
-106.83
-97.95
-87.76
-76.54
-64.54
-52.04
-39.55
-27.92
-18.14
-11.02
-6.84
-5.12
-4.78
-4.68
-4.03
-2.53
-0.28
2.43
5.35
8.26
10.88
13.07
14.89
16.46
18.08
19.90
21.98
24.28
26.71
29.30
32.10
35.12
38.17
40.84
42.60
43.00
42.04
40.06
37.66
35.43
33.78
32.63
31.54
30.02
27.76
25.00
22.24
19.97
18.41
17.37
16.40
15.27
13.96
12.58
11.16
9.30
6.44
2.20
-3.07
-8.36
-12.50
-14.75
-15.49
-15.87
-17.21
-20.16
-24.15
-27.84
-29.68
-28.76
-25.09
-19.59
-13.29
-7.08
-1.44
3.55
7.80
11.24
13.52
14.47
14.11
12.88
11.39
10.31
10.04
10.57
11.68
12.81
13.57
13.58
12.81
11.47
9.78
7.91
5.85
3.55
0.89
-2.12
-5.30
-8.35
-10.81
-12.37
-12.77
-12.05
-10.34
-8.00
-5.35
-2.67
-0.36
1.37
2.21
2.03
0.91
-0.82
-2.59
-3.74
-3.90
-3.12
-1.77
-0.53
0.26
0.43
0.21
-0.02
0.01
0.43
1.05
1.65
2.00
2.00
1.59
0.87
-0.03
-0.92
-1.57
-1.87
-1.75
-1.27
-0.68
-0.20
0.04
0.01
-0.17
-0.44
-0.73
-1.10
-1.64
-2.40
-3.48
-4.79
-6.28
-7.87
-9.31
-10.44
-10.93
-10.56
-9.34
-7.46
-5.21
-2.92
-0.82
1.07
2.67
3.93
4.79
5.16
5.07
4.80
4.64
4.84
5.48
6.42
7.39
8.16
8.67
8.93
9.12
9.29
9.38
9.16
8.40
7.07
5.24
3.24
1.45
0.05
-0.99
-1.83
-2.75
-3.83
-4.96
-5.97
-6.64
-6.91
-6.86
-6.62
-6.24
-5.65
-4.81
-3.71
-2.52
-1.56
-1.05
-1.09
-1.56
-2.09
-2.30
-1.92
-0.88
0.58
2.17
3.59
4.57
5.01
4.84
4.14
3.01
1.54
-0.14
-1.84
-3.35
-4.39
-4.80
-4.65
-4.12
-3.51
-3.09
-2.95
-3.01
-3.08
-3.01
-2.84
-2.65
-2.65
-2.83
-3.07
-3.25
-3.19
-2.95
-2.69
-2.58
-2.73
-3.19
-3.87
-4.76
-5.87
-7.29
-9.02
-10.81
-12.24
-12.76
-12.04
-10.06
-7.02
-3.41
0.25
3.46
5.95
7.64
8.63
9.07
9.13
8.98
8.68
8.26
7.63
6.86
6.09
5.54
5.47
5.93
6.85
8.00
9.03
9.60
9.47
8.53
6.93
4.98
3.06
1.53
0.54
0.04
-0.20
-0.38
-0.51
-0.30
0.69
2.71
5.61
8.73
11.19
12.21
11.55
9.43
6.68
4.26
3.07
3.74
6.52
11.31
17.59
24.32
30.09
33.78
34.78
33.60
31.59
30.47
31.54
35.12
40.26
45.11
47.69
46.46
40.91
31.62
19.99
7.62
-4.11
-14.40
-23.13
-30.44
-36.34
-40.64
-42.77
-42.36
-39.61
-35.45
-31.08
-27.53
-25.20
-23.82
-22.84
-21.84
-20.90
-20.41
-20.94
-22.50
-24.70
-26.70
-27.67
-27.11
-25.02
-21.81
-18.19
-14.90
-12.40
-10.93
-10.32
-10.12
-9.75
-8.64
-6.71
-4.36
-2.47
-1.75
-2.53
-4.32
-5.94
-6.13
-3.99
0.65
7.22
14.88
23.02
31.18
39.10
46.42
52.26
55.60
55.64
52.15
45.54
36.71
26.61
16.01
5.53
-4.24
-12.61
-18.65
-21.73
-21.88
-19.91
-17.18
-14.90
-13.57
-12.96
-12.16
-10.31
-7.18
-3.10
1.14
4.85
7.81
10.15
12.18
14.16
16.08
17.63
18.48
18.35
17.16
15.07
12.54
10.22
8.66
8.05
8.10
8.15
7.56
5.84
2.90
-1.02
-5.47
-9.95
-14.14
-17.71
-20.36
-21.96
-22.57
-22.50
-22.34
-22.51
-23.05
-23.56
-23.32
-21.95
-19.47
-16.55
-13.96
-12.15
-11.06
-10.28
-9.34
-8.10
-7.05
-6.74
-7.52
-9.15
-11.07
-12.73
-14.08
-15.57
-17.85
-21.23
-25.37
-29.38
-32.31
-33.64
-33.49
-32.51
-31.36
-30.38
-29.55
-28.59
-27.34
-25.86
-24.18
-22.39
-20.24
-17.34
-13.38
-8.30
-2.44
3.50
8.77
12.85
15.52
16.98
17.58
17.57
16.89
15.25
12.29
7.84
2.10
-4.53
-11.57
-18.70
-26.18
-34.36
-43.47
-53.22
-62.74
-70.92
-76.84
-80.07
-80.60
-78.58
-73.73
-65.38
-52.66
-35.26
-13.94
9.36
32.23
52.79
70.50
86.16
100.95
115.53
129.28
140.69
148.08
150.44
147.71
140.29
128.56
112.48
91.82
66.93
38.96
9.88
-17.97
-42.56
-62.31
-76.12
-83.38
-83.91
-78.12
-67.27
-53.11
-37.58
-22.28
-8.25
4.13
14.68
23.13
29.17
32.55
33.47
32.66
31.16
29.87
29.21
28.85
28.06
26.15
22.87
18.52
13.65
8.76
4.19
0.02
-3.90
-7.47
-10.52
-12.89
-14.43
-15.18
-15.14
-14.38
-12.97
-11.13
-9.04
-6.95
-5.16
-3.72
-2.45
-1.05
0.73
2.91
5.05
6.76
7.65
7.64
7.09
6.44
6.05
5.99
5.94
5.54
4.54
2.90
0.96
-0.78
-1.98
-2.57
-2.56
-2.18
-1.77
-1.63
-1.87
-2.49
-3.16
-3.60
-3.62
-3.09
-2.03
-0.54
1.41
3.89
6.83
10.13
13.37
16.17
18.44
20.40
22.56
25.17
27.93
29.89
29.99
27.55
22.58
15.87
8.52
1.48
-4.63
-9.50
-13.06
-15.06
-15.45
-14.41
-12.34
-9.95
-7.83
-6.28
-5.19
-4.26
-3.04
-1.36
0.70
2.92
4.76
5.79
5.65
4.43
2.55
0.62
-0.85
-1.79
-2.30
-2.64
-2.91
-3.02
-2.92
-2.70
-2.69
-3.32
-5.01
-7.81
-11.48
-15.37
-18.79
-21.16
-22.08
-21.50
-19.50
-16.54
-13.18
-10.03
-7.64
-6.29
-6.05
-6.87
-8.67
-11.25
-14.45
-17.85
-21.10
-23.91
-26.03
-27.48
-28.44
-28.99
-29.06
-28.32
-26.46
-23.34
-19.22
-14.66
-10.37
-6.89
-4.44
-2.68
-1.10
0.75
3.12
5.81
8.49
10.75
12.26
12.97
12.94
12.37
11.62
10.99
10.83
11.21
11.85
12.36
12.24
11.22
9.42
7.30
5.48
4.54
4.69
5.91
7.81
9.77
11.14
11.35
10.14
7.49
3.83
-0.19
-3.76
-6.25
-7.43
-7.42
-6.70
-5.74
-4.92
-4.18
-3.42
-2.50
-1.39
-0.38
0.43
0.98
1.48
2.13
2.97
3.77
4.35
4.73
5.16
5.96
7.11
8.20
8.50
7.59
5.54
3.01
0.83
-0.57
-1.11
-1.20
-1.24
-1.37
-1.42
-1.13
-0.36
0.82
2.19
3.81
5.84
8.56
12.00
15.75
19.18
21.55
22.34
21.42
19.10
15.85
12.23
8.55
4.93
1.27
-2.49
-6.29
-9.91
-13.05
-15.44
-16.87
-17.30
-16.80
-15.54
-13.70
-11.57
-9.38
-7.38
-5.75
-4.57
-3.75
-3.12
-2.48
-1.74
-0.99
-0.43
-0.37
-0.99
-2.18
-3.52
-4.31
-4.01
-2.43
0.19
3.21
5.95
7.87
8.71
8.41
6.95
4.45
1.03
-2.89
-6.67
-9.58
-11.16
-11.22
-10.05
-8.22
-6.26
-4.61
-3.27
-2.15
-1.20
-0.45
-0.02
0.02
-0.15
-0.14
0.30
1.23
2.29
2.97
2.84
1.95
0.76
-0.09
-0.04
0.93
2.44
3.82
4.50
4.34
3.54
2.50
1.56
0.72
-0.30
-1.84
-4.09
-6.98
-10.05
-12.77
-14.71
-15.81
-16.28
-16.46
-16.38
-15.87
-14.57
-12.16
-8.60
-4.22
0.44
4.80
8.39
11.11
12.99
14.11
14.53
14.17
13.00
11.18
9.03
6.97
5.34
4.21
3.52
3.03
2.49
1.88
1.35
1.16
1.39
1.96
2.51
2.63
2.12
0.97
-0.43
-1.47
-1.69
-1.01
0.23
1.24
1.38
0.41
-1.34
-3.18
-4.47
-4.97
-4.85
-4.41
-4.02
-3.77
-3.67
-3.70
-3.84
-4.13
-4.41
-4.43
-4.03
-3.36
-2.87
-3.15
-4.57
-6.88
-9.44
-11.62
-12.97
-13.52
-13.61
-13.54
-13.59
-14.00
-14.86
-16.35
-18.58
-21.49
-24.88
-28.48
-32.10
-35.66
-39.16
-42.30
-44.52
-45.12
-43.57
-39.84
-34.33
-27.72
-20.86
-14.57
-9.72
-7.10
-7.33
-10.47
-15.99
-22.64
-28.74
-32.92
-34.27
-32.30
-26.90
-18.09
-5.99
8.79
25.18
41.80
57.10
69.92
79.54
85.66
88.17
87.24
83.35
77.35
70.51
63.95
58.46
54.23
50.86
47.85
44.99
42.28
39.85
37.67
35.36
32.51
28.86
24.33
19.28
14.22
9.54
5.44
1.96
-1.08
-3.85
-6.38
-8.67
-10.62
-12.05
-12.85
-13.04
-12.68
-11.97
-11.16
-10.33
-9.54
-8.67
-7.63
-6.49
-5.38
-4.54
-4.15
-4.24
-4.61
-5.00
-5.03
-4.63
-3.95
-3.25
-2.81
-2.64
-2.65
-2.62
-2.48
-2.32
-2.35
-2.71
-3.34
-4.01
-4.38
-4.29
-3.76
-3.10
-2.53
-2.19
-1.98
-1.72
-1.38
-1.01
-0.82
-1.05
-1.80
-2.97
-4.29
-5.38
-5.99
-6.06
-5.65
-4.97
-4.25
-3.65
-3.32
-3.28
-3.55
-4.06
-4.69
-5.31
-5.77
-5.96
-5.78
-5.32
-4.72
-4.18
-3.83
-3.80
-4.05
-4.45
-4.82
-4.96
-4.87
-4.65
-4.49
-4.52
-4.72
-4.95
-4.87
-4.13
-2.51
-0.12
2.75
5.60
8.05
9.86
10.86
11.13
10.75
9.97
9.09
8.41
8.27
8.75
9.76
10.96
11.98
12.59
12.75
12.51
11.99
11.19
10.13
8.86
7.50
6.23
5.25
4.50
3.89
3.12
2.02
0.60
-0.90
-2.27
-3.39
-4.29
-5.08
-5.82
-6.57
-7.17
-7.53
-7.47
-7.01
-6.27
-5.26
-3.99
-2.37
-0.54
1.25
2.49
2.77
1.78
-0.32
-2.94
-5.38
-6.93
-7.37
-6.88
-6.00
-5.24
-4.84
-4.74
-4.58
-4.08
-3.11
-1.81
-0.49
0.45
0.86
0.87
0.70
0.68
0.82
1.11
1.34
1.30
0.92
0.26
-0.50
-1.29
-2.07
-2.96
-3.99
-5.11
-6.22
-7.07
-7.50
-7.48
-7.31
-7.18
-7.27
-7.51
-7.49
-6.87
-5.43
-3.28
-0.87
1.31
3.00
4.23
5.22
6.24
7.44
8.75
9.91
10.67
10.92
10.69
10.11
9.34
8.52
7.67
6.80
5.87
4.85
3.72
2.59
1.59
0.87
0.67
0.87
1.30
1.70
1.79
1.57
1.18
0.82
0.56
0.32
-0.24
-1.41
-3.27
-5.67
-8.23
-10.60
-12.66
-14.40
-15.76
-16.66
-16.84
-15.98
-14.08
-11.31
-8.09
-4.98
-2.30
-0.11
1.74
3.56
5.57
7.67
9.55
10.69
10.72
9.57
7.56
5.24
3.24
1.88
1.16
0.78
0.36
-0.29
-1.13
-1.97
-2.58
-2.77
-2.51
-1.95
-1.18
-0.32
0.56
1.56
2.65
3.79
4.92
5.88
6.57
6.85
6.75
6.32
5.68
4.87
3.87
2.60
1.02
-0.91
-3.06
-5.19
-6.98
-8.13
-8.47
-8.00
-6.84
-5.20
-3.31
-1.34
0.57
2.30
3.72
4.74
5.28
5.36
4.99
4.22
3.15
1.88
0.49
-0.94
-2.25
-3.39
-4.28
-4.95
-5.50
-5.97
-6.48
-7.17
-8.01
-8.96
-9.93
-10.76
-11.28
-11.36
-10.89
-9.83
-8.23
-6.26
-4.13
-2.10
-0.24
1.50
3.17
4.87
6.56
8.06
9.20
9.85
9.98
9.82
9.59
9.38
9.23
9.03
8.59
7.86
6.83
5.62
4.39
3.17
1.88
0.45
-1.17
-3.00
-4.87
-6.59
-7.97
-8.91
-9.50
-9.98
-10.57
-11.30
-12.12
-12.67
-12.61
-11.72
-9.90
-7.37
-4.35
-1.09
2.14
5.09
7.55
9.24
10.05
10.03
9.35
8.35
7.33
6.49
5.82
5.27
4.73
4.07
3.25
2.29
1.24
0.17
-0.86
-1.82
-2.60
-3.18
-3.57
-3.69
-3.51
-3.04
-2.42
-1.85
-1.48
-1.45
-1.82
-2.44
-3.22
-4.04
-4.76
-5.38
-5.74
-5.69
-5.11
-4.00
-2.46
-0.62
1.28
3.03
4.44
5.36
5.79
5.77
5.38
4.76
4.03
3.28
2.70
2.38
2.43
2.90
3.59
4.23
4.57
4.47
4.04
3.53
3.03
2.51
1.83
0.85
-0.43
-1.87
-3.21
-4.24
-4.76
-4.76
-4.32
-3.47
-2.39
-1.24
-0.26
0.37
0.51
0.20
-0.63
-1.89
-3.43
-5.08
-6.48
-7.39
-7.61
-7.08
-5.95
-4.44
-2.77
-1.11
0.41
1.73
2.78
3.45
3.76
3.73
3.39
2.77
1.92
1.01
0.34
0.10
0.28
0.74
1.12
1.13
0.64
-0.22
-1.11
-1.67
-1.82
-1.72
-1.55
-1.54
-1.64
-1.69
-1.51
-1.05
-0.42
0.19
0.52
0.51
0.20
-0.28
-0.76
-1.23
-1.73
-2.22
-2.65
-2.85
-2.64
-1.99
-0.89
0.41
1.59
2.41
2.81
2.94
3.11
3.56
4.29
5.13
5.69
5.69
5.02
4.02
3.05
2.50
2.48
2.84
3.29
3.60
3.69
3.60
3.51
3.38
3.11
2.46
1.26
-0.43
-2.37
-4.21
-5.65
-6.70
-7.51
-8.40
-9.66
-11.29
-13.09
-14.68
-15.65
-15.65
-14.54
-12.34
-9.27
-5.56
-1.54
2.52
6.26
9.43
11.78
13.09
13.25
12.32
10.50
8.13
5.67
3.55
2.25
2.00
2.81
4.40
6.27
7.90
8.83
8.79
7.76
5.89
3.43
0.69
-2.08
-4.60
-6.68
-8.23
-9.30
-10.02
-10.59
-11.03
-11.26
-11.06
-10.23
-8.82
-7.01
-5.14
-3.58
-2.49
-1.86
-1.55
-1.42
-1.50
-1.88
-2.71
-4.02
-5.69
-7.41
-8.73
-9.32
-9.10
-8.27
-7.22
-6.36
-5.97
-6.14
-6.72
-7.44
-8.13
-8.75
-9.50
-10.63
-12.26
-14.43
-16.96
-19.41
-21.22
-22.06
-21.91
-21.13
-20.18
-19.50
-19.29
-19.49
-19.34
-17.91
-14.70
-10.17
-5.42
-1.71
0.02
-0.83
-4.52
-10.10
-16.29
-21.95
-27.00
-32.20
-38.47
-46.59
-57.19
-70.72
-85.62
-99.17
-108.19
-110.83
-106.62
-96.21
-80.74
-61.77
-40.75
-16.12
15.93
60.42
120.85
198.11
290.10
392.02
496.69
579.21
614.64
590.34
514.46
409.29
297.64
194.09
104.34
28.76
-34.04
-83.10
-119.92
-146.46
-167.41
-188.83
-214.67
-243.33
-267.89
-272.94
-248.16
-195.07
-127.70
-65.73
-23.54
-3.69
2.46
7.22
18.77
37.93
60.80
82.92
102.64
121.52
141.93
164.05
184.60
198.55
200.96
189.82
165.63
132.06
94.82
58.77
27.30
1.28
-20.41
-40.24
-60.50
-84.90
-116.28
-149.86
-182.65
-212.50
-238.63
-261.21
-280.78
-297.37
-313.10
-328.96
-344.33
-358.34
-370.14
-379.82
-388.51
-397.51
-388.87
-352.36
-288.27
-207.41
-124.18
-48.60
15.30
67.40
109.33
143.17
168.13
184.04
192.24
195.66
197.95
201.86
208.83
219.05
231.84
243.73
252.56
256.16
253.86
246.08
233.10
215.02
191.88
164.13
130.97
94.44
57.04
21.70
-8.77
-33.02
-50.90
-63.04
-70.44
-74.65
-76.89
-78.13
-78.62
-78.32
-78.01
-78.79
-81.68
-87.09
-94.88
-104.18
-113.70
-123.76
-131.84
-137.03
-139.25
-138.67
-135.22
-128.43
-117.66
-102.64
-83.74
-62.11
-40.21
-21.05
-7.55
-2.17
-6.82
-22.25
-47.19
-77.95
-108.38
-131.74
-142.91
-140.49
-127.31
-109.35
-93.10
-82.65
-78.57
-78.46
-79.08
-78.11
-74.97
-70.09
-64.34
-58.27
-51.56
-43.98
-36.21
-29.92
-27.30
-30.23
-39.25
-53.34
-70.12
-85.47
-95.84
-99.21
-95.53
-86.12
-72.62
-56.28
-37.83
-17.48
6.87
36.40
70.29
105.61
138.37
165.16
184.16
195.23
199.61
202.95
210.39
224.58
245.13
269.61
295.53
321.58
347.50
373.65
405.41
446.92
498.94
558.16
618.92
675.53
724.08
762.35
759.06
695.65
571.29
405.03
225.29
56.03
-89.69
-208.09
-300.81
-371.72
-420.50
-447.51
-455.44
-449.88
-437.70
-424.85
-415.02
-409.66
-408.82
-408.33
-404.51
-395.89
-383.59
-370.20
-358.05
-348.07
-339.96
-332.83
-323.29
-308.42
-287.80
-262.56
-234.63
-205.76
-176.86
-148.33
-120.60
-93.16
-65.92
-39.35
-14.09
9.39
31.25
52.14
72.71
93.02
113.00
132.30
150.53
167.79
184.83
202.77
222.74
245.64
271.95
302.02
335.30
369.84
402.12
427.58
442.00
443.08
431.56
410.75
385.57
360.00
335.53
311.08
284.33
253.42
218.41
181.04
143.74
108.65
75.64
42.34
6.23
-32.41
-69.03
-95.99
-106.17
-96.63
-69.66
-32.92
3.56
30.89
43.76
40.56
21.92
-10.46
-57.87
-115.42
-172.43
-216.06
-237.17
-234.06
-211.27
-175.86
-133.90
-89.52
-44.47
-0.51
40.41
76.24
105.80
130.00
149.88
166.47
180.44
192.64
203.18
211.90
218.45
223.17
227.17
231.89
238.59
247.67
258.74
269.99
280.67
289.08
293.64
293.35
287.74
276.81
260.51
238.79
211.34
177.82
138.16
93.00
43.85
-7.05
-57.31
-104.97
-148.90
-189.06
-226.14
-261.35
-295.71
-329.64
-363.00
-395.31
-426.21
-455.53
-483.42
-510.06
-535.67
-560.38
-584.07
-606.00
-624.60
-637.39
-641.09
-632.73
-610.78
-575.85
-530.71
-479.27
-425.50
-372.47
-321.98
-274.86
-231.55
-192.58
-158.55
-130.06
-107.32
-90.09
-77.58
-68.56
-61.58
-55.48
-49.77
-44.54
-40.20
-36.62
-32.75
-26.49
-15.29
2.52
26.84
55.52
85.07
111.77
132.99
147.80
156.98
162.19
164.80
165.49
163.81
159.00
150.89
140.47
129.94
121.72
117.48
117.09
118.86
120.17
118.71
113.18
103.66
90.97
75.99
59.55
42.07
24.00
5.63
-13.19
-32.97
-54.21
-76.62
-98.14
-114.91
-122.31
-116.63
-96.90
-65.12
-25.65
16.50
57.40
94.66
127.42
155.31
177.68
193.32
200.89
199.78
190.42
174.52
154.34
132.27
110.42
90.88
75.45
65.45
61.31
61.95
64.81
66.69
65.25
60.13
53.40
48.12
46.77
49.62
54.77
59.50
61.74
61.26
59.19
56.71
53.96
49.58
41.91
29.98
14.57
-1.95
-16.56
-26.98
-32.36
-33.18
-30.74
-26.45
-21.31
-15.96
-10.97
-6.75
-3.81
-2.46
-2.67
-4.28
-6.91
-10.10
-13.21
-15.77
-17.09
-16.93
-15.38
-13.09
-11.14
-10.67
-12.30
-15.96
-20.79
-25.46
-28.75
-29.92
-28.97
-26.53
-23.42
-20.41
-17.75
-15.31
-12.57
-9.29
-5.70
-2.38
-0.20
0.33
-0.65
-2.40
-3.90
-4.35
-3.53
-1.78
0.38
2.27
3.54
3.88
3.12
1.17
-1.76
-5.06
-7.85
-9.06
-8.18
-5.53
-2.22
0.33
0.99
-0.49
-3.31
-6.07
-7.29
-6.21
-3.30
0.37
3.42
5.02
5.11
4.26
3.23
2.37
1.82
1.46
1.42
2.11
3.73
6.09
8.60
10.39
10.98
10.36
9.07
7.89
7.20
7.03
7.15
7.47
8.03
8.89
9.85
10.23
9.36
6.81
2.85
-1.51
-5.18
-7.35
-7.94
-7.28
-6.14
-5.06
-4.30
-3.95
-3.89
-4.15
-4.73
-5.48
-6.10
-6.55
-6.79
-7.02
-7.32
-7.54
-7.42
-6.62
-5.29
-3.91
-3.34
-4.06
-5.89
-8.02
-9.31
-9.09
-7.58
-5.89
-5.24
-6.49
-9.33
-12.69
-15.37
-16.51
-16.33
-15.57
-15.33
-16.26
-18.41
-21.33
-24.31
-26.87
-28.64
-29.66
-29.85
-29.01
-26.63
-22.14
-15.02
-4.96
7.86
22.99
39.59
56.37
71.85
84.37
92.64
96.39
96.62
95.33
94.93
96.85
101.43
107.83
114.63
120.31
123.29
122.01
114.77
100.26
78.17
49.36
15.84
-19.77
-54.94
-87.55
-116.00
-139.17
-156.32
-167.46
-173.54
-176.27
-177.88
-179.95
-182.67
-184.29
-181.04
-168.14
-141.46
-99.78
-46.32
11.25
62.99
99.98
117.35
115.44
98.72
73.16
43.85
14.13
-14.03
-38.97
-58.59
-71.23
-76.76
-77.31
-76.91
-79.53
-86.87
-97.04
-104.93
-104.25
-90.18
-61.36
-20.70
25.48
69.63
104.95
127.37
136.17
133.48
123.19
109.33
95.03
82.05
71.09
62.20
55.30
50.35
47.23
45.59
44.86
44.26
43.15
41.02
37.59
32.95
27.46
21.66
16.15
11.37
7.35
3.98
1.02
-1.61
-3.90
-5.80
-7.42
-8.96
-10.56
-11.94
-12.41
-11.19
-7.76
-2.23
4.35
10.29
13.82
13.75
10.06
4.04
-2.44
-7.47
-9.81
-9.58
-7.62
-4.83
-2.04
0.58
3.02
5.04
6.25
6.40
5.64
4.68
4.44
5.32
7.00
8.28
7.93
5.25
0.62
-4.70
-8.98
-10.93
-10.40
-8.14
-5.62
-4.26
-4.84
-7.13
-10.35
-13.29
-15.10
-15.66
-15.20
-14.20
-13.11
-11.93
-10.48
-8.60
-6.22
-3.63
-1.44
-0.15
-0.10
-1.11
-2.48
-3.36
-3.18
-2.00
-0.43
0.45
-0.05
-1.90
-4.08
-5.05
-3.56
0.85
7.54
14.94
21.26
25.26
26.53
25.53
23.13
20.19
17.03
13.80
10.51
7.23
4.61
3.39
4.08
6.34
8.97
10.31
9.09
5.12
-0.91
-7.62
-13.90
-19.46
-24.55
-29.44
-34.02
-37.38
-38.43
-36.58
-32.02
-25.98
-19.98
-15.32
-12.45
-10.98
-9.77
-7.44
-3.15
3.26
10.59
16.97
20.80
21.37
19.32
16.16
13.52
12.31
12.62
13.83
15.15
16.19
16.82
17.02
16.88
16.37
15.55
14.64
13.71
13.05
12.69
12.46
12.13
11.25
9.54
6.97
4.10
1.88
1.32
2.75
5.66
8.80
11.00
11.74
11.31
10.55
10.05
9.93
9.82
9.49
9.19
9.54
11.08
13.79
16.86
19.05
19.38
17.58
14.26
10.67
8.09
7.27
8.06
9.53
10.61
10.57
9.36
7.47
5.47
3.74
2.38
1.30
0.56
0.21
0.33
0.68
0.64
-0.34
-2.58
-5.75
-9.15
-11.93
-13.59
-14.10
-13.72
-12.71
-11.21
-9.31
-6.99
-4.66
-2.86
-2.33
-3.35
-5.62
-8.20
-9.91
-9.91
-8.08
-5.07
-2.03
0.03
0.95
1.27
2.07
4.00
6.80
9.44
10.76
10.26
8.43
6.48
5.42
5.47
5.99
5.99
4.74
2.36
-0.43
-2.89
-4.64
-5.75
-6.48
-6.82
-6.49
-5.30
-3.44
-1.45
-0.10
0.35
0.01
-0.50
-0.82
-1.03
-1.50
-2.82
-4.95
-7.40
-9.30
-9.96
-9.21
-7.52
-5.53
-3.55
-1.50
0.91
3.73
6.56
8.53
8.87
7.35
4.35
0.73
-2.92
-6.04
-8.34
-9.40
-8.96
-7.15
-4.49
-2.03
-0.57
-0.49
-1.28
-2.25
-2.80
-2.86
-3.05
-3.81
-5.21
-6.84
-8.09
-8.53
-8.30
-7.76
-7.03
-5.82
-3.48
0.39
5.61
11.15
15.63
17.58
16.19
11.64
4.89
-2.40
-8.48
-11.97
-12.22
-9.58
-5.40
-1.29
1.42
2.19
1.50
0.29
-0.45
-0.21
0.93
2.37
3.55
4.12
3.91
2.99
1.42
-0.63
-2.77
-4.43
-4.92
-3.88
-1.30
2.15
5.64
8.31
9.43
8.80
6.61
3.49
0.32
-2.05
-3.20
-2.96
-1.89
-0.53
0.40
0.35
-1.00
-3.73
-7.59
-12.07
-16.15
-18.73
-18.78
-16.00
-11.10
-5.51
-0.71
2.43
3.92
4.40
4.45
4.30
3.71
2.31
0.10
-2.31
-4.09
-4.59
-3.65
-1.70
0.64
3.03
5.38
7.86
10.27
12.18
12.88
11.80
8.76
4.11
-1.10
-5.68
-8.34
-8.28
-5.36
-0.30
5.48
10.19
12.33
11.25
7.27
1.69
-3.93
-8.17
-10.20
-9.93
-7.95
-5.29
-2.95
-1.71
-1.70
-2.51
-3.28
-3.29
-2.25
-0.48
1.26
2.50
3.11
3.51
4.05
4.69
4.96
4.11
1.68
-2.05
-6.01
-8.86
-9.47
-7.52
-3.49
1.44
5.74
8.24
8.32
6.25
2.97
-0.50
-3.14
-4.51
-4.63
-3.72
-2.20
-0.59
0.56
0.83
0.14
-1.11
-2.25
-2.46
-1.55
0.09
1.45
1.61
0.26
-2.15
-4.76
-6.69
-7.59
-7.43
-6.42
-4.89
-3.11
-1.46
-0.68
-1.39
-4.00
-8.19
-13.05
-17.33
-19.80
-19.84
-17.79
-14.55
-11.59
-10.16
-10.85
-13.46
-16.84
-19.55
-20.38
-18.81
-15.02
-9.75
-3.81
2.18
7.69
12.17
14.83
15.05
12.62
8.32
3.62
0.06
-1.22
-0.15
2.37
4.91
6.31
6.19
4.91
3.38
2.46
2.63
3.65
5.01
6.03
6.37
6.19
5.81
5.54
5.41
5.21
4.64
3.79
2.92
2.62
3.29
5.07
7.69
10.51
12.77
13.72
13.12
11.25
8.77
6.60
5.26
4.61
4.02
2.71
0.31
-2.75
-5.54
-7.00
-6.43
-3.84
0.09
4.21
7.29
8.46
7.55
5.07
2.04
-0.41
-1.60
-1.42
-0.25
1.51
3.49
5.50
7.35
8.65
9.12
8.79
8.17
7.94
8.46
9.36
9.72
8.65
6.06
2.80
0.10
-1.14
-1.17
-1.08
-2.05
-4.46
-7.45
-9.54
-9.39
-6.75
-2.73
1.12
3.43
3.81
2.80
1.42
0.37
-0.30
-0.94
-1.96
-3.23
-4.38
-5.00
-5.02
-4.60
-3.99
-3.10
-1.69
0.40
2.81
4.75
5.25
3.71
0.53
-3.27
-6.43
-8.10
-8.01
-6.48
-4.14
-1.54
0.81
2.36
2.82
2.04
0.38
-1.43
-2.57
-2.39
-0.76
1.78
4.38
6.16
6.44
5.12
2.53
-0.60
-3.41
-4.88
-4.32
-1.52
2.95
7.80
11.58
13.11
12.06
9.00
5.29
2.00
-0.15
-1.18
-1.69
-1.85
-1.76
-1.22
-0.03
1.54
2.81
3.04
1.75
-0.89
-3.92
-6.30
-7.10
-6.09
-3.78
-1.07
1.24
2.69
3.13
2.77
1.77
0.30
-1.40
-2.88
-3.43
-2.48
0.05
3.29
6.17
7.48
6.92
5.03
2.52
0.27
-1.48
-2.61
-2.97
-2.30
-0.54
1.96
4.26
5.24
4.31
1.75
-1.15
-2.79
-2.12
0.73
4.71
8.39
10.70
11.25
10.25
8.16
5.32
2.00
-1.47
-4.60
-6.73
-7.45
-6.57
-4.62
-2.41
-0.85
-0.54
-1.44
-3.25
-5.23
-6.68
-6.91
-5.64
-2.84
0.77
4.10
6.00
5.68
3.25
-0.51
-4.39
-7.33
-8.73
-8.66
-7.53
-5.92
-4.34
-3.04
-2.12
-1.63
-1.48
-1.45
-1.42
-1.18
-0.61
0.23
1.23
2.18
2.85
3.28
3.40
3.25
2.88
2.21
1.20
0.03
-1.03
-1.53
-1.09
0.29
2.28
4.24
5.28
4.77
2.71
-0.27
-3.13
-4.79
-4.66
-2.74
0.53
4.38
7.89
10.56
11.99
12.07
10.79
8.27
4.86
1.32
-1.50
-2.78
-2.29
-0.50
1.50
2.34
1.20
-1.84
-5.86
-9.44
-11.32
-11.04
-9.04
-6.27
-3.80
-2.23
-1.72
-1.99
-2.74
-3.72
-4.78
-5.83
-6.77
-7.38
-7.68
-7.87
-8.15
-8.65
-8.93
-8.36
-6.33
-2.79
1.54
5.36
7.35
6.99
4.89
2.41
1.03
1.44
3.26
5.35
6.44
5.76
3.46
0.40
-2.23
-3.62
-3.63
-2.69
-1.45
-0.37
0.40
1.15
1.94
2.62
2.70
1.64
-0.63
-3.69
-6.55
-8.31
-8.25
-6.61
-4.08
-1.45
0.65
2.04
2.82
3.21
3.45
3.73
4.08
4.44
4.58
4.38
3.80
2.84
1.76
0.71
-0.16
-0.62
-0.58
0.05
1.15
2.48
3.71
4.54
4.84
4.64
4.19
3.76
3.59
3.64
3.81
3.82
3.31
1.98
-0.08
-2.53
-4.61
-5.63
-5.28
-3.96
-2.41
-1.46
-1.55
-2.40
-3.38
-4.05
-4.30
-4.41
-4.74
-5.14
-5.22
-4.57
-3.11
-1.41
-0.25
-0.14
-0.81
-1.29
-0.62
1.56
4.67
7.52
9.05
8.95
7.77
6.49
5.82
5.70
5.62
5.11
4.28
3.61
3.55
4.01
4.25
3.26
0.48
-3.78
-8.32
-11.78
-13.27
-12.60
-10.42
-7.70
-5.38
-4.05
-3.68
-3.76
-3.60
-2.40
0.29
4.38
9.09
13.16
15.56
15.73
13.89
10.84
7.56
4.77
2.72
1.43
0.73
0.62
0.87
1.22
1.44
1.50
1.60
1.84
2.41
3.13
3.55
3.20
1.82
-0.53
-3.33
-5.96
-7.84
-8.60
-8.26
-7.06
-5.48
-3.91
-2.75
-2.20
-2.33
-2.94
-3.70
-4.18
-3.81
-2.09
1.11
5.39
9.65
12.59
13.07
10.88
6.63
1.61
-2.70
-5.49
-6.41
-5.80
-4.33
-2.71
-1.53
-1.16
-1.63
-2.74
-4.14
-5.53
-6.59
-6.99
-6.54
-5.07
-2.73
-0.03
2.20
3.17
2.43
0.29
-2.20
-3.79
-3.73
-2.17
-0.11
1.34
1.59
0.87
-0.11
-0.75
-0.92
-1.08
-1.58
-2.28
-2.73
-2.24
-0.75
1.31
3.11
3.88
3.58
2.70
1.87
1.25
0.56
-0.78
-3.12
-6.18
-9.11
-10.59
-9.79
-6.62
-2.10
2.34
5.35
6.44
6.07
5.32
5.22
6.16
7.71
8.97
9.32
8.60
7.26
6.12
5.68
5.98
6.68
7.43
8.09
8.76
9.49
10.16
10.50
10.11
8.72
6.52
4.21
2.72
2.74
4.27
6.43
7.96
7.69
5.35
1.47
-2.96
-6.97
-10.02
-12.10
-13.37
-14.07
-14.26
-13.94
-13.17
-12.03
-10.78
-9.54
-8.54
-7.79
-7.18
-6.61
-5.72
-4.32
-2.31
0.15
2.69
4.75
5.96
6.12
5.48
4.63
4.15
4.44
5.61
7.27
8.84
9.74
9.47
7.81
4.93
1.33
-2.35
-5.53
-7.77
-9.00
-9.48
-9.46
-9.31
-9.09
-8.64
-7.75
-6.27
-4.44
-2.70
-1.55
-1.31
-2.06
-3.68
-5.91
-8.25
-10.23
-11.47
-11.97
-11.90
-11.80
-11.96
-12.62
-13.72
-14.94
-15.89
-16.25
-16.06
-15.53
-15.25
-15.62
-16.72
-18.36
-20.04
-21.14
-21.27
-20.18
-17.88
-14.46
-9.94
-4.37
1.95
8.66
15.04
20.45
24.59
27.28
28.73
29.31
29.23
28.54
27.15
24.82
21.66
18.15
15.01
12.87
12.02
12.09
12.29
12.00
10.83
8.86
6.58
4.25
2.02
-0.04
-2.06
-3.78
-4.90
-5.29
-5.13
-4.70
-4.38
-4.20
-3.84
-3.06
-1.64
0.25
2.20
3.73
4.48
4.25
2.91
0.62
-2.35
-5.31
-7.30
-7.53
-5.56
-1.68
2.93
6.76
8.66
8.15
5.84
2.88
0.23
-1.45
-2.19
-2.40
-2.41
-2.45
-2.52
-2.53
-2.49
-2.26
-1.67
-0.47
1.41
3.72
5.82
6.85
6.32
4.31
1.49
-1.06
-2.43
-2.09
-0.17
2.55
4.97
6.13
5.56
3.47
0.60
-2.09
-3.95
-4.71
-4.71
-4.40
-4.15
-4.11
-4.13
-4.11
-3.94
-3.74
-3.61
-3.50
-3.40
-3.26
-3.16
-3.38
-4.27
-6.00
-8.29
-10.46
-11.62
-10.97
-8.26
-4.00
0.78
4.80
7.07
7.11
5.15
1.92
-1.60
-4.40
-5.69
-5.00
-2.45
1.49
5.80
9.43
11.35
11.08
8.89
5.69
2.72
1.20
1.67
3.73
6.41
8.35
8.69
7.29
4.88
2.54
1.08
0.57
0.56
0.34
-0.40
-1.54
-2.66
-3.57
-4.37
-5.27
-6.35
-7.20
-7.29
-6.34
-4.76
-3.42
-3.28
-4.50
-6.34
-7.46
-6.70
-3.87
0.11
3.70
5.70
5.76
4.57
3.08
1.98
1.18
0.17
-1.54
-3.82
-5.81
-6.53
-5.51
-3.27
-1.07
-0.08
-0.73
-2.73
-5.04
-6.63
-6.97
-6.06
-4.36
-2.50
-0.85
0.40
1.40
2.32
3.40
4.64
5.69
6.18
5.86
4.98
4.29
4.52
5.90
7.87
9.26
9.09
7.28
4.65
2.54
1.94
3.06
5.21
7.13
7.97
7.53
6.30
4.96
4.01
3.38
2.80
1.99
0.82
-0.57
-1.97
-3.11
-3.95
-4.49
-4.60
-4.06
-2.62
-0.34
2.36
4.74
5.99
5.66
3.95
1.56
-0.74
-2.42
-3.50
-4.16
-4.68
-4.98
-4.79
-3.92
-2.53
-1.25
-0.82
-1.60
-3.24
-5.08
-6.40
-6.89
-6.72
-6.19
-5.25
-3.47
-0.46
3.55
7.46
9.66
8.83
4.71
-1.60
-8.00
-12.52
-13.89
-12.16
-8.36
-3.93
-0.22
1.85
2.09
0.68
-1.86
-4.89
-7.92
-10.52
-12.48
-13.66
-14.12
-13.98
-13.54
-13.17
-13.10
-13.07
-12.63
-11.24
-8.75
-5.60
-2.58
-0.60
0.03
-0.32
-0.92
-1.09
-0.63
-0.02
0.06
-1.00
-3.38
-6.73
-10.56
-14.35
-17.61
-19.90
-20.74
-19.85
-17.44
-14.01
-10.31
-6.89
-3.78
-0.82
2.29
5.41
7.87
9.04
8.59
6.97
5.18
4.27
4.73
6.26
8.10
9.60
10.56
11.28
12.18
13.34
14.41
14.72
13.74
11.40
8.17
4.94
2.74
2.28
3.67
6.41
9.53
12.06
13.22
12.74
10.83
7.89
4.42
0.69
-3.27
-7.51
-12.06
-17.00
-22.21
-27.47
-32.39
-36.51
-39.37
-40.55
-39.93
-37.62
-33.81
-28.62
-22.06
-14.13
-4.96
5.01
15.09
24.38
32.11
37.89
41.76
43.95
44.74
44.44
43.15
41.08
38.42
35.35
32.10
28.66
25.02
21.11
17.01
12.89
9.05
5.64
2.65
-0.16
-3.32
-7.27
-12.32
-18.44
-25.30
-32.22
-38.67
-44.31
-49.00
-52.83
-55.78
-57.82
-58.83
-58.87
-58.03
-56.75
-55.42
-54.31
-53.67
-53.42
-53.44
-53.73
-54.37
-55.50
-57.34
-59.86
-62.81
-65.68
-67.71
-68.10
-66.30
-62.17
-55.91
-48.01
-39.04
-29.55
-20.09
-11.15
-3.20
3.23
7.73
10.04
10.10
8.21
4.87
0.61
-3.85
-7.94
-11.24
-13.42
-14.27
-13.69
-11.53
-7.78
-2.61
3.77
10.92
18.41
25.72
32.48
38.39
43.36
47.45
50.85
53.86
56.86
60.36
64.76
70.49
77.73
86.50
96.54
107.27
117.92
127.53
135.14
139.93
141.30
138.98
133.04
123.95
112.52
99.76
86.78
74.65
64.29
56.35
51.08
48.40
47.94
49.06
51.00
53.00
54.39
54.67
53.61
51.21
47.76
43.77
39.85
36.49
34.03
32.60
32.06
32.18
32.71
33.31
33.76
33.79
33.14
31.61
29.12
25.56
20.96
15.34
8.73
1.22
-7.10
-15.98
-25.09
-33.92
-41.93
-48.69
-54.01
-57.99
-60.94
-63.15
-64.75
-65.66
-65.72
-64.93
-63.39
-61.55
-59.89
-58.70
-57.98
-57.58
-57.23
-56.84
-56.53
-56.30
-56.15
-55.84
-54.97
-53.18
-50.36
-46.57
-42.08
-37.22
-32.22
-27.17
-22.13
-17.12
-12.33
-8.07
-4.66
-2.37
-1.23
-1.00
-1.31
-1.74
-1.93
-1.85
-1.44
-0.78
-0.00
0.83
1.63
2.22
2.46
2.39
2.04
1.71
1.57
1.71
2.07
2.59
3.17
3.69
4.19
4.57
4.71
4.48
3.70
2.43
0.87
-0.71
-1.98
-2.71
-2.94
-2.77
-2.48
-2.33
-2.28
-2.34
-2.31
-2.10
-1.80
-1.70
-1.99
-2.75
-3.87
-4.95
-5.68
-5.80
-5.41
-4.77
-4.31
-4.18
-4.31
-4.57
-4.71
-4.67
-4.52
-4.45
-4.63
-5.12
-5.81
-6.59
-7.42
-8.30
-9.31
-10.41
-11.44
-12.24
-12.56
-12.37
-11.66
-10.56
-9.16
-7.58
-5.89
-4.22
-2.74
-1.64
-1.09
-1.10
-1.51
-2.05
-2.59
-3.07
-3.42
-3.61
-3.49
-2.92
-1.68
0.29
2.90
5.91
8.96
11.80
14.22
16.13
17.39
17.90
17.52
16.31
14.44
12.23
10.24
8.95
8.66
9.51
11.32
13.72
16.32
18.63
20.16
20.58
19.64
17.39
14.02
10.00
5.81
2.02
-0.79
-2.19
-1.89
0.12
3.51
7.69
11.86
15.24
17.22
17.55
16.31
13.80
10.40
6.63
3.07
0.18
-1.53
-1.77
-0.48
2.07
5.34
8.44
10.58
11.20
10.13
7.62
4.18
0.44
-3.08
-5.89
-7.72
-8.39
-7.81
-6.09
-3.64
-1.06
0.82
1.29
-0.08
-3.36
-8.13
-13.63
-18.90
-23.03
-25.35
-25.65
-24.06
-21.16
-17.60
-14.05
-11.00
-8.81
-7.65
-7.50
-8.27
-9.59
-10.96
-11.83
-11.71
-10.41
-8.11
-5.19
-2.21
0.29
1.98
2.73
2.50
1.49
-0.11
-1.94
-3.53
-4.50
-4.50
-3.43
-1.40
1.21
3.94
6.33
8.00
8.76
8.68
7.85
6.62
5.35
4.29
3.75
3.84
4.62
6.06
8.02
10.10
11.98
13.18
13.44
12.69
11.12
9.00
6.73
4.60
2.84
1.62
1.06
1.16
1.78
2.64
3.33
3.53
3.10
2.12
0.87
-0.36
-1.48
-2.48
-3.54
-4.85
-6.42
-8.16
-9.88
-11.32
-12.30
-12.76
-12.69
-12.20
-11.37
-10.33
-9.12
-7.81
-6.37
-4.81
-3.24
-1.82
-0.74
-0.20
-0.17
-0.49
-0.90
-1.08
-0.94
-0.63
-0.45
-0.73
-1.65
-3.10
-4.69
-6.02
-6.74
-6.89
-6.70
-6.48
-6.44
-6.61
-6.91
-7.15
-7.26
-7.07
-6.52
-5.57
-4.18
-2.51
-0.82
0.62
1.57
1.95
1.85
1.40
0.77
0.08
-0.70
-1.54
-2.46
-3.42
-4.38
-5.23
-5.82
-5.94
-5.43
-4.29
-2.80
-1.26
-0.02
0.69
0.93
0.90
0.85
0.99
1.30
1.76
2.29
2.83
3.39
3.95
4.51
5.07
5.72
6.51
7.41
8.24
8.69
8.51
7.70
6.46
5.19
4.18
3.49
3.00
2.49
1.83
1.12
0.59
0.37
0.45
0.58
0.46
-0.09
-1.07
-2.28
-3.39
-4.21
-4.65
-4.78
-4.77
-4.69
-4.55
-4.25
-3.67
-2.75
-1.55
-0.32
0.76
1.51
1.89
1.97
1.89
1.71
1.43
0.88
-0.17
-1.67
-3.53
-5.43
-7.00
-8.01
-8.43
-8.43
-8.28
-8.10
-7.80
-7.25
-6.18
-4.62
-2.83
-1.22
-0.12
0.47
0.77
1.08
1.52
2.06
2.50
2.67
2.52
2.31
2.31
2.68
3.33
3.93
4.22
4.11
3.69
3.28
3.13
3.36
3.89
4.59
5.30
5.91
6.27
6.35
6.09
5.43
4.45
3.24
2.11
1.28
0.88
0.84
0.99
1.21
1.42
1.60
1.80
1.97
2.01
1.75
1.04
-0.12
-1.52
-2.92
-4.15
-5.18
-6.08
-6.98
-7.78
-8.31
-8.35
-7.80
-6.78
-5.62
-4.63
-4.01
-3.79
-3.83
-3.98
-4.15
-4.32
-4.46
-4.55
-4.47
-4.18
-3.69
-3.12
-2.65
-2.35
-2.20
-2.07
-1.80
-1.27
-0.53
0.37
1.40
2.52
3.75
5.06
6.32
7.33
7.88
7.75
6.93
5.63
4.01
2.26
0.57
-1.00
-2.29
-3.17
-3.56
-3.36
-2.56
-1.28
0.31
1.91
3.32
4.37
4.99
5.16
5.04
4.81
4.56
4.31
3.95
3.33
2.39
1.25
0.02
-1.18
-2.23
-3.20
-4.07
-4.75
-5.08
-4.94
-4.26
-3.34
-2.44
-1.78
-1.48
-1.41
-1.54
-1.81
-2.28
-2.95
-3.71
-4.30
-4.32
-3.55
-1.91
0.42
3.04
5.44
7.21
8.01
7.78
6.75
5.26
3.79
2.63
1.78
1.12
0.44
-0.35
-1.19
-1.94
-2.53
-2.95
-3.30
-3.66
-3.96
-4.08
-3.94
-3.64
-3.38
-3.42
-3.83
-4.60
-5.61
-6.71
-7.78
-8.72
-9.33
-9.43
-8.90
-7.68
-5.94
-3.93
-1.89
0.06
1.90
3.67
5.42
7.12
8.66
9.98
10.90
11.39
11.52
11.40
11.18
10.94
10.62
10.15
9.48
8.56
7.53
6.42
5.21
3.85
2.21
0.36
-1.48
-3.13
-4.29
-4.80
-4.68
-3.98
-2.92
-1.79
-0.98
-0.85
-1.56
-3.09
-5.04
-6.94
-8.44
-9.36
-9.75
-9.82
-9.63
-9.14
-8.31
-7.11
-5.80
-4.68
-4.02
-3.96
-4.31
-4.65
-4.55
-3.67
-2.03
-0.08
1.67
2.73
2.94
2.59
2.19
2.23
2.78
3.56
4.02
3.74
2.74
1.45
0.51
0.41
1.24
2.65
4.10
5.01
5.12
4.45
3.21
1.77
0.37
-0.82
-1.84
-2.83
-4.01
-5.41
-6.99
