1720468861.00
64.000000
-0.00
-0.00
-0.00
-0.00
-0.00
-0.00
-0.00
-0.00
-0.00
-0.00
0.00
0.01
0.01
-0.00
-0.03
-0.05
-0.05
0.00
0.13
0.36
0.66
1.01
1.37
1.72
2.06
2.40
2.79
3.24
3.80
4.42
5.06
5.66
6.20
6.68
7.15
7.68
8.31
9.14
10.09
11.04
11.88
12.56
13.14
13.76
14.65
15.96
17.91
20.32
22.90
25.38
27.58
29.57
31.68
34.32
37.81
42.54
48.15
54.10
59.83
64.97
69.58
74.14
79.34
85.71
93.76
103.00
112.62
121.73
129.77
136.75
143.30
150.75
157.77
166.64
177.95
191.79
206.97
220.57
228.25
225.36
208.53
176.87
132.76
80.05
23.07
-34.94
-92.44
-149.16
-205.23
-260.37
-313.74
-363.87
-409.83
-450.91
-486.50
-515.74
-537.23
-549.22
-549.96
-538.37
-514.21
-478.67
-433.88
-382.45
-327.02
-269.84
-212.63
-156.66
-102.95
-52.37
-5.90
35.58
71.43
101.35
125.50
144.38
158.69
169.15
176.37
180.75
182.57
182.07
179.51
175.23
169.65
163.18
156.15
148.81
141.30
133.69
126.02
118.33
110.69
103.16
95.80
88.68
81.83
75.25
68.95
62.95
57.25
51.86
46.78
42.03
37.59
33.45
29.61
26.07
22.81
19.83
17.11
14.67
12.48
10.54
8.83
7.35
6.07
4.97
4.05
3.27
2.62
2.09
1.65
1.30
1.02
0.79
0.61
0.47
0.37
0.29
0.25
0.22
0.18
0.11
0.03
-0.07
-0.17
-0.23
-0.26
-0.24
-0.20
-0.16
-0.14
-0.17
-0.22
-0.28
-0.32
-0.32
-0.28
-0.23
-0.20
-0.24
-0.35
-0.52
-0.68
-0.77
-0.75
-0.62
-0.46
-0.39
-0.50
-0.83
-1.32
-1.80
-2.11
-2.13
-1.86
-1.48
-1.24
-1.37
-1.94
-2.85
-3.79
-4.44
-4.57
-4.18
-3.55
-3.06
-3.10
-3.80
-5.01
-6.33
-7.29
-7.62
-7.26
-6.42
-5.47
-4.78
-4.73
-5.71
-7.94
-11.22
-14.57
-16.21
-14.15
-7.07
4.72
19.10
32.80
42.69
47.12
46.05
40.83
33.30
24.98
16.84
9.48
3.54
-0.20
-1.25
0.27
3.26
6.12
7.33
6.08
2.68
-1.77
-5.92
-8.82
-10.17
-10.24
-9.56
-8.63
-7.71
-6.96
-6.55
-6.69
-7.58
-9.14
-10.94
-12.32
-12.58
-11.34
-8.66
-4.96
-0.84
3.08
6.39
8.87
10.48
11.28
11.30
10.63
9.28
7.36
5.09
2.81
0.87
-0.43
-1.04
-1.10
-0.91
-0.72
-0.65
-0.66
-0.59
-0.38
-0.08
0.20
0.32
0.25
0.10
-0.05
-0.18
-0.33
-0.68
-1.42
-2.62
-4.12
-5.60
-6.76
-7.43
-7.68
-7.76
-8.03
-8.80
-10.16
-11.99
-13.89
-15.30
-15.66
-14.51
-11.76
-7.70
-2.89
1.99
6.36
9.90
12.52
14.30
15.34
15.65
15.20
13.99
12.11
9.81
7.41
5.30
3.85
3.31
3.74
4.95
6.55
7.98
8.69
8.35
6.96
4.84
2.53
0.58
-0.69
-1.25
-1.36
-1.39
-1.65
-2.32
-3.34
-4.59
-5.90
-7.19
-8.44
-9.66
-10.93
-12.28
-13.71
-15.14
-16.34
-17.02
-16.80
-15.41
-12.73
-8.92
-4.38
0.33
4.65
8.17
10.64
12.04
12.43
11.94
10.77
9.14
7.36
5.78
4.68
4.29
4.59
5.37
6.29
7.05
7.45
7.50
7.34
7.12
6.91
6.63
6.16
5.41
4.38
3.17
1.91
0.69
-0.50
-1.69
-2.87
-4.02
-5.14
-6.28
-7.55
-9.03
-10.58
-11.83
-12.22
-11.33
-9.02
-5.58
-1.64
2.16
5.35
7.76
9.43
10.47
10.94
10.81
10.08
8.78
7.12
5.31
3.59
2.14
1.03
0.26
-0.23
-0.58
-0.90
-1.27
-1.72
-2.21
-2.66
-3.10
-3.61
-4.28
-5.15
-6.18
-7.23
-8.17
-8.96
-9.66
-10.45
-11.42
-12.59
-13.82
-14.88
-15.57
-15.76
-15.48
-14.78
-13.70
-12.14
-9.85
-6.53
-2.00
3.64
9.90
16.08
21.49
25.71
28.71
30.69
31.91
32.43
32.10
30.74
28.35
25.22
21.90
19.00
16.88
15.54
14.65
13.66
12.13
9.90
7.09
4.09
1.34
-0.86
-2.47
-3.71
-4.86
-6.12
-7.50
-8.85
-9.96
-10.76
-11.27
-11.64
-11.96
-12.23
-12.44
-12.54
-12.59
-12.73
-13.11
-13.78
-14.63
-15.39
-15.68
-15.21
-13.86
-11.76
-9.24
-6.66
-4.32
-2.36
-0.83
0.22
0.74
0.68
0.06
-0.91
-1.90
-2.62
-2.91
-2.81
-2.47
-2.05
-1.57
-1.05
-0.46
0.14
0.60
0.82
0.74
0.41
-0.11
-0.74
-1.51
-2.39
-3.29
-4.01
-4.32
-4.07
-3.34
-2.39
-1.57
-1.15
-1.28
-1.97
-3.15
-4.67
-6.36
-7.94
-9.07
-9.39
-8.68
-6.93
-4.40
-1.46
1.52
4.25
6.61
8.53
9.97
10.92
11.34
11.25
10.69
9.76
8.58
7.35
6.25
5.47
5.11
5.17
5.46
5.75
5.80
5.44
4.67
3.66
2.65
1.84
1.28
0.84
0.25
-0.78
-2.38
-4.46
-6.72
-8.85
-10.60
-11.90
-12.90
-13.81
-14.89
-16.27
-17.96
-19.82
-21.59
-22.92
-23.48
-23.03
-21.53
-19.17
-16.28
-13.20
-10.25
-7.57
-5.22
-3.19
-1.57
-0.45
0.08
0.02
-0.50
-1.18
-1.68
-1.84
-1.71
-1.55
-1.70
-2.26
-3.00
-3.40
-3.07
-2.05
-1.00
-0.85
-2.22
-4.98
-8.28
-10.96
-12.23
-11.95
-10.52
-8.31
-5.20
-0.65
5.86
14.25
23.57
32.38
39.43
44.21
47.07
48.75
49.70
49.72
48.05
43.88
37.02
28.16
18.79
10.69
5.28
3.17
4.08
7.04
10.76
14.13
16.42
17.45
17.48
17.05
16.70
16.67
16.83
16.70
15.84
14.10
11.82
9.65
8.05
7.11
6.38
5.34
3.75
1.98
0.71
0.48
1.14
1.76
0.98
-2.32
-8.40
-16.59
-25.60
-34.22
-41.76
-48.12
-53.59
-58.35
-62.31
-65.08
-66.31
-65.90
-64.19
-61.75
-59.21
-56.99
-55.34
-54.39
-54.20
-54.67
-55.44
-55.86
-55.12
-52.61
-48.20
-42.30
-35.71
-29.16
-23.02
-17.00
-10.33
-2.09
8.29
20.73
34.33
47.67
59.12
67.26
71.17
70.53
65.67
57.37
46.80
35.23
23.84
13.53
4.82
-2.22
-7.79
-12.28
-16.12
-19.67
-23.13
-26.66
-30.29
-33.97
-37.56
-40.78
-43.24
-44.47
-44.03
-41.68
-37.50
-31.92
-25.65
-19.38
-13.67
-8.70
-4.33
-0.20
3.99
8.29
12.38
15.63
17.33
16.94
14.24
9.45
3.07
-4.25
-11.85
-19.19
-25.89
-31.77
-36.89
-41.53
-46.14
-51.18
-56.86
-63.10
-69.48
-75.45
-80.52
-84.36
-86.87
-87.99
-87.66
-85.77
-82.10
-76.39
-68.31
-57.45
-43.44
-26.10
-5.79
16.49
39.17
60.55
79.22
94.36
105.69
113.29
117.45
118.68
117.88
116.38
115.64
116.76
119.94
124.44
128.93
132.12
133.21
131.94
128.41
122.83
115.57
107.34
99.37
93.10
89.64
89.24
91.00
93.40
94.90
94.65
92.77
89.95
86.89
83.84
80.37
75.73
69.29
60.90
50.98
40.36
29.95
20.31
11.56
3.37
-4.83
-13.50
-22.69
-31.94
-40.40
-47.15
-51.61
-53.90
-54.77
-55.34
-56.64
-59.25
-63.26
-68.39
-74.22
-80.18
-85.46
-88.98
-89.48
-85.86
-77.69
-65.38
-50.20
-33.82
-17.86
-3.53
8.47
17.86
24.69
29.26
32.10
33.90
35.29
36.77
38.53
40.58
42.88
45.33
47.84
50.26
52.33
53.72
54.06
53.06
50.51
46.35
40.63
33.50
25.31
16.51
7.59
-1.01
-9.09
-16.67
-23.96
-31.18
-38.42
-45.50
-52.11
-57.96
-62.92
-67.19
-71.24
-75.71
-81.08
-87.63
-95.15
-103.07
-110.51
-116.54
-120.44
-121.89
-120.98
-118.07
-113.72
-108.36
-102.24
-95.38
-87.76
-79.43
-70.62
-61.68
-52.78
-43.82
-34.17
-23.02
-9.76
5.66
22.54
39.70
55.92
70.42
83.04
93.98
103.59
112.09
119.63
126.33
132.36
137.78
142.45
145.95
147.74
147.36
144.63
139.80
133.48
126.41
119.22
112.27
105.65
99.32
93.37
88.08
83.77
80.35
77.11
72.76
65.95
56.14
44.20
32.30
22.99
18.08
17.76
20.54
24.11
26.21
25.52
21.70
15.02
5.87
-5.39
-18.38
-32.36
-46.12
-58.31
-67.87
-74.54
-78.95
-82.31
-85.78
-89.86
-94.20
-97.76
-99.39
-98.42
-94.99
-89.92
-84.34
-79.17
-74.81
-71.11
-67.46
-63.18
-57.75
-51.16
-43.86
-36.74
-30.90
-27.11
-25.66
-26.12
-27.49
-28.55
-28.32
-26.22
-22.14
-16.20
-8.66
0.10
9.44
18.40
25.81
30.58
32.15
30.73
27.20
22.76
18.44
14.80
11.84
9.21
6.50
3.43
-0.05
-3.78
-7.51
-10.92
-13.75
-15.80
-17.00
-17.30
-16.70
-15.23
-13.00
-10.31
-7.72
-6.01
-5.97
-8.05
-12.26
-18.05
-24.62
-31.15
-37.09
-42.15
-46.27
-49.47
-51.89
-53.71
-55.32
-57.15
-59.58
-62.69
-66.13
-69.07
-70.45
-69.26
-64.94
-57.52
-47.62
-36.21
-24.24
-12.50
-1.49
8.35
16.59
22.74
26.48
27.85
27.42
26.06
24.65
23.78
23.57
23.79
24.06
24.07
23.67
22.83
21.66
20.31
18.94
17.65
16.43
15.14
13.54
11.45
8.77
5.60
2.08
-1.57
-5.23
-8.83
-12.36
-15.79
-19.07
-22.11
-24.87
-27.33
-29.54
-31.64
-33.72
-35.73
-37.39
-38.16
-37.52
-35.17
-31.35
-26.76
-22.39
-19.06
-17.14
-16.41
-16.40
-16.73
-17.40
-18.80
-21.33
-25.06
-29.49
-33.68
-36.69
-37.92
-37.36
-35.46
-32.70
-29.32
-25.17
-19.86
-13.12
-5.02
3.91
12.88
21.06
27.88
33.08
36.69
38.93
40.08
40.38
39.99
38.96
37.28
34.90
31.78
27.94
23.52
18.83
14.35
10.67
8.31
7.60
8.58
10.96
14.20
17.66
20.77
23.17
24.72
25.47
25.56
25.09
24.05
22.47
20.46
18.28
16.27
14.80
14.01
13.80
13.82
13.67
13.13
12.16
10.95
9.76
8.75
7.92
7.18
6.35
5.34
4.12
2.75
1.24
-0.37
-2.15
-4.13
-6.31
-8.58
-10.78
-12.82
-14.75
-16.79
-19.23
-22.26
-25.72
-29.07
-31.50
-32.33
-31.19
-28.22
-23.97
-19.17
-14.40
-10.10
-6.48
-3.70
-1.92
-1.30
-1.89
-3.55
-5.96
-8.71
-11.43
-13.94
-16.25
-18.52
-20.92
-23.49
-26.18
-28.82
-31.27
-33.48
-35.45
-37.27
-38.86
-40.02
-40.42
-39.69
-37.61
-34.10
-29.27
-23.26
-16.24
-8.37
0.11
8.80
17.15
24.59
30.63
34.97
37.51
38.33
37.66
35.92
33.66
31.54
30.16
29.95
31.00
33.01
35.45
37.68
39.14
39.57
38.97
37.61
35.78
33.66
31.18
28.11
24.24
19.63
14.71
10.14
6.58
4.36
3.38
3.18
3.16
2.61
0.74
-3.28
-10.15
-19.91
-31.58
-43.03
-51.56
-54.92
-52.27
-44.62
-34.41
-24.47
-16.84
-12.24
-10.09
-9.19
-8.42
-7.13
-5.11
-2.35
1.16
5.45
10.38
15.51
20.11
23.40
24.81
24.33
22.54
20.44
19.11
19.30
21.27
24.69
28.85
32.97
36.44
39.01
40.76
41.92
42.69
43.09
43.00
42.22
40.58
38.13
35.07
31.73
28.40
25.22
22.23
19.34
16.47
13.62
10.75
7.85
4.83
1.60
-1.87
-5.53
-9.15
-12.38
-14.79
-16.05
-16.00
-14.68
-12.34
-9.32
-5.88
-2.18
1.72
5.70
9.57
12.92
15.30
16.39
16.15
14.86
13.03
11.14
9.49
8.08
6.78
5.38
3.84
2.28
0.93
0.00
-0.42
-0.44
-0.26
-0.11
-0.22
-0.76
-1.87
-3.59
-5.65
-7.32
-7.45
-4.74
1.69
11.90
25.04
39.60
54.06
67.24
78.35
86.73
91.55
91.79
86.71
76.47
62.43
46.92
32.25
19.87
9.91
1.51
-6.32
-13.81
-20.20
-24.14
-24.48
-21.05
-14.74
-7.02
0.58
6.68
9.99
9.18
3.15
-8.35
-24.12
-41.37
-56.62
-67.00
-71.40
-70.77
-67.32
-63.18
-59.30
-55.40
-50.68
-44.81
-38.49
-33.06
-29.64
-28.47
-28.78
-29.40
-29.49
-28.75
-27.41
-25.71
-23.52
-20.45
-16.34
-11.63
-7.28
-4.30
-3.12
-3.26
-3.65
-3.22
-1.47
1.34
4.49
7.26
9.31
10.68
11.54
11.99
11.95
11.44
10.75
10.50
11.36
13.55
16.59
19.24
20.06
17.97
12.83
5.39
-3.09
-11.40
-18.74
-24.84
-29.61
-33.03
-35.02
-35.69
-35.49
-35.19
-35.53
-36.96
-39.26
-41.68
-43.30
-43.39
-41.72
-38.50
-34.05
-28.57
-22.08
-14.54
-6.15
2.55
10.79
17.92
23.61
28.00
31.56
34.91
38.63
42.95
47.80
52.77
57.17
60.26
61.44
60.56
57.94
54.27
50.19
45.96
41.28
35.52
28.22
19.65
10.72
2.70
-3.45
-7.56
-10.24
-12.46
-14.99
-17.91
-20.67
-22.55
-23.24
-23.04
-22.79
-23.36
-25.22
-28.25
-31.87
-35.41
-38.32
-40.27
-41.02
-40.40
-38.23
-34.41
-29.01
-22.30
-14.76
-6.90
0.73
7.71
13.66
18.34
21.62
23.48
24.07
23.54
22.09
19.89
17.23
14.39
11.77
9.72
8.48
8.14
8.62
9.72
11.21
12.81
14.23
15.21
15.59
15.33
14.49
13.21
11.58
9.62
7.32
4.70
1.81
-1.26
-4.46
-7.75
-11.02
-14.00
-16.17
-16.93
-15.76
-12.51
-7.45
-1.31
5.09
10.98
15.90
19.68
22.36
24.10
24.96
24.98
24.18
22.66
20.60
18.27
15.91
13.66
11.48
9.23
6.82
4.29
1.88
-0.07
-1.26
-1.60
-1.26
-0.55
0.14
0.51
0.38
-0.27
-1.32
-2.63
-4.03
-5.42
-6.83
-8.35
-10.14
-12.32
-14.91
-17.83
-20.85
-23.64
-25.77
-26.78
-26.29
-24.09
-20.27
-15.19
-9.48
-3.74
1.55
6.14
10.00
13.12
15.48
17.00
17.64
17.46
16.77
15.96
15.42
15.41
15.87
16.55
17.14
17.39
17.24
16.78
16.19
15.58
14.93
14.16
13.13
11.81
10.22
8.47
6.62
4.69
2.64
0.41
-1.99
-4.46
-6.84
-8.97
-10.72
-12.09
-13.17
-14.09
-14.99
-15.98
-17.13
-18.54
-20.23
-22.13
-23.99
-25.38
-25.73
-24.57
-21.67
-17.13
-11.49
-5.40
0.41
5.43
9.37
12.13
13.74
14.20
13.59
11.99
9.74
7.27
5.10
3.63
2.95
2.76
2.62
2.04
0.79
-1.00
-3.04
-5.01
-6.87
-8.83
-11.31
-14.68
-19.04
-24.19
-29.70
-35.04
-39.86
-44.03
-47.72
-51.30
-55.26
-60.05
-66.03
-73.36
-81.95
-91.37
-100.82
-109.34
-116.11
-120.89
-124.27
-127.64
-132.48
-139.53
-148.01
-155.52
-158.84
-155.12
-143.10
-123.49
-98.40
-70.14
-40.13
-8.60
24.86
60.47
97.80
135.91
173.82
210.87
246.44
279.27
307.16
327.25
337.17
336.18
325.53
307.85
285.74
260.70
233.00
202.47
169.78
136.89
106.58
81.23
61.66
46.86
34.63
22.86
10.49
-2.30
-14.56
-25.48
-34.99
-43.72
-52.52
-61.86
-71.46
-80.42
-87.67
-92.58
-95.08
-95.63
-94.78
-92.84
-89.83
-85.62
-80.28
-74.33
-68.62
-64.03
-61.11
-59.82
-59.62
-59.73
-59.53
-58.65
-57.04
-54.80
-52.08
-49.02
-45.68
-42.07
-38.13
-33.63
-28.38
-22.27
-15.47
-8.38
-1.56
4.46
9.35
12.94
15.12
15.84
15.08
13.00
10.02
6.73
3.80
1.62
0.26
-0.61
-1.42
-2.54
-4.13
-6.14
-8.43
-10.82
-13.20
-15.38
-17.11
-18.01
-17.66
-15.73
-12.24
-7.56
-2.41
2.43
6.36
9.18
11.10
12.50
13.65
14.56
14.99
14.62
13.38
11.52
9.53
7.96
7.09
6.82
6.80
6.60
5.97
4.98
3.98
3.37
3.40
4.03
4.90
5.51
5.41
4.46
2.81
0.86
-1.00
-2.51
-3.71
-4.81
-6.10
-7.78
-9.85
-12.17
-14.42
-16.27
-17.36
-17.46
-16.47
-14.40
-11.38
-7.64
-3.46
0.88
5.14
9.06
12.47
15.17
17.00
17.84
17.68
16.60
14.87
12.87
11.00
9.58
8.79
8.55
8.71
9.09
9.53
10.00
10.48
10.94
11.27
11.23
10.58
9.18
7.13
4.74
2.47
0.66
-0.57
-1.39
-2.14
-3.14
-4.60
-6.58
-9.00
-11.70
-14.40
-16.73
-18.27
-18.62
-17.56
-15.14
-11.64
-7.42
-2.80
1.90
6.42
10.48
13.81
16.22
17.66
18.22
18.10
17.48
16.48
15.19
13.71
12.24
11.01
10.27
10.10
10.45
11.03
11.51
11.56
10.93
9.59
7.67
5.46
3.29
1.42
0.01
-1.01
-1.79
-2.55
-3.48
-4.68
-6.11
-7.65
-9.17
-10.62
-12.05
-13.60
-15.41
-17.43
-19.44
-20.90
-21.18
-19.71
-16.31
-11.28
-5.30
0.80
6.45
11.36
15.60
19.29
22.44
24.88
26.33
26.66
25.94
24.55
22.96
21.70
21.10
21.30
22.26
23.74
25.41
26.91
27.98
28.58
28.91
29.38
30.51
32.75
36.27
40.86
45.81
50.08
52.54
52.50
49.99
45.91
41.82
39.29
39.41
42.26
46.92
51.74
54.88
55.01
51.72
45.78
38.88
33.08
30.06
30.54
34.10
39.32
44.50
48.21
49.68
48.87
46.27
42.60
38.55
34.54
30.55
26.01
19.82
10.69
-2.45
-19.78
-40.37
-62.17
-82.60
-99.21
-110.40
-115.72
-115.79
-111.98
-105.92
-99.11
-92.62
-87.10
-82.76
-79.56
-77.27
-75.41
-73.26
-69.90
-64.47
-56.54
-46.54
-35.80
-26.35
-20.11
-18.05
-19.75
-23.48
-26.94
-28.26
-26.72
-22.96
-18.43
-14.62
-12.30
-11.25
-10.51
-9.06
-6.41
-2.86
0.72
3.38
4.64
4.57
3.67
2.52
1.52
0.81
0.43
0.35
0.50
0.73
0.66
-0.15
-2.12
-5.32
-9.46
-13.97
-18.22
-21.69
-24.08
-25.29
-25.36
-24.45
-22.83
-20.77
-18.54
-16.30
-14.06
-11.78
-9.37
-6.89
-4.54
-2.60
-1.26
-0.57
-0.30
-0.08
0.33
0.95
1.51
1.64
1.18
0.32
-0.50
-0.74
-0.23
0.83
1.89
2.36
1.91
0.59
-1.22
-3.01
-4.42
-5.31
-5.72
-5.78
-5.57
-5.09
-4.40
-3.64
-2.98
-2.61
-2.54
-2.65
-2.69
-2.58
-2.42
-2.54
-3.25
-4.66
-6.55
-8.53
-10.20
-11.39
-12.23
-12.92
-13.66
-14.52
-15.56
-16.84
-18.49
-20.51
-22.64
-24.33
-24.95
-24.08
-21.77
-18.46
-14.77
-11.12
-7.60
-4.09
-0.45
3.19
6.43
8.79
10.03
10.26
9.91
9.47
9.32
9.58
10.20
10.98
11.68
12.14
12.24
11.96
11.40
10.70
10.01
9.41
8.86
8.29
7.64
7.00
6.54
6.41
6.61
6.84
6.67
5.68
3.77
1.15
-1.73
-4.46
-6.84
-8.89
-10.74
-12.42
-13.75
-14.38
-13.97
-12.39
-9.79
-6.47
-2.80
1.00
4.83
8.57
12.01
14.69
16.12
15.94
14.21
11.44
8.44
5.96
4.44
3.89
4.07
4.66
5.50
6.54
7.76
9.03
10.07
10.65
10.64
10.13
9.27
8.18
6.89
5.36
3.55
1.46
-0.90
-3.54
-6.52
-9.88
-13.42
-16.82
-19.63
-21.53
-22.52
-22.89
-23.11
-23.51
-24.12
-24.61
-24.50
-23.34
-20.91
-17.27
-12.71
-7.55
-2.14
3.29
8.53
13.26
17.13
19.81
21.10
21.07
20.05
18.51
16.89
15.45
14.27
13.34
12.61
12.03
11.56
11.14
10.66
10.01
9.17
8.23
7.39
6.83
6.61
6.69
6.93
7.19
7.36
7.38
7.13
6.46
5.17
3.16
0.48
-2.63
-5.83
-8.78
-11.35
-13.60
-15.76
-18.12
-20.80
-23.72
-26.52
-28.71
-29.75
-29.20
-26.83
-22.61
-16.79
-9.81
-2.27
5.15
11.84
17.26
21.09
23.20
23.68
22.80
21.04
18.95
17.05
15.77
15.26
15.43
15.99
16.66
17.23
17.68
18.05
18.34
18.47
18.24
17.55
16.46
15.23
14.09
13.06
11.93
10.30
7.90
4.88
1.75
-0.82
-2.39
-3.02
-3.28
-3.88
-5.37
-7.80
-10.81
-13.86
-16.52
-18.60
-20.03
-20.69
-20.35
-18.69
-15.45
-10.67
-4.66
1.98
8.54
14.39
19.11
22.51
24.53
25.23
24.65
22.83
19.91
16.15
12.06
8.26
5.35
3.71
3.38
4.13
5.58
7.32
9.05
10.49
11.44
11.75
11.36
10.38
9.06
7.66
6.36
5.18
4.01
2.65
0.96
-1.04
-3.21
-5.32
-7.21
-8.85
-10.40
-12.11
-14.23
-16.83
-19.72
-22.47
-24.48
-25.19
-24.21
-21.39
-16.84
-10.91
-4.06
3.11
10.08
16.32
21.41
25.01
26.92
27.17
26.01
23.99
21.75
19.84
18.52
17.72
17.10
16.32
15.23
13.93
12.73
11.90
11.54
11.48
11.46
11.25
10.75
10.05
9.25
8.45
7.61
6.62
5.40
3.93
2.29
0.57
-1.12
-2.69
-4.06
-5.13
-5.86
-6.35
-6.90
-7.96
-9.97
-13.13
-17.30
-21.94
-26.22
-29.28
-30.42
-29.32
-26.06
-21.09
-15.08
-8.72
-2.64
2.70
6.99
10.02
11.76
12.27
11.81
10.73
9.38
8.01
6.73
5.51
4.31
3.12
2.00
1.09
0.58
0.63
1.22
2.23
3.30
4.06
4.20
3.60
2.41
0.92
-0.53
-1.76
-2.74
-3.57
-4.35
-5.12
-5.85
-6.44
-6.77
-6.83
-6.71
-6.66
-6.99
-7.92
-9.50
-11.50
-13.54
-15.26
-16.42
-16.99
-17.00
-16.45
-15.19
-12.95
-9.55
-5.01
0.28
5.67
10.44
13.99
16.00
16.51
15.79
14.23
12.24
10.11
8.03
6.16
4.62
3.49
2.87
2.74
3.07
3.74
4.58
5.39
5.93
5.99
5.51
4.56
3.41
2.35
1.63
1.26
1.06
0.67
-0.27
-1.93
-4.21
-6.74
-9.07
-10.81
-11.88
-12.43
-12.83
-13.47
-14.58
-16.16
-17.95
-19.58
-20.65
-20.82
-19.90
-17.85
-14.82
-11.08
-6.93
-2.61
1.70
5.85
9.64
12.77
14.93
15.93
15.80
14.82
13.37
11.83
10.47
9.39
8.56
7.92
7.43
7.07
6.88
6.94
7.33
8.05
8.95
9.74
10.09
9.79
8.82
7.43
5.93
4.56
3.36
2.10
0.47
-1.79
-4.72
-8.10
-11.51
-14.50
-16.80
-18.34
-19.36
-20.29
-21.53
-23.26
-25.33
-27.24
-28.30
-27.95
-25.91
-22.27
-17.35
-11.66
-5.62
0.34
5.90
10.73
14.55
17.12
18.24
17.87
16.11
13.30
9.99
6.93
4.82
4.08
4.70
6.13
7.60
8.35
7.98
6.58
4.67
2.95
2.02
2.12
3.02
4.12
4.64
3.93
1.79
-1.33
-4.40
-6.30
-6.26
-4.39
-1.62
0.64
1.29
0.16
-1.70
-2.38
-0.06
6.12
15.49
26.07
35.40
41.72
44.70
45.51
46.17
48.71
54.57
64.19
76.92
90.70
101.87
105.60
97.52
76.03
44.36
10.62
-14.62
-22.33
-8.81
22.88
64.62
106.83
142.33
168.16
185.03
194.93
199.03
196.65
185.84
164.96
134.14
96.08
55.71
19.16
-7.77
-21.09
-20.08
-7.76
9.77
24.82
30.49
22.79
1.91
-28.04
-60.65
-89.53
-110.45
-122.38
-127.23
-128.39
-128.98
-130.48
-132.46
-133.47
-132.38
-129.46
-126.53
-126.02
-129.38
-135.86
-142.59
-145.99
-143.95
-137.28
-129.49
-124.89
-125.98
-131.90
-138.99
-143.16
-142.65
-139.50
-138.36
-143.54
-156.17
-173.25
-189.35
-199.97
-204.42
-205.85
-208.60
-214.72
-222.13
-225.91
-221.36
-206.85
-183.85
-154.62
-119.33
-75.39
-19.92
46.36
116.87
180.62
227.36
253.16
262.86
267.73
279.64
304.94
341.80
381.98
415.98
437.99
448.24
451.89
455.29
462.29
472.52
482.40
487.90
487.12
481.24
473.48
466.87
462.38
458.48
452.30
441.36
424.89
403.89
380.14
354.96
328.42
299.36
266.14
227.46
182.94
133.25
79.74
24.07
-32.15
-87.44
-140.50
-190.30
-235.97
-277.03
-313.52
-345.84
-374.88
-402.09
-429.42
-459.18
-493.25
-531.54
-570.66
-604.17
-624.82
-628.12
-614.78
-590.81
-564.73
-543.43
-529.12
-519.10
-508.12
-491.84
-468.92
-440.93
-410.49
-379.58
-348.95
-318.83
-289.80
-262.80
-238.31
-215.27
-190.98
-162.28
-127.41
-87.08
-44.65
-4.91
27.92
52.01
68.47
80.64
92.44
106.71
124.08
142.97
160.56
174.03
181.58
182.71
178.10
169.01
156.87
142.90
128.03
112.93
98.25
84.74
73.19
64.26
58.05
53.94
50.78
47.25
42.61
37.14
32.10
29.09
29.18
32.24
36.99
41.64
44.77
46.04
46.20
46.52
47.86
50.12
52.27
53.07
51.85
49.03
45.99
44.22
44.55
46.67
49.35
51.06
50.85
48.54
44.69
40.17
35.72
31.80
28.58
26.12
24.45
23.49
23.02
22.58
21.75
20.16
17.81
15.05
12.35
10.14
8.55
7.38
6.15
4.34
1.56
-2.22
-6.65
-11.00
-14.37
-15.87
-14.92
-11.36
-5.53
1.83
9.82
17.53
24.14
29.05
31.84
32.44
31.20
28.89
26.49
24.89
24.44
24.92
25.65
25.80
24.86
22.76
19.92
17.01
14.66
13.26
12.85
13.07
13.39
13.20
12.09
10.02
7.32
4.60
2.44
1.19
0.82
0.94
1.06
0.66
-0.59
-2.87
-6.18
-10.27
-14.73
-18.93
-22.12
-23.66
-23.17
-20.76
-16.94
-12.45
-7.99
-3.99
-0.56
2.40
5.09
7.56
9.79
11.67
13.07
13.87
13.99
13.39
12.19
10.67
9.31
8.59
8.81
9.98
11.75
13.65
15.26
16.41
17.12
17.50
17.63
17.52
17.13
16.47
15.65
14.78
13.78
12.46
10.52
7.69
3.91
-0.77
-6.13
-11.98
-18.12
-24.33
-30.26
-35.37
-39.03
-40.62
-39.79
-36.58
-31.44
-25.22
-18.86
-13.16
-8.59
-5.12
-2.32
0.39
3.52
7.17
11.06
14.61
17.23
18.59
18.80
18.36
17.92
18.04
18.89
20.24
21.59
22.44
22.58
22.08
21.29
20.47
19.66
18.66
17.23
15.31
13.10
10.93
9.09
7.65
6.41
5.11
3.53
1.59
-0.69
-3.28
-6.25
-9.65
-13.47
-17.52
-21.46
-24.90
-27.48
-28.91
-28.99
-27.47
-24.19
-19.09
-12.48
-5.03
2.31
8.60
13.30
16.35
18.25
19.62
20.90
22.13
23.00
23.16
22.52
21.39
20.27
19.60
19.52
19.79
20.01
19.82
19.07
17.84
16.37
14.80
13.14
11.24
8.92
6.14
3.02
-0.08
-2.78
-4.77
-5.99
-6.71
-7.39
-8.46
-10.18
-12.55
-15.41
-18.65
-22.16
-25.81
-29.32
-32.16
-33.63
-33.14
-30.48
-25.91
-20.04
-13.60
-7.25
-1.47
3.45
7.35
10.23
12.24
13.64
14.72
15.58
16.16
16.26
15.84
15.09
14.43
14.34
14.95
15.99
16.85
16.94
16.06
14.48
12.84
11.71
11.20
10.87
9.89
7.56
3.64
-1.45
-6.80
-11.49
-15.00
-17.46
-19.54
-22.13
-25.87
-30.90
-36.87
-43.14
-49.10
-54.41
-59.07
-63.23
-67.06
-70.49
-73.20
-74.71
-74.55
-72.45
-68.49
-63.13
-57.12
-51.43
-46.98
-44.47
-44.33
-46.50
-50.40
-54.67
-57.02
-54.63
-45.30
-28.74
-7.30
14.56
32.15
42.83
47.32
49.01
51.69
57.15
64.05
68.86
68.20
61.13
50.03
39.67
35.02
39.09
51.76
70.03
89.21
104.68
113.49
115.14
111.28
104.62
97.28
89.97
81.85
71.38
57.30
39.34
18.03
-5.79
-31.15
-56.78
-80.98
-101.64
-116.92
-126.10
-130.13
-131.31
-132.36
-135.32
-140.80
-148.18
-156.08
-163.03
-167.78
-169.38
-167.14
-160.59
-149.66
-134.83
-117.09
-97.81
-78.38
-60.01
-43.45
-29.12
-17.00
-6.90
1.50
8.40
13.89
17.91
20.48
21.88
22.80
24.25
27.51
33.65
43.18
55.70
69.86
83.83
95.94
105.36
112.34
117.94
123.42
129.61
136.54
143.67
150.22
155.66
159.86
163.01
165.36
166.98
167.70
167.16
164.89
160.57
154.20
146.30
137.76
129.52
122.13
115.62
109.67
103.97
98.63
94.18
91.21
89.84
89.48
89.04
87.53
84.68
81.04
77.68
75.59
75.19
76.15
77.67
78.94
79.45
79.22
78.58
78.03
77.94
78.52
79.83
81.82
84.37
87.24
90.18
93.04
96.14
100.37
107.11
117.58
132.07
149.25
166.12
178.62
182.86
176.30
158.46
131.02
97.16
60.52
24.28
-9.56
-40.22
-68.01
-93.89
-118.95
-143.86
-168.61
-192.31
-213.41
-230.34
-242.24
-249.49
-253.65
-256.58
-259.39
-261.85
-262.68
-260.56
-255.26
-247.78
-239.78
-232.30
-225.03
-216.54
-205.34
-190.97
-174.51
-158.11
-143.65
-131.75
-121.57
-111.47
-99.93
-86.24
-70.62
-53.97
-37.64
-22.97
-11.12
-2.83
1.84
3.57
3.62
3.40
4.07
6.00
8.71
11.07
11.77
9.95
5.54
-0.67
-7.29
-12.90
-16.52
-17.80
-17.01
-14.64
-11.14
-6.83
-1.95
3.16
8.10
12.42
15.85
18.32
19.84
20.45
20.00
18.27
15.22
11.08
6.44
2.10
-1.29
-3.28
-3.82
-3.21
-2.06
-1.18
-1.41
-3.39
-7.37
-13.05
-19.60
-25.78
-30.33
-32.23
-31.10
-27.24
-21.50
-15.00
-8.72
-3.27
1.11
4.33
6.12
5.99
3.32
-2.15
-10.00
-19.11
-28.00
-35.49
-41.20
-45.63
-49.92
-55.28
-62.43
-71.35
-81.34
-91.13
-99.19
-104.14
-105.05
-101.82
-95.19
-86.54
-77.35
-68.57
-60.27
-51.85
-42.50
-31.67
-19.34
-5.85
8.45
23.56
39.78
57.64
77.58
99.54
122.78
145.77
166.37
182.35
192.06
195.07
192.39
186.01
178.06
169.90
161.59
152.33
141.27
128.37
114.64
101.71
90.90
82.50
75.68
69.01
61.39
52.62
43.57
35.60
29.89
26.84
25.92
25.97
25.61
23.70
19.60
13.26
5.17
-3.77
-12.47
-19.92
-25.49
-29.15
-31.47
-33.42
-35.94
-39.50
-43.79
-47.84
-50.36
-50.25
-46.99
-40.70
-31.96
-21.64
-10.62
0.28
10.22
18.36
23.91
26.39
25.83
22.93
18.85
14.92
12.11
10.79
10.65
10.90
10.70
9.57
7.70
5.78
4.64
4.84
6.24
8.14
9.58
9.83
8.68
6.51
3.91
1.39
-0.94
-3.27
-5.91
-8.92
-12.16
-15.37
-18.42
-21.42
-24.49
-27.53
-30.00
-31.11
-30.10
-26.64
-21.04
-14.07
-6.62
0.54
6.93
12.25
16.31
19.01
20.26
20.21
19.16
17.54
15.77
14.23
13.15
12.69
12.84
13.45
14.22
14.83
15.01
14.80
14.37
13.98
13.72
13.43
12.74
11.28
8.93
5.87
2.55
-0.62
-3.46
-6.13
-8.96
-12.24
-16.00
-19.88
-23.35
-25.88
-27.16
-27.09
-25.74
-23.19
-19.50
-14.81
-9.42
-3.87
1.16
5.07
7.52
8.58
8.58
7.97
7.10
6.15
5.15
4.12
3.09
2.06
0.90
-0.70
-3.07
-6.41
-10.48
-14.63
-17.94
-19.61
-19.41
-17.80
-15.72
-14.23
-14.08
-15.36
-17.67
-20.34
-22.73
-24.44
-25.37
-25.58
-25.24
-24.58
-23.93
-23.66
-24.14
-25.52
-27.54
-29.53
-30.61
-29.99
-27.35
-22.96
-17.52
-11.82
-6.40
-1.37
3.48
8.41
13.34
17.89
21.47
23.63
24.31
23.89
22.98
22.23
21.97
22.29
23.05
23.97
24.87
25.64
26.30
26.83
27.19
27.21
26.57
25.05
22.65
19.71
16.83
14.64
13.45
13.09
12.99
12.47
11.14
9.02
6.45
3.87
1.51
-0.70
-2.93
-5.28
-7.72
-10.11
-12.36
-14.51
-16.63
-18.69
-20.39
-21.24
-20.70
-18.49
-14.72
-9.89
-4.72
0.13
4.26
7.56
10.14
12.09
13.47
14.25
14.40
14.04
13.42
12.89
12.69
12.90
13.34
13.66
13.59
13.05
12.27
11.62
11.37
11.57
11.97
12.15
11.80
10.83
9.40
7.76
6.06
4.32
2.45
0.46
-1.55
-3.40
-4.96
-6.29
-7.60
-9.24
-11.35
-13.89
-16.49
-18.65
-19.80
-19.56
-17.84
-14.84
-10.99
-6.77
-2.53
1.56
5.56
9.48
13.25
16.61
19.19
20.75
21.29
21.05
20.34
19.46
18.50
17.40
16.15
14.80
13.51
12.47
11.75
11.26
10.84
10.29
9.53
8.55
7.40
6.08
4.56
2.86
1.03
-0.83
-2.67
-4.51
-6.39
-8.38
-10.38
-12.24
-13.76
-14.81
-15.47
-15.96
-16.60
-17.67
-19.32
-21.48
-23.83
-25.88
-27.09
-27.02
-25.50
-22.61
-18.56
-13.65
-8.16
-2.36
3.41
8.79
13.39
16.94
19.36
20.71
21.16
20.94
20.27
19.37
18.50
17.81
17.28
16.75
15.94
14.70
13.07
11.29
9.66
8.35
7.27
6.20
4.92
3.38
1.67
-0.03
-1.61
-3.12
-4.67
-6.30
-8.01
-9.74
-11.47
-13.24
-15.11
-17.04
-18.81
-20.13
-20.76
-20.67
-20.17
-19.65
-19.50
-19.87
-20.67
-21.62
-22.44
-22.86
-22.61
-21.45
-19.20
-15.79
-11.37
-6.27
-0.91
4.27
8.92
12.75
15.51
16.98
17.03
15.79
13.63
11.15
9.00
7.66
7.31
7.82
8.87
10.07
11.12
11.87
12.33
12.63
12.89
13.16
13.37
13.33
12.88
12.01
10.87
9.75
8.87
8.29
7.85
7.27
6.27
4.76
2.77
0.51
-1.81
-3.95
-5.80
-7.28
-8.42
-9.29
-9.99
-10.63
-11.39
-12.49
-14.17
-16.51
-19.26
-21.84
-23.41
-23.28
-21.12
-17.26
-12.40
-7.39
-2.79
1.30
5.07
8.73
12.24
15.21
17.09
17.55
16.62
14.80
12.82
11.31
10.52
10.31
10.28
10.07
9.55
8.86
8.19
7.65
7.22
6.74
6.18
5.59
5.12
4.82
4.52
3.81
2.31
-0.09
-3.08
-6.01
-8.28
-9.57
-10.06
-10.27
-10.76
-11.85
-13.42
-15.04
-16.10
-16.18
-15.25
-13.63
-11.90
-10.62
-10.12
-10.42
-11.27
-12.29
-13.21
-14.01
-14.84
-15.93
-17.37
-19.01
-20.56
-21.65
-22.04
-21.64
-20.51
-18.71
-16.30
-13.24
-9.53
-5.25
-0.67
3.82
7.80
10.98
13.24
14.67
15.53
16.06
16.42
16.62
16.55
16.02
14.90
13.17
11.03
8.82
6.92
5.64
5.07
5.05
5.25
5.31
4.96
4.07
2.69
0.94
-0.99
-2.85
-4.43
-5.46
-5.85
-5.66
-5.18
-4.83
-4.98
-5.78
-7.15
-8.76
-10.22
-11.21
-11.63
-11.56
-11.25
-11.01
-11.09
-11.61
-12.50
-13.51
-14.28
-14.50
-13.96
-12.56
-10.35
-7.38
-3.79
0.28
4.59
8.86
12.81
16.21
18.93
20.98
22.41
23.26
23.61
23.57
23.33
23.10
23.07
23.32
23.86
24.64
25.68
27.08
28.97
31.43
34.34
37.43
40.31
42.67
44.36
45.41
46.05
46.57
47.29
48.40
49.98
51.99
54.32
56.83
59.22
60.87
60.91
58.53
53.51
46.73
40.14
36.23
37.06
43.42
54.51
68.37
82.83
96.25
107.77
117.03
123.53
126.44
124.68
117.50
104.92
87.94
68.23
47.62
27.66
9.20
-7.47
-22.52
-36.30
-49.04
-60.80
-71.51
-81.12
-89.84
-98.13
-106.56
-115.52
-124.92
-134.16
-142.36
-148.76
-153.03
-155.38
-156.35
-156.39
-155.63
-153.80
-150.54
-145.70
-139.60
-132.92
-126.41
-120.64
-115.75
-111.52
-107.56
-103.49
-99.10
-94.27
-88.89
-82.73
-75.49
-66.92
-57.10
-46.52
-36.06
-26.78
-19.48
-14.42
-11.27
-9.19
-7.33
-5.12
-2.46
0.47
3.45
6.35
9.17
11.90
14.37
16.39
17.84
18.92
20.02
21.50
23.38
25.33
26.79
27.40
27.21
26.66
26.19
25.97
25.75
25.04
23.43
20.91
17.86
14.80
12.08
9.59
6.97
3.85
0.20
-3.49
-6.38
-7.76
-7.28
-5.22
-2.24
0.95
3.97
6.83
9.71
12.76
15.70
18.06
19.29
19.17
17.98
16.35
15.05
14.64
15.25
16.57
18.06
19.20
19.71
19.72
19.62
19.87
20.76
22.18
23.71
24.81
25.10
24.53
23.43
22.23
21.29
20.70
20.32
19.85
19.08
17.96
16.52
14.79
12.67
10.06
6.97
3.69
0.84
-0.94
-1.14
0.34
3.09
6.48
9.78
12.43
14.14
14.80
14.48
13.39
11.92
10.57
9.84
10.01
11.03
12.49
13.85
14.74
15.03
15.01
15.05
15.46
16.25
17.14
17.70
17.60
16.71
15.10
12.99
10.56
7.98
5.32
2.60
-0.25
-3.34
-6.76
-10.51
-14.39
-18.09
-21.38
-24.31
-27.28
-30.87
-35.48
-41.15
-47.43
-53.63
-59.09
-63.37
-66.23
-67.65
-67.72
-66.72
-65.18
-63.70
-62.87
-62.98
-64.01
-65.70
-67.80
-70.10
-72.39
-74.23
-74.91
-73.61
-69.81
-63.54
-55.51
-46.83
-38.51
-31.07
-24.50
-18.33
-12.06
-5.28
2.30
10.81
20.32
30.72
41.67
52.52
62.57
71.16
77.80
82.18
84.05
83.18
79.51
73.40
65.80
58.15
51.92
48.03
46.37
45.81
44.61
41.21
34.89
26.18
16.66
8.38
3.05
1.35
2.78
5.95
9.33
11.94
13.52
14.48
15.27
15.98
16.16
15.22
12.81
9.25
5.40
2.27
0.59
0.38
1.12
2.07
2.65
2.73
2.60
2.68
3.27
4.38
5.69
6.78
7.31
7.08
6.14
4.72
3.04
1.30
-0.42
-2.14
-3.85
-5.47
-6.88
-8.08
-9.20
-10.59
-12.63
-15.43
-18.77
-22.03
-24.49
-25.61
-25.19
-23.32
-20.19
-15.95
-10.67
-4.58
1.87
8.01
13.18
17.00
19.52
21.06
22.06
22.85
23.53
24.06
24.37
24.50
24.54
24.65
24.91
25.32
25.84
26.36
26.87
27.32
27.67
27.76
27.33
26.14
24.13
21.54
18.85
16.66
15.33
14.86
14.91
14.99
14.71
13.96
12.92
11.89
11.18
11.02
11.52
12.69
14.57
17.24
20.85
25.48
30.96
36.82
42.40
47.08
50.59
53.02
54.58
55.27
54.64
51.97
46.67
38.74
28.78
17.73
6.35
-5.05
-16.38
-27.37
-37.27
-44.96
-49.47
-50.53
-48.78
-45.53
-42.19
-39.76
-38.56
-38.32
-38.45
-38.32
-37.52
-35.98
-33.92
-31.79
-30.07
-29.06
-28.76
-28.86
-28.90
-28.50
-27.47
-25.94
-24.26
-22.89
-22.27
-22.57
-23.71
-25.33
-26.86
-27.71
-27.37
-25.56
-22.27
-17.68
-12.21
-6.40
-0.93
3.59
6.78
8.57
9.28
9.38
9.26
9.03
8.43
7.09
4.74
1.50
-2.08
-5.25
-7.33
-7.95
-7.19
-5.55
-3.65
-1.94
-0.63
0.44
1.52
2.78
4.08
5.08
5.46
5.15
4.37
3.54
2.88
2.33
1.53
0.09
-2.06
-4.69
-7.38
-9.82
-12.00
-14.14
-16.37
-18.43
-19.64
-19.13
-16.22
-10.83
-3.52
4.72
12.75
19.70
25.05
28.73
30.92
31.96
32.19
31.75
30.71
28.97
26.52
23.52
20.28
17.26
14.85
13.20
12.25
11.77
11.56
11.46
11.42
11.40
11.29
10.93
10.11
8.66
6.51
3.71
0.44
-3.00
-6.25
-8.98
-11.04
-12.60
-14.03
-15.75
-18.02
-20.75
-23.65
-26.35
-28.61
-30.39
-31.69
-32.47
-32.47
-31.34
-28.70
-24.36
-18.43
-11.28
-3.50
4.22
11.22
16.95
21.07
23.44
24.16
23.47
21.69
19.22
16.43
13.72
11.38
9.57
8.32
7.51
7.03
6.82
6.87
7.17
7.63
8.09
8.35
8.26
7.78
6.96
5.93
4.79
3.59
2.32
0.96
-0.51
-2.05
-3.60
-5.06
-6.35
-7.50
-8.61
-9.88
-11.47
-13.36
-15.33
-16.95
-17.73
-17.26
-15.34
-11.92
-7.19
-1.45
4.88
11.32
17.35
22.53
26.50
29.05
30.11
29.66
27.82
24.78
20.98
16.99
13.43
10.83
9.37
8.96
9.12
9.40
9.41
9.05
8.42
7.64
6.75
5.58
3.93
1.63
-1.29
-4.54
-7.72
-10.46
-12.56
-14.13
-15.45
-16.81
-18.42
-20.23
-22.05
-23.68
-25.08
-26.38
-27.76
-29.30
-30.79
-31.72
-31.44
-29.39
-25.40
-19.62
-12.54
-4.80
2.96
10.16
16.32
21.11
24.37
26.12
26.51
25.76
24.08
21.68
18.81
15.79
13.02
10.87
9.56
9.10
9.24
9.55
9.61
9.10
7.92
6.22
4.25
2.35
0.70
-0.63
-1.73
-2.79
-3.95
-5.30
-6.84
-8.60
-10.57
-12.68
-14.79
-16.68
-18.17
-19.24
-20.09
-21.13
-22.71
-24.92
-27.46
-29.66
-30.76
-30.15
-27.59
-23.23
-17.44
-10.75
-3.66
3.31
9.71
15.24
19.69
23.01
25.16
26.09
25.76
24.16
21.44
18.00
14.39
11.14
8.62
6.95
6.01
5.58
5.49
5.64
5.95
6.25
6.31
5.88
4.76
2.92
0.56
-1.95
-4.17
-5.74
-6.52
-6.65
-6.51
-6.53
-7.05
-8.17
-9.77
-11.60
-13.37
-14.79
-15.67
-15.94
-15.76
-15.48
-15.57
-16.42
-18.08
-20.05
-21.48
-21.46
-19.45
-15.42
-9.91
-3.69
2.52
8.23
13.22
17.38
20.63
22.89
24.08
24.13
23.11
21.17
18.57
15.76
13.22
11.34
10.33
10.19
10.65
11.42
12.24
12.93
13.38
13.43
12.87
11.57
9.53
6.96
4.24
1.74
-0.31
-1.87
-3.10
-4.25
-5.55
-7.17
-9.23
-11.73
-14.63
-17.83
-21.20
-24.59
-27.73
-30.27
-31.76
-31.71
-29.75
-25.81
-20.20
-13.45
-6.26
0.77
7.20
12.78
17.36
20.83
23.06
23.99
23.72
22.40
20.33
17.82
15.16
12.59
10.31
8.48
7.23
6.62
6.58
6.90
7.29
7.39
6.99
6.06
4.75
3.30
1.84
0.36
-1.23
-3.04
-5.09
-7.34
-9.72
-12.21
-14.76
-17.28
-19.59
-21.51
-22.93
-23.96
-24.91
-26.08
-27.63
-29.35
-30.71
-31.03
-29.70
-26.39
-21.16
-14.35
-6.57
1.50
9.22
16.07
21.73
25.99
28.75
30.00
29.86
28.57
26.53
24.16
21.84
19.78
18.01
16.42
14.81
13.10
11.33
9.70
8.45
7.71
7.38
7.14
6.55
5.22
3.00
0.01
-3.45
-6.98
-10.25
-13.08
-15.39
-17.23
-18.77
-20.22
-21.74
-23.41
-25.03
-26.26
-26.76
-26.44
-25.51
-24.47
-23.88
-24.05
-24.89
-25.86
-26.17
-25.03
-21.88
-16.63
-9.65
-1.70
6.38
13.87
20.30
25.43
29.11
31.26
31.76
30.63
28.18
24.96
21.61
18.70
16.54
15.20
14.57
14.48
14.79
15.36
16.03
16.55
16.70
16.34
15.47
14.21
12.69
10.99
9.10
6.96
4.60
2.19
-0.04
-1.90
-3.37
-4.65
-6.06
-7.84
-10.13
-12.85
-15.86
-19.02
-22.11
-24.84
-26.68
-26.98
-25.16
-21.01
-14.88
-7.61
-0.29
6.10
10.96
14.08
15.60
15.82
15.06
13.63
11.86
10.00
8.25
6.64
5.03
3.15
0.79
-1.99
-4.76
-6.83
-7.37
-5.76
-1.82
4.18
11.68
20.04
28.86
38.01
47.48
57.03
66.00
73.26
77.59
78.06
74.47
67.33
57.62
46.33
34.25
21.85
9.52
-2.25
-12.81
-21.48
-27.79
-31.69
-33.50
-33.78
-33.02
-31.54
-29.44
-26.75
-23.53
-20.04
-16.66
-13.83
-11.95
-11.24
-11.68
-13.03
-14.88
-16.72
-18.05
-18.50
-17.92
-16.49
-14.62
-12.78
-11.32
-10.33
-9.66
-9.09
-8.48
-7.86
-7.33
-6.95
-6.69
-6.49
-6.36
-6.44
-6.95
-8.03
-9.61
-11.48
-13.33
-14.96
-16.32
-17.47
-18.46
-19.35
-20.18
-21.04
-22.07
-23.34
-24.77
-26.01
-26.51
-25.69
-23.21
-19.12
-13.88
-8.18
-2.66
2.25
6.42
9.87
12.64
14.62
15.62
15.52
14.41
12.63
10.64
8.77
7.18
5.79
4.51
3.44
2.82
2.93
3.85
5.26
6.56
7.18
6.88
5.86
4.68
3.93
3.85
4.24
4.60
4.44
3.62
2.41
1.40
1.04
1.44
2.26
2.93
3.01
2.41
1.47
0.74
0.76
1.79
3.82
6.69
10.35
14.86
20.44
27.26
35.19
43.86
52.65
60.92
68.29
74.62
79.91
84.02
86.45
86.53
83.70
77.85
69.54
59.76
49.51
39.35
29.25
18.80
7.56
-4.64
-17.56
-30.72
-43.63
-55.98
-67.64
-78.51
-88.46
-97.18
-104.20
-108.92
-110.78
-109.46
-105.16
-98.59
-90.85
-83.10
-76.22
-70.59
-66.21
-62.93
-60.75
-59.89
-60.64
-63.08
-66.87
-71.27
-75.43
-78.63
-80.50
-80.88
-79.70
-76.79
-72.00
-65.41
-57.60
-49.63
-42.71
-37.59
-34.25
-31.80
-28.94
-24.63
-18.55
-11.20
-3.55
3.55
9.76
15.45
21.39
28.32
36.48
45.50
54.56
62.74
69.42
74.36
77.56
79.08
78.85
76.84
73.19
68.50
63.70
59.63
56.58
54.14
51.44
47.69
42.74
37.17
31.89
27.57
24.24
21.31
17.97
13.74
8.60
3.12
-1.92
-5.78
-7.90
-8.00
-6.12
-2.60
1.86
6.37
10.09
12.54
13.70
13.90
13.59
13.05
12.30
11.27
9.89
8.23
6.40
4.54
2.64
0.65
-1.39
-3.23
-4.46
-4.67
-3.75
-1.96
0.20
2.17
3.61
4.34
4.28
3.28
1.18
-2.05
-6.09
-10.23
-13.67
-15.87
-16.96
-17.60
-18.70
-20.89
-24.13
-27.72
-30.51
-31.36
-29.53
-24.78
-17.45
-8.25
1.87
12.04
21.66
30.51
38.69
46.49
54.00
61.08
67.19
71.62
73.87
73.78
71.66
68.12
63.82
59.19
54.40
49.39
44.07
38.49
32.90
27.69
23.20
19.50
16.35
13.14
9.14
3.76
-3.26
-11.86
-21.70
-32.27
-42.93
-52.84
-61.10
-66.93
-70.06
-70.95
-70.80
-71.05
-72.78
-76.06
-79.97
-83.00
-83.77
-81.63
-76.82
-70.30
-63.21
-56.43
-50.33
-44.69
-38.94
-32.43
-24.61
-15.16
-4.01
8.56
21.82
34.57
45.39
53.12
57.35
58.67
58.31
57.58
57.20
57.14
56.93
56.27
55.33
54.60
54.40
54.37
53.45
50.39
44.37
35.37
24.10
11.55
-1.43
-14.21
-26.33
-37.26
-46.33
-52.85
-56.21
-56.17
-52.97
-47.45
-40.93
-34.84
-30.24
-27.34
-25.42
-23.14
-19.09
-12.53
-3.64
6.58
16.77
25.63
32.30
36.34
37.69
36.53
33.30
28.57
23.00
17.20
11.58
6.46
2.07
-1.33
-3.57
-4.69
-5.10
-5.43
-6.22
-7.64
-9.34
-10.73
-11.38
-11.30
-10.93
-10.86
-11.47
-12.73
-14.32
-15.87
-17.19
-18.24
-19.07
-19.69
-20.08
-20.18
-19.97
-19.49
-18.77
-17.90
-16.90
-15.78
-14.42
-12.54
-9.67
-5.31
0.83
8.66
17.71
27.22
36.31
44.19
50.12
53.56
54.23
52.20
47.95
42.27
36.01
29.91
24.38
19.63
15.67
12.55
10.26
8.72
7.68
6.79
5.69
4.21
2.42
0.55
-1.15
-2.51
-3.52
-4.23
-4.67
-4.80
-4.50
-3.70
-2.46
-1.04
0.10
0.40
-0.63
-3.21
-7.12
-11.75
-16.21
-19.65
-21.52
-21.66
-20.29
-17.71
-14.25
-10.13
-5.62
-1.03
3.23
6.81
9.47
11.18
12.09
12.44
12.51
12.54
12.71
13.14
13.81
14.62
15.31
15.66
15.45
14.67
13.46
12.02
10.49
8.90
7.11
4.87
2.10
-1.11
-4.42
-7.40
-9.75
-11.42
-12.62
-13.59
-14.55
-15.53
-16.53
-17.61
-18.93
-20.70
-23.05
-25.82
-28.56
-30.70
-31.71
-31.35
-29.62
-26.72
-22.88
-18.32
-13.33
-8.31
-3.76
-0.07
2.64
4.68
6.60
8.92
11.78
14.84
17.46
19.09
19.56
19.10
18.21
17.29
16.44
15.44
14.01
11.98
9.47
6.83
4.50
2.77
1.67
0.93
0.21
-0.79
-2.11
-3.51
-4.58
-4.98
-4.70
-4.13
-3.92
-4.62
-6.41
-8.96
-11.69
-14.04
-15.79
-16.98
-17.80
-18.27
-18.17
-17.18
-15.14
-12.20
-8.77
-5.29
-1.99
1.19
4.36
7.53
10.47
12.78
14.17
14.55
14.12
13.15
11.92
10.60
9.34
8.33
7.80
7.93
8.70
9.80
10.70
10.94
10.33
9.01
7.35
5.74
4.36
3.19
2.01
0.65
-0.98
-2.76
-4.51
-6.04
-7.26
-8.20
-8.98
-9.73
-10.60
-11.75
-13.37
-15.65
-18.57
-21.82
-24.70
-26.36
-26.03
-23.42
-18.82
-13.03
-7.02
-1.50
3.28
7.39
11.01
14.12
16.45
17.67
17.67
16.66
15.14
13.68
12.63
12.05
11.75
11.47
11.08
10.65
10.37
10.43
10.92
11.76
12.74
13.59
14.02
13.80
12.77
10.88
8.17
4.84
1.21
-2.25
-5.14
-7.22
-8.57
-9.54
-10.58
-12.03
-13.91
-16.01
-17.97
-19.58
-20.95
-22.39
-24.18
-26.24
-28.06
-28.86
-27.93
-24.97
-20.15
-14.07
-7.35
-0.54
6.02
12.06
17.32
21.42
24.02
24.94
24.32
22.57
20.22
17.75
15.49
13.64
12.29
11.54
11.42
11.89
12.82
13.91
14.82
15.19
14.77
13.52
11.62
9.47
7.54
6.21
5.57
5.39
5.16
4.39
2.84
0.62
-1.89
-4.26
-6.23
-7.81
-9.20
-10.59
-12.06
-13.63
-15.41
-17.66
-20.70
-24.70
-29.47
-34.40
-38.60
-41.27
-41.92
-40.51
-37.25
-32.41
-26.36
-19.50
-12.29
-5.28
1.08
6.61
11.41
15.66
19.37
22.21
23.70
23.46
21.54
18.61
15.64
13.57
12.92
13.61
15.17
16.89
18.21
18.82
18.68
18.05
17.32
16.81
16.68
16.81
16.83
16.32
15.00
12.91
10.28
7.45
4.60
1.71
-1.27
-4.36
-7.39
-10.10
-12.38
-14.42
-16.62
-19.39
-22.76
-26.24
-28.97
-30.04
-28.91
-25.53
-20.34
-13.95
-6.90
0.50
8.01
15.37
22.21
28.00
32.24
34.63
35.17
34.11
31.98
29.40
26.93
24.97
23.62
22.75
22.09
21.46
20.87
20.54
20.74
21.55
22.81
24.03
24.70
24.40
22.95
20.41
17.04
13.25
9.57
6.71
5.23
5.29
6.33
6.97
5.44
0.24
-9.18
-22.24
-37.40
-52.72
-66.43
-77.34
-84.87
-89.13
-90.61
-90.03
-88.02
-84.76
-79.85
-72.40
-61.58
-47.37
-30.96
-14.62
-0.80
8.95
14.56
17.30
18.94
20.73
22.87
24.69
25.38
24.72
23.42
22.79
24.00
27.42
32.39
37.61
41.73
44.04
44.72
44.61
44.72
45.58
46.98
48.07
47.73
45.25
40.63
34.58
28.14
22.21
17.18
12.88
8.82
4.50
-0.33
-5.66
-11.32
-17.12
-22.94
-28.75
-34.56
-40.35
-46.07
-51.52
-56.34
-59.98
-61.75
-61.04
-57.52
-51.33
-43.08
-33.64
-23.89
-14.55
-6.05
1.37
7.53
12.24
15.34
16.81
16.87
16.02
14.87
13.96
13.54
13.55
13.77
13.95
13.94
13.82
13.75
13.90
14.38
15.14
16.00
16.69
16.90
16.45
15.31
13.66
11.84
10.20
8.99
8.21
7.59
6.72
5.19
2.70
-0.77
-4.94
-9.23
-12.84
-14.99
-15.07
-12.84
-8.56
-2.78
3.69
10.13
15.97
20.95
25.00
28.16
30.47
31.91
32.41
32.02
30.89
29.40
27.96
26.91
26.40
26.35
26.51
26.59
26.40
25.93
25.33
24.89
24.90
25.47
26.47
27.55
28.28
28.46
28.24
28.13
28.70
30.26
32.64
35.23
37.33
38.47
38.64
38.21
37.60
37.06
36.68
36.64
37.40
39.69
44.16
50.96
59.45
68.50
76.97
84.20
90.17
95.12
98.96
100.77
98.92
91.62
77.83
57.92
33.65
7.57
-17.93
-41.37
-62.29
-80.77
-96.65
-109.16
-117.00
-119.15
-115.65
-107.88
-98.16
-88.70
-80.70
-74.05
-67.77
-60.88
-53.11
-45.06
-37.87
-32.52
-29.37
-28.12
-28.17
-28.91
-29.98
-31.17
-32.16
-32.40
-31.13
-27.65
-21.59
-13.12
-2.82
8.63
20.62
32.68
44.17
53.91
60.17
60.98
54.88
41.66
22.74
0.75
-21.30
-41.12
-57.80
-71.76
-84.06
-95.58
-106.43
-116.03
-123.64
-128.98
-132.46
-134.88
-136.78
-137.88
-137.13
-133.23
-125.57
-114.58
-101.65
-88.40
-75.82
-63.73
-50.93
-35.72
-16.62
7.18
35.65
67.87
102.00
135.13
163.44
182.90
190.30
184.62
167.66
143.82
118.95
98.46
85.82
81.59
83.59
87.87
90.14
87.16
77.52
61.82
42.15
21.23
1.46
-15.50
-28.85
-38.35
-44.01
-45.92
-44.28
-39.58
-32.66
-24.65
-16.68
-9.78
-4.68
-1.70
-0.78
-1.45
-2.92
-4.42
-5.42
-5.90
-6.27
-7.18
-9.23
-12.98
-18.89
-27.37
-38.65
-52.42
-67.52
-81.99
-93.46
-99.92
-100.40
-95.29
-86.13
-74.94
-63.63
-53.44
-44.91
-38.02
-32.49
-27.98
-24.24
-21.05
-18.18
-15.36
-12.35
-9.09
-5.72
-2.71
-0.63
-0.00
-1.13
-3.96
-8.05
-12.74
-17.29
-21.12
-24.11
-26.57
-29.14
-32.27
-35.81
-38.83
-40.02
-38.39
-34.01
-28.14
-22.71
-19.27
-18.22
-18.62
-18.86
-17.58
-14.36
-9.83
-5.06
-0.86
2.53
5.43
8.18
10.76
12.74
13.54
12.88
10.92
8.33
5.95
4.61
4.88
6.98
10.85
16.10
22.06
27.84
32.54
35.42
36.13
34.81
31.94
28.17
24.06
19.94
15.87
11.87
7.88
3.97
0.23
-3.19
-6.06
-8.11
-8.95
-8.18
-5.43
-0.45
6.76
16.00
26.86
38.71
50.67
61.66
70.55
76.34
78.53
77.27
73.38
68.11
62.69
57.93
54.00
50.44
46.59
41.99
36.77
31.71
27.97
26.60
28.12
32.23
37.73
42.70
44.87
42.13
33.30
19.03
2.16
-12.66
-20.29
-17.15
-2.71
19.86
44.75
65.58
77.57
78.86
70.54
55.56
37.34
18.59
1.02
-14.53
-27.57
-37.67
-44.35
-47.19
-46.19
-41.93
-35.64
-29.01
-23.75
-21.19
-22.06
-26.25
-32.97
-41.01
-49.11
-56.35
-62.20
-66.50
-69.21
-70.32
-69.79
-67.78
-64.82
-61.76
-59.44
-58.28
-58.06
-57.94
-56.79
-53.84
-48.97
-42.77
-36.35
-30.78
-26.78
-24.28
-22.51
-20.25
-16.43
-10.68
-3.57
3.62
9.45
12.93
13.93
13.23
12.26
12.72
16.17
23.55
34.97
49.62
65.90
82.00
96.58
109.06
119.77
129.30
138.06
145.85
152.01
155.82
156.93
155.33
151.20
144.46
134.75
121.68
105.34
86.66
67.47
50.11
36.61
28.06
24.32
24.20
26.07
28.31
29.71
29.51
27.41
23.48
18.32
13.16
9.82
10.35
16.51
29.11
47.64
70.31
94.45
117.04
135.04
145.74
147.17
138.93
123.13
104.44
88.96
81.83
84.80
95.11
106.46
112.16
108.16
94.90
76.45
57.77
41.78
27.78
12.08
-9.84
-40.84
-80.38
-124.24
-165.50
-196.67
-211.88
-208.77
-189.25
-158.98
-125.45
-95.91
-75.78
-67.88
-72.97
-90.58
-119.70
-159.17
-207.95
-265.23
-330.40
-402.41
-478.73
-554.51
-622.78
-676.28
-709.85
-722.42
-717.19
-700.11
-677.15
-652.24
-626.61
-599.76
-571.02
-540.50
-508.90
-476.61
-442.91
-406.04
-364.13
-316.38
-263.64
-208.07
-152.40
-98.65
-47.58
1.32
49.13
96.77
144.32
190.96
235.29
275.96
312.38
345.10
375.84
407.00
440.56
476.83
513.56
546.08
568.57
576.21
567.02
542.49
506.90
465.51
422.95
382.21
344.80
311.29
281.87
256.44
234.53
215.30
197.72
181.08
165.16
150.09
136.08
123.27
111.75
101.71
93.38
86.73
81.20
75.73
69.24
61.24
52.21
43.43
36.33
31.83
29.86
29.48
29.31
27.99
24.68
19.17
12.03
4.43
-2.12
-6.24
-7.21
-5.18
-1.05
4.08
9.41
14.70
20.10
25.64
30.89
34.98
37.03
36.70
34.42
31.18
28.04
25.51
23.49
21.49
19.14
16.45
13.83
11.85
10.89
10.93
11.54
11.99
11.62
10.03
7.27
3.84
0.37
-2.65
-5.16
-7.46
-10.01
-13.06
-16.44
-19.71
-22.50
-24.71
-26.56
-28.27
-29.75
-30.57
-30.23
-28.51
-25.74
-22.60
-19.85
-17.88
-16.68
-15.96
-15.47
-15.13
-15.00
-15.09
-15.29
-15.34
-15.00
-14.18
-12.97
-11.57
-10.11
-8.64
-7.11
-5.54
-4.10
-3.04
-2.68
-3.14
-4.33
-5.91
-7.50
-8.82
-9.75
-10.32
-10.70
-11.06
-11.57
-12.39
-13.56
-15.04
-16.70
-18.38
-19.96
-21.37
-22.52
-23.21
-23.08
-21.64
-18.58
-13.97
-8.40
-2.82
1.68
4.34
4.98
3.86
1.60
-1.15
-3.98
-6.75
-9.45
-12.15
-14.74
-16.99
-18.57
-19.19
-18.62
-16.81
-13.91
-10.32
-6.56
-3.28
-1.00
0.00
-0.19
-1.15
-2.34
-3.27
-3.79
-4.02
-4.36
-5.26
-7.02
-9.70
-13.06
-16.64
-19.87
-22.34
-23.92
-24.89
-25.78
-27.15
-29.37
-32.37
-35.61
-38.28
-39.59
-39.02
-36.49
-32.34
-27.16
-21.61
-16.18
-11.11
-6.39
-1.87
2.59
7.08
11.49
15.58
19.00
21.43
22.61
22.53
21.41
19.75
18.12
16.98
16.56
16.81
17.51
18.34
19.04
19.41
19.30
18.61
17.38
15.81
14.18
12.77
11.76
11.19
10.93
10.81
10.62
10.20
9.41
8.20
6.65
4.96
3.39
2.02
0.70
-0.97
-3.40
-6.66
-10.31
-13.56
-15.55
-15.82
-14.38
-11.66
-8.25
-4.61
-1.08
2.15
4.94
7.19
8.84
9.93
10.54
10.71
10.48
9.86
8.93
7.85
6.76
5.72
4.72
3.76
2.93
2.50
2.75
3.82
5.58
7.59
9.36
10.49
10.88
10.62
9.93
8.98
7.85
6.54
5.05
3.46
1.91
0.46
-0.84
-2.08
-3.42
-4.94
-6.57
-8.11
-9.28
-10.01
-10.49
-11.18
-12.55
-14.90
-18.17
-21.93
-25.59
-28.55
-30.37
-30.79
-29.67
-27.00
-22.92
-17.69
-11.78
-5.74
-0.17
4.48
7.94
10.17
11.33
11.61
11.24
10.42
9.32
8.20
7.44
7.41
8.33
10.08
12.24
14.23
15.62
16.39
16.85
17.47
18.47
19.74
20.83
21.24
20.70
19.28
17.30
15.11
12.94
10.87
8.94
7.23
5.79
4.58
3.39
1.91
-0.11
-2.62
-5.32
-7.78
-9.72
-11.15
-12.36
-13.71
-15.42
-17.53
-19.92
-22.48
-25.18
-27.90
-30.29
-31.69
-31.35
-28.76
-23.96
-17.62
-10.73
-4.26
1.20
5.49
8.74
11.05
12.42
12.78
12.12
10.64
8.75
6.92
5.52
4.75
4.58
4.78
5.12
5.38
5.51
5.60
5.85
6.38
7.20
8.10
8.81
9.11
8.99
8.54
7.91
7.16
6.21
5.00
3.56
2.06
0.69
-0.46
-1.52
-2.76
-4.40
-6.44
-8.70
-10.84
-12.66
-14.11
-15.37
-16.70
-18.29
-20.29
-22.76
-25.70
-28.92
-31.98
-34.20
-34.82
-33.24
-29.31
-23.36
-16.19
-8.70
-1.72
4.21
8.86
12.14
14.03
14.56
13.81
12.02
9.49
6.66
3.90
1.47
-0.46
-1.87
-2.80
-3.28
-3.33
-2.98
-2.25
-1.27
-0.21
0.69
1.25
1.32
0.96
0.36
-0.21
-0.51
-0.49
-0.30
-0.22
-0.50
-1.22
-2.22
-3.20
-3.93
-4.36
-4.67
-5.23
-6.39
-8.39
-11.18
-14.46
-17.67
-20.12
-21.07
-19.92
-16.33
-10.34
-2.51
6.23
14.74
21.90
26.93
29.55
30.02
28.96
27.12
24.99
22.83
20.66
18.46
16.33
14.53
13.29
12.73
12.70
12.90
13.11
13.25
13.43
13.79
14.26
14.54
14.19
12.91
10.69
7.87
4.94
2.28
-0.08
-2.43
-5.22
-8.65
-12.55
-16.33
-19.40
-21.48
-22.80
-24.08
-26.15
-29.48
-33.85
-38.37
-41.73
-42.65
-40.33
-34.64
-26.13
-15.74
-4.52
6.58
16.84
25.72
32.76
37.61
40.04
40.19
38.64
36.35
34.30
33.11
32.86
33.10
33.35
33.36
33.19
33.01
32.84
32.62
32.46
32.77
33.93
35.80
37.24
36.20
30.59
19.27
2.89
-16.43
-35.98
-53.70
-68.65
-80.72
-89.84
-95.37
-96.56
-93.26
-86.62
-78.76
-71.75
-66.39
-61.82
-56.18
-47.96
-37.20
-25.52
-15.12
-7.25
-1.27
5.01
13.79
25.78
39.47
51.79
59.74
61.94
59.22
54.02
48.93
45.32
42.65
38.92
31.83
20.09
4.18
-13.72
-30.55
-43.34
-50.28
-51.02
-46.42
-37.81
-26.21
-12.13
4.19
22.05
39.88
55.54
67.12
73.93
76.85
77.91
79.14
81.52
84.48
86.19
84.70
78.92
69.21
57.23
45.10
34.55
26.33
19.96
14.13
7.33
-1.47
-12.34
-24.46
-36.38
-46.57
-53.79
-57.25
-56.62
-51.96
-43.74
-32.91
-20.86
-9.28
0.29
6.88
10.23
10.80
9.41
6.84
3.69
0.36
-2.86
-5.57
-7.31
-7.74
-6.71
-4.49
-1.66
1.10
3.23
4.53
5.17
5.47
5.70
5.84
5.63
4.70
2.77
-0.10
-3.55
-7.09
-10.30
-13.02
-15.38
-17.61
-20.04
-22.87
-26.27
-30.33
-35.04
-40.09
-44.81
-48.23
-49.27
-47.14
-41.51
-32.72
-21.67
-9.54
2.45
13.26
22.22
28.99
33.49
35.81
36.12
34.66
31.75
27.93
23.90
20.38
17.96
16.77
16.54
16.77
16.91
16.67
16.07
15.30
14.64
14.20
13.86
13.34
12.25
10.27
7.28
3.44
-0.84
-5.01
-8.64
-11.53
-13.82
-15.90
-18.23
-21.17
-24.88
-29.34
-34.29
-39.21
-43.31
-45.65
-45.34
-41.77
-34.92
-25.41
-14.37
-3.14
7.11
15.63
22.13
26.67
29.35
30.20
29.20
26.50
22.59
18.32
14.70
12.53
12.07
13.01
14.66
16.33
17.60
18.35
18.65
18.59
18.17
17.36
16.20
14.78
13.18
11.41
9.30
6.72
3.61
0.11
-3.41
-6.63
-9.35
-11.66
-13.89
-16.51
-19.95
-24.37
-29.63
-35.12
-39.86
-42.73
-42.71
-39.30
-32.69
-23.76
-13.83
-4.23
4.08
10.65
15.52
18.91
20.98
21.70
20.92
18.63
15.13
11.13
7.49
4.99
3.99
4.29
5.30
6.35
6.98
7.10
6.97
6.92
7.19
7.72
8.21
8.24
7.45
5.71
3.10
-0.04
-3.28
-6.17
-8.44
-10.07
-11.30
-12.59
-14.44
-17.16
-20.73
-24.73
-28.43
-30.91
-31.45
-29.60
-25.36
-19.22
-11.91
-4.33
2.68
8.48
12.80
15.65
17.34
18.27
18.75
18.88
18.59
17.75
16.40
14.79
13.29
12.24
11.68
11.44
11.30
11.11
11.04
11.30
11.96
12.78
13.17
12.49
10.36
6.87
2.62
-1.62
-5.13
-7.61
-9.20
-10.31
-11.53
-13.36
-16.03
-19.58
-23.77
-28.10
-31.96
-34.64
-35.53
-34.20
-30.47
-24.50
-16.75
-8.01
0.73
8.40
14.17
17.70
19.22
19.45
19.20
19.06
19.12
19.06
18.44
17.04
15.05
12.99
11.40
10.63
10.62
11.04
11.46
11.56
11.23
10.47
9.30
7.74
5.74
3.31
0.61
-2.06
-4.38
-6.17
-7.50
-8.67
-10.12
-12.13
-14.71
-17.65
-20.65
-23.57
-26.49
-29.62
-33.00
-36.30
-38.75
-39.41
-37.49
-32.74
-25.57
-16.90
-7.83
0.68
7.98
13.73
17.86
20.37
21.35
20.97
19.49
17.28
14.80
12.50
10.69
9.48
8.78
8.40
8.12
7.80
7.41
7.05
6.78
6.62
6.48
6.17
5.50
4.32
2.59
0.37
-2.18
-4.87
-7.51
-9.91
-11.97
-13.64
-15.01
-16.24
-17.51
-19.01
-20.88
-23.20
-25.95
-29.03
-32.15
-34.85
-36.49
-36.44
-34.22
-29.75
-23.37
-15.82
-8.02
-0.76
5.43
10.36
14.03
16.49
17.74
17.73
16.51
14.34
11.75
9.44
8.01
7.81
8.77
10.49
12.42
14.08
15.19
15.71
15.76
15.40
14.68
13.57
12.05
10.19
8.12
6.02
3.99
2.04
0.09
-2.07
-4.63
-7.64
-10.99
-14.35
-17.39
-19.95
-22.14
-24.45
-27.37
-31.24
-35.86
-40.41
-43.71
-44.59
-42.44
-37.36
-30.20
-22.15
-14.36
-7.61
-2.21
1.94
5.15
7.71
9.80
11.47
12.68
13.38
13.61
13.47
13.17
13.00
13.25
14.21
16.04
18.81
22.42
26.63
31.06
35.22
38.64
40.92
41.85
41.44
39.89
37.51
34.56
31.21
27.53
23.48
19.08
14.41
9.60
4.80
0.05
-4.70
-9.58
-14.68
-20.01
-25.49
-30.91
-36.10
-40.84
-44.86
-47.74
-48.96
-47.94
-44.32
-38.18
-30.05
-20.90
-11.76
-3.57
3.13
8.10
11.31
12.81
12.74
11.33
9.03
6.47
4.41
3.47
3.97
5.86
8.76
12.18
15.74
19.32
23.10
27.29
31.92
36.67
40.91
43.91
45.14
44.49
42.30
39.18
35.76
32.51
29.65
27.22
25.20
23.53
22.18
21.06
19.95
18.49
16.21
12.73
7.96
2.37
-3.01
-6.80
-7.70
-5.06
0.90
9.14
18.30
27.19
35.14
41.95
47.59
51.82
54.10
53.81
50.56
44.31
35.41
24.31
11.55
-2.22
-16.14
-29.07
-39.97
-48.23
-54.07
-58.42
-62.43
-66.80
-71.42
-75.46
-77.97
-78.41
-76.89
-73.92
-69.97
-65.18
-59.44
-52.68
-45.22
-37.92
-32.02
-28.53
-27.72
-28.87
-30.56
-31.28
-30.26
-27.81
-25.05
-23.40
-23.65
-25.56
-28.00
-29.55
-29.29
-27.15
-23.79
-20.12
-16.83
-14.21
-12.22
-10.81
-10.04
-10.05
-10.98
-12.85
-15.41
-18.22
-20.72
-22.32
-22.62
-21.53
-19.34
-16.64
-14.13
-12.33
-11.43
-11.27
-11.52
-11.83
-12.05
-12.39
-13.31
-15.45
-19.24
-24.70
-31.33
-38.16
-43.98
-47.72
-48.76
-47.01
-42.94
-37.37
-31.24
-25.43
-20.50
-16.61
-13.36
-9.91
-5.29
1.31
10.15
20.72
31.91
42.33
50.85
56.91
60.62
62.41
62.69
61.66
59.35
55.96
52.12
48.71
46.34
44.81
43.08
39.89
34.64
28.08
22.18
19.10
20.04
24.47
30.41
35.54
38.35
38.77
37.83
36.78
36.19
35.63
34.07
30.60
25.02
17.87
10.11
2.62
-4.15
-10.29
-16.15
-21.92
-27.37
-31.76
-34.10
-33.41
-29.25
-21.89
-12.36
-2.12
7.43
15.34
21.30
25.49
28.19
29.37
28.74
25.87
20.72
13.88
6.54
0.17
-4.03
-5.56
-4.70
-2.39
0.16
1.93
2.54
2.37
2.45
3.99
7.76
13.63
20.58
26.96
31.26
32.61
30.99
27.13
22.09
16.78
11.77
7.17
2.70
-2.09
-7.56
-13.71
-19.99
-25.31
-28.36
-28.14
-24.38
-17.74
-9.58
-1.44
5.50
10.73
14.32
16.61
17.80
17.90
16.67
14.05
10.29
6.06
2.27
-0.36
-1.50
-1.38
-0.56
0.38
1.24
2.21
3.69
5.92
8.76
11.61
13.63
14.15
12.97
10.43
7.26
4.24
1.86
0.12
-1.35
-3.20
-5.95
-9.85
-14.71
-20.07
-25.28
-29.70
-32.82
-34.16
-33.31
-29.91
-23.83
-15.33
-5.21
5.29
14.77
22.13
26.85
29.12
29.56
28.87
27.50
25.67
23.46
21.09
18.87
17.20
16.28
16.01
16.07
16.11
15.96
15.70
15.51
15.43
15.26
14.54
12.87
10.10
6.52
2.75
-0.59
-3.14
-5.03
-6.78
-9.01
-12.16
-16.19
-20.59
-24.74
-28.24
-31.15
-33.96
-37.24
-41.20
-45.38
-48.67
-49.75
-47.54
-41.63
-32.39
-20.80
-7.95
5.27
18.40
31.35
44.14
56.67
68.54
79.04
87.34
92.76
94.96
94.14
90.98
86.49
81.79
77.77
74.79
72.58
70.28
66.77
61.09
52.94
42.88
32.20
22.46
14.92
10.10
7.66
6.64
5.94
4.71
2.68
0.07
-2.60
-4.94
-6.91
-8.86
-11.33
-14.89
-19.83
-26.20
-33.79
-42.21
-50.80
-58.51
-63.90
-65.41
-62.13
-54.33
-43.69
-32.65
-23.31
-16.57
-11.87
-7.89
-3.62
0.86
4.44
5.71
3.96
-0.40
-6.04
-11.51
-15.94
-19.24
-21.72
-23.58
-24.62
-24.29
-22.03
-17.72
-11.86
-5.40
0.47
4.85
7.29
7.87
7.07
5.50
3.65
1.82
0.12
-1.44
-2.84
-4.09
-5.21
-6.30
-7.53
-9.10
-11.09
-13.42
-15.82
-17.88
-19.13
-19.21
-18.05
-15.82
-12.95
-9.87
-6.96
-4.44
-2.43
-1.04
-0.40
-0.57
-1.50
-2.96
-4.63
-6.26
-7.70
-8.87
-9.68
-10.00
-9.74
-8.95
-7.89
-6.93
-6.38
-6.28
-6.44
-6.60
-6.65
-6.77
-7.23
-8.21
-9.51
-10.55
-10.70
-9.63
-7.55
-5.23
-3.64
-3.51
-5.10
-8.13
-12.02
-16.13
-19.92
-22.97
-24.81
-24.95
-22.93
-18.65
-12.53
-5.47
1.38
7.03
11.05
13.61
15.33
16.81
18.37
19.87
20.83
20.82
19.68
17.60
15.08
12.66
10.79
9.64
9.23
9.44
10.10
10.97
11.73
12.03
11.52
9.98
7.46
4.28
0.98
-1.88
-3.87
-4.89
-5.14
-5.10
-5.26
-6.01
-7.48
-9.58
-12.02
-14.45
-16.46
-17.67
-17.76
-16.55
-14.08
-10.63
-6.64
-2.62
1.05
4.14
6.59
8.42
9.68
10.39
10.62
10.49
10.17
9.86
9.61
9.37
9.00
8.40
7.54
6.54
5.58
4.85
4.48
4.53
4.96
5.66
6.42
6.92
6.90
6.16
4.74
2.88
0.94
-0.78
-2.18
-3.38
-4.60
-6.08
-7.94
-10.18
-12.70
-15.42
-18.23
-20.94
-23.21
-24.56
-24.54
-22.89
-19.71
-15.44
-10.74
-6.21
-2.19
1.19
4.01
6.35
8.21
9.56
10.36
10.75
11.00
11.44
12.31
13.60
15.08
16.41
17.32
17.71
17.67
17.32
16.81
16.11
15.17
13.94
12.46
10.92
9.43
8.01
6.50
4.62
2.20
-0.69
-3.79
-6.70
-9.14
-11.05
-12.61
-14.14
-15.99
-18.31
-21.07
-23.99
-26.62
-28.47
-29.12
-28.33
-26.13
-22.81
-18.77
-14.39
-9.95
-5.64
-1.60
2.06
5.26
8.00
10.32
12.28
13.83
14.88
15.39
15.41
15.14
14.87
14.74
14.71
14.59
14.14
13.30
12.24
11.21
10.42
9.84
9.28
8.50
7.32
5.73
3.84
1.79
-0.34
-2.58
-4.99
-7.60
-10.34
-13.03
-15.44
-17.45
-19.08
-20.54
-22.12
-24.02
-26.19
-28.30
-29.82
-30.26
-29.29
-26.93
-23.35
-18.87
-13.77
-8.36
-2.93
2.18
6.66
10.33
13.13
15.12
16.42
17.09
17.13
16.52
15.34
13.79
12.22
10.92
10.10
9.77
9.72
9.70
9.50
9.08
8.53
8.00
7.63
7.40
7.17
6.78
6.11
5.14
3.90
2.41
0.68
-1.34
-3.61
-6.04
-8.50
-10.91
-13.18
-15.26
-16.94
-17.84
-17.54
-15.73
-12.40
-7.92
-2.84
2.27
7.05
11.35
15.12
18.22
20.47
21.70
21.86
21.12
19.81
18.25
16.59
14.90
13.14
11.40
9.82
8.61
7.86
7.44
7.09
6.50
5.52
4.20
2.75
1.39
0.18
-1.05
-2.54
-4.54
-7.12
-10.10
-13.15
-15.93
-18.27
-20.19
-21.90
-23.57
-25.20
-26.51
-27.00
-26.17
-23.76
-19.84
-14.85
-9.35
-3.87
1.34
6.18
10.71
14.83
18.30
20.76
21.91
21.74
20.52
18.73
16.83
15.08
13.48
11.93
10.35
8.80
7.45
6.47
5.96
5.83
5.85
5.72
5.15
3.97
2.18
-0.08
-2.47
-4.66
-6.42
-7.73
-8.82
-10.03
-11.64
-13.72
-16.09
-18.40
-20.24
-21.22
-21.04
-19.50
-16.54
-12.29
-7.08
-1.45
4.00
8.78
12.62
15.53
17.70
19.34
20.53
21.20
21.19
20.37
18.82
16.82
14.73
12.87
11.34
10.05
8.85
7.68
6.62
5.89
5.61
5.72
5.96
5.90
5.19
3.62
1.29
-1.56
-4.56
-7.46
-10.08
-12.42
-14.64
-16.92
-19.43
-22.16
-24.99
-27.70
-30.15
-32.36
-34.48
-36.62
-38.70
-40.37
-41.19
-40.83
-39.18
-36.37
-32.66
-28.26
-23.32
-18.03
-12.76
-8.06
-4.53
-2.46
-1.60
-1.20
-0.26
2.01
5.80
10.66
15.63
19.72
22.25
23.13
22.73
21.62
20.31
18.97
17.48
15.61
13.22
10.32
7.16
4.08
1.46
-0.46
-1.57
-2.03
-2.13
-2.30
-2.84
-3.84
-5.03
-5.98
-6.27
-5.62
-4.00
-1.49
1.83
5.93
10.75
16.08
21.47
26.27
29.82
31.64
31.59
29.81
26.73
22.80
18.52
14.23
10.17
6.41
3.00
-0.01
-2.45
-4.08
-4.70
-4.29
-3.11
-1.64
-0.44
0.05
-0.34
-1.56
-3.33
-5.35
-7.36
-9.27
-11.06
-12.82
-14.64
-16.56
-18.58
-20.72
-23.02
-25.50
-28.01
-30.13
-31.19
-30.42
-27.29
-21.73
-14.24
-5.77
2.64
10.20
16.50
21.52
25.35
28.07
29.60
29.85
28.82
26.68
23.80
20.66
17.67
15.18
13.34
12.14
11.48
11.13
10.86
10.45
9.76
8.81
7.70
6.55
5.43
4.23
2.80
0.91
-1.50
-4.34
-7.36
-10.25
-12.76
-14.81
-16.48
-17.96
-19.53
-21.34
-23.44
-25.68
-27.67
-28.87
-28.75
-26.88
-23.10
-17.56
-10.71
-3.13
4.53
11.75
18.11
23.31
27.10
29.36
30.04
29.26
27.31
24.64
21.77
19.16
17.14
15.76
14.94
14.44
14.06
13.72
13.41
13.14
12.81
12.21
11.08
9.29
6.92
4.24
1.56
-0.95
-3.36
-5.85
-8.57
-11.45
-14.23
-16.60
-18.40
-19.73
-20.94
-22.42
-24.42
-26.96
-29.81
-32.55
-34.70
-35.72
-35.22
-32.97
-29.03
-23.67
-17.28
-10.25
-2.91
4.44
11.47
17.75
22.78
26.14
27.65
27.42
25.84
23.46
20.84
18.43
16.54
15.30
14.70
14.59
14.77
15.07
15.36
15.53
15.50
15.20
14.57
13.64
12.46
11.13
9.67
8.11
6.43
4.65
2.84
1.05
-0.67
-2.31
-3.92
-5.61
-7.44
-9.51
-11.77
-14.08
-16.12
-17.38
-17.27
-15.31
-11.29
-5.42
1.62
9.04
16.12
22.38
27.65
31.91
35.17
37.44
38.72
39.13
38.93
38.44
37.85
37.26
36.77
36.74
37.78
40.66
45.69
52.50
60.06
67.14
72.88
77.18
80.63
84.09
88.26
93.64
100.57
109.39
120.26
132.76
145.47
156.20
162.68
163.53
158.91
150.37
139.99
129.33
118.87
108.19
96.89
85.35
74.98
67.57
64.16
64.18
65.32
64.48
59.21
48.89
35.11
20.74
8.63
0.14
-5.28
-9.49
-14.47
-21.34
-29.97
-39.51
-49.05
-58.03
-66.07
-72.59
-76.67
-77.39
-74.52
-69.03
-62.86
-58.00
-55.18
-53.32
-49.93
-42.41
-29.61
-12.72
5.10
20.03
29.31
32.14
29.64
23.68
15.50
4.93
-9.35
-28.81
-53.80
-82.67
-111.62
-135.49
-149.21
-149.61
-136.87
-114.97
-90.84
-72.24
-65.03
-71.10
-87.75
-108.85
-127.33
-137.63
-137.21
-126.38
-107.24
-82.37
-54.31
-25.80
-0.20
18.81
28.65
29.37
24.80
21.56
26.15
41.48
65.12
90.50
110.43
121.03
123.28
121.67
120.77
121.98
122.52
117.14
101.30
73.79
37.22
-3.41
-43.04
-78.54
-109.15
-135.84
-160.29
-183.84
-207.45
-232.09
-259.27
-291.03
-328.84
-371.87
-415.36
-451.00
-469.32
-463.48
-432.15
-380.17
-316.08
-247.94
-179.95
-111.59
-40.00
36.19
113.82
184.84
239.04
267.78
267.20
239.32
191.14
132.63
74.59
26.39
-5.57
-18.97
-16.11
-3.12
11.98
21.77
21.70
11.03
-7.58
-29.64
-50.70
-67.71
-79.43
-86.24
-89.52
-91.09
-92.82
-96.29
-102.42
-111.13
-120.79
-128.27
-129.61
-121.63
-103.34
-76.68
-45.62
-13.93
17.19
50.19
89.97
140.82
203.13
271.99
338.18
391.46
423.98
432.46
418.10
384.79
337.05
279.07
215.14
150.47
91.28
43.65
11.45
-5.50
-11.73
-14.52
-20.90
-35.19
-58.18
-88.04
-122.13
-158.28
-194.33
-226.82
-250.23
-257.97
-245.22
-211.97
-164.48
-114.18
-74.21
-55.25
-62.25
-93.06
-139.39
-189.35
-230.41
-252.04
-247.77
-216.34
-161.74
-92.21
-18.28
49.85
104.44
141.51
160.84
164.58
156.06
139.19
118.23
98.04
83.09
76.02
76.33
80.22
82.18
77.93
66.67
51.56
37.83
29.72
28.12
30.43
32.28
30.15
23.05
12.55
1.58
-7.23
-12.65
-15.04
-15.87
-16.87
-19.09
-22.43
-26.01
-28.96
-31.14
-33.16
-35.87
-39.37
-42.73
-44.37
-43.07
-38.92
-33.34
-28.29
-25.22
-24.34
-24.71
-25.01
-24.35
-22.60
-20.36
-18.45
-17.53
-17.84
-19.18
-21.00
-22.48
-22.62
-20.58
-16.01
-9.36
-1.72
5.50
11.15
14.74
16.41
16.71
16.16
15.05
13.42
11.28
8.67
5.78
2.65
-0.78
-4.48
-8.04
-10.54
-10.89
-8.30
-2.87
4.13
10.58
13.95
12.31
4.97
-7.04
-21.37
-34.71
-43.55
-44.86
-36.65
-18.65
7.31
37.38
66.50
89.74
103.70
107.22
101.29
88.31
71.09
52.09
33.08
15.58
0.99
-9.40
-14.93
-16.11
-14.61
-12.86
-12.86
-15.30
-19.16
-22.24
-22.36
-18.55
-11.63
-3.75
2.60
5.91
6.33
5.32
4.72
5.70
8.29
11.55
14.30
15.77
15.90
15.24
14.51
14.22
14.47
15.06
15.73
16.51
17.91
20.66
25.35
32.01
39.89
47.60
53.62
56.88
57.11
54.75
50.62
45.48
39.94
34.49
29.57
25.52
22.43
19.93
17.24
13.43
7.90
0.85
-6.68
-13.07
-16.68
-16.33
-11.63
-2.88
8.99
22.44
35.43
45.63
51.09
50.85
45.30
35.94
24.73
13.30
2.58
-7.31
-16.51
-25.06
-32.73
-39.18
-44.28
-48.25
-51.58
-54.75
-57.96
-61.06
-63.68
-65.48
-66.38
-66.64
-66.75
-67.25
-68.31
-69.60
-70.38
-69.74
-67.08
-62.39
-56.26
-49.68
-43.63
-38.76
-35.19
-32.64
-30.65
-28.83
-27.02
-25.32
-23.93
-22.97
-22.45
-22.25
-22.24
-22.23
-21.79
-20.11
-15.93
-8.03
4.19
20.15
38.05
55.50
70.54
82.43
91.74
99.79
107.67
115.65
123.11
129.01
132.46
132.93
130.30
124.57
115.97
105.02
92.82
80.88
70.59
62.60
56.44
50.64
43.51
33.91
21.84
8.44
-4.64
-15.87
-24.47
-30.52
-34.72
-37.94
-40.74
-43.33
-45.69
-47.85
-50.02
-52.41
-54.99
-57.26
-58.31
-57.31
-53.94
-48.76
-43.06
-38.23
-35.19
-33.89
-33.31
-32.00
-28.74
-23.16
-15.78
-7.84
-0.72
4.54
7.61
8.84
9.08
9.31
10.35
12.61
16.09
20.52
25.52
30.78
36.07
41.22
45.98
49.97
52.74
53.92
53.38
51.35
48.41
45.36
42.99
41.89
42.31
44.25
47.55
52.04
57.58
63.95
70.68
76.99
81.80
84.01
82.92
78.56
71.91
64.66
58.92
56.54
58.52
64.65
73.48
82.73
90.02
93.63
92.92
88.43
81.33
72.84
63.75
54.32
44.50
34.23
23.56
12.61
1.38
-10.27
-22.54
-35.41
-48.49
-61.08
-72.42
-82.02
-89.89
-96.55
-102.70
-108.91
-115.35
-121.57
-126.69
-129.57
-129.17
-124.96
-117.24
-107.04
-95.92
-85.40
-76.44
-69.21
-63.26
-57.88
-52.56
-47.23
-42.06
-37.15
-32.22
-26.68
-19.82
-11.16
-0.70
11.12
23.67
36.33
48.68
60.53
71.79
82.40
92.05
100.09
105.40
106.54
102.29
92.22
77.22
59.41
41.56
26.07
14.08
5.28
-1.80
-8.94
-17.37
-27.22
-37.39
-46.17
-51.78
-53.15
-50.56
-45.94
-42.81
-45.80
-59.88
-88.89
-133.92
-191.91
-255.42
-313.80
-356.10
-374.38
-366.06
-334.41
-286.57
-230.25
-170.80
-110.49
-49.95
9.17
62.45
103.79
128.42
136.61
134.75
132.95
140.23
160.14
189.32
219.86
244.09
258.60
265.06
267.97
270.87
273.88
274.17
268.41
255.50
237.50
218.13
200.56
185.55
171.38
155.50
136.22
113.78
90.03
67.52
48.14
32.62
20.65
11.48
4.57
-0.08
-2.10
-1.13
2.77
8.81
15.56
21.24
24.33
24.10
20.97
16.25
11.57
7.99
5.57
3.31
-0.23
-6.13
-14.42
-23.97
-32.88
-39.24
-41.88
-40.77
-36.92
-31.82
-26.95
-23.30
-21.31
-20.79
-21.08
-21.13
-19.68
-15.64
-8.66
0.35
8.98
13.70
10.94
-1.29
-22.18
-47.65
-71.57
-87.91
-93.18
-87.89
-76.08
-63.53
-55.25
-53.84
-58.96
-68.13
-77.98
-85.31
-87.77
-83.98
-73.75
-58.04
-39.01
-19.54
-2.61
9.52
15.82
16.62
13.42
8.22
2.85
-1.57
-4.83
-7.59
-11.00
-16.37
-24.82
-36.90
-52.27
-69.27
-84.86
-95.37
-97.82
-91.55
-79.02
-65.03
-54.60
-50.59
-52.42
-56.85
-60.10
-60.18
-57.78
-55.44
-55.77
-59.72
-66.25
-73.15
-78.56
-81.97
-84.17
-86.28
-88.50
-89.50
-86.74
-77.71
-61.35
-38.90
-13.74
9.85
28.29
39.99
45.61
47.27
47.12
46.29
44.42
40.25
32.58
21.15
6.89
-8.43
-22.84
-34.72
-43.02
-47.19
-47.06
-42.68
-34.44
-23.20
-10.41
2.05
12.33
19.11
22.14
22.13
20.32
17.63
14.26
9.62
2.93
-6.10
-16.80
-27.50
-36.16
-40.98
-40.80
-35.27
-24.74
-10.32
6.12
22.04
34.88
42.94
46.12
45.94
44.59
43.50
42.48
39.81
33.65
23.80
12.55
4.04
2.17
8.33
20.66
35.19
48.12
57.73
64.76
70.95
77.14
82.25
84.01
80.95
73.97
66.16
60.82
59.19
59.67
59.20
55.70
49.73
44.04
41.51
43.12
47.53
52.40
56.12
58.85
61.62
64.83
67.19
66.43
61.21
52.60
43.89
38.68
38.70
42.81
48.06
51.86
53.65
54.87
57.53
62.31
67.37
68.99
63.29
48.23
24.67
-3.98
-33.11
-58.53
-77.59
-89.35
-94.13
-92.98
-87.27
-78.50
-68.56
-59.57
-53.44
-51.34
-53.20
-57.85
-63.50
-68.48
-71.86
-73.50
-73.59
-72.04
-68.08
-60.60
-49.02
-34.13
-18.57
-6.20
-0.87
-4.97
-18.32
-37.74
-57.55
-71.18
-73.25
-61.71
-39.04
-11.61
12.62
27.43
30.87
25.65
17.05
9.77
5.37
2.07
-3.17
-12.04
-23.33
-33.65
-39.59
-39.75
-35.27
-28.77
-22.47
-17.05
-11.82
-5.94
0.08
4.05
3.15
-4.34
-17.57
-33.01
-45.66
-51.25
-47.87
-36.69
-21.08
-4.99
8.48
17.87
23.14
24.96
24.09
21.23
17.02
12.31
7.96
4.58
2.32
0.77
-0.65
-2.41
-4.58
-6.81
-8.43
-8.74
-7.24
-3.83
0.97
6.08
10.12
11.94
11.20
8.59
5.66
4.10
4.98
8.30
13.16
18.35
22.98
26.90
30.58
34.79
40.06
46.59
54.16
62.37
70.66
78.32
84.30
87.31
86.08
79.83
68.65
53.67
36.78
20.09
5.35
-6.43
-14.98
-20.49
-23.30
-23.90
-22.95
-21.43
-20.50
-21.09
-23.48
-27.18
-31.01
-33.63
-34.00
-31.80
-27.62
-22.69
-18.55
-16.55
-17.26
-20.35
-24.77
-29.18
-32.61
-34.77
-36.00
-36.84
-37.50
-37.70
-36.75
-34.01
-29.27
-22.92
-15.77
-8.79
-2.77
1.86
4.99
6.85
7.74
7.92
7.51
6.49
4.85
2.79
0.70
-0.89
-1.60
-1.36
-0.51
0.37
0.75
0.39
-0.58
-1.79
-2.86
-3.58
-4.01
-4.35
-4.79
-5.46
-6.45
-7.84
-9.73
-12.13
-14.92
-17.83
-20.49
-22.65
-24.25
-25.44
-26.39
-27.00
-26.83
-25.17
-21.31
-14.86
-5.96
4.78
16.49
28.24
39.29
49.07
57.02
62.58
65.21
64.62
61.00
55.15
48.38
41.99
36.98
33.75
32.08
31.43
31.16
30.81
30.12
28.97
27.26
24.82
21.46
17.09
11.79
5.96
0.20
-4.85
-8.86
-11.94
-14.58
-17.40
-20.76
-24.54
-28.18
-30.98
-32.59
-33.20
-33.46
-34.12
-35.71
-38.32
-41.65
-45.23
-48.60
-51.38
-53.25
-53.88
-52.99
-50.35
-45.98
-40.13
-33.20
-25.63
-17.79
-9.91
-2.15
5.37
12.42
18.75
24.08
28.21
31.06
32.70
33.41
33.62
33.85
34.57
36.13
38.68
42.02
45.78
49.35
52.22
53.95
54.28
53.10
50.43
46.41
41.27
35.40
29.22
23.12
17.34
11.90
6.65
1.36
-4.02
-9.30
-14.08
-17.90
-20.51
-22.02
-22.87
-23.74
-25.20
-27.49
-30.33
-33.05
-34.73
-34.63
-32.35
-27.98
-21.96
-14.96
-7.55
-0.13
7.14
14.27
21.40
28.78
36.68
45.28
54.35
63.18
70.46
74.70
74.66
69.89
60.84
48.72
34.94
20.81
7.45
-4.11
-12.67
-16.92
-15.94
-9.74
0.47
12.46
23.76
32.55
38.09
40.68
41.03
39.66
36.65
31.84
25.27
17.54
9.70
2.96
-1.80
-4.30
-4.85
-4.14
-2.99
-2.27
-2.78
-5.19
-9.81
-16.44
-24.31
-32.26
-38.97
-43.33
-44.71
-43.07
-39.02
-33.68
-28.25
-23.59
-19.90
-16.82
-13.80
-10.67
-7.85
-6.17
-6.22
-7.88
-10.26
-12.24
-13.20
-13.44
-13.96
-15.74
-18.97
-22.87
-26.13
-27.65
-27.18
-25.34
-23.17
-21.48
-20.44
-19.69
-18.80
-17.78
-17.31
-18.43
-21.98
-28.21
-36.68
-46.64
-57.39
-68.32
-78.86
-88.22
-95.50
-100.18
-102.40
-103.04
-103.15
-103.21
-102.80
-100.92
-96.80
-90.49
-82.88
-75.12
-67.93
-61.17
-54.10
-45.83
-35.92
-24.45
-11.92
1.00
13.56
25.09
35.09
43.27
49.70
54.74
58.88
62.63
66.42
70.67
75.68
81.54
87.88
93.91
98.61
101.15
101.24
99.25
95.95
92.15
88.36
84.58
80.52
75.73
70.00
63.46
56.57
49.86
43.66
37.97
32.41
26.61
20.49
14.50
9.43
6.07
4.80
5.45
7.52
10.41
13.75
17.31
20.91
24.21
26.63
27.66
26.99
24.81
21.53
17.68
13.59
9.38
5.07
0.85
-2.85
-5.43
-6.36
-5.54
-3.31
-0.45
2.20
4.02
4.90
5.20
5.57
6.72
9.05
12.53
16.62
20.36
22.75
22.98
20.70
16.17
10.20
3.98
-1.26
-4.61
-5.83
-5.47
-4.77
-5.08
-7.11
-10.49
-13.89
-15.71
-15.00
-11.91
-7.61
-3.60
-1.08
-0.58
-1.91
-4.47
-7.51
-10.25
-12.09
-12.72
-12.24
-11.20
-10.44
-10.87
-13.35
-18.50
-26.65
-37.41
-49.18
-59.16
-64.27
-62.44
-53.79
-40.75
-26.99
-15.63
-8.09
-3.93
-1.80
-0.49
0.43
0.78
0.45
-0.37
-1.24
-1.99
-2.84
-4.19
-6.20
-8.32
-9.70
-9.72
-8.50
-6.92
-6.06
-6.56
-8.21
-9.98
-10.71
-9.75
-7.25
-3.92
-0.53
2.65
6.02
10.29
15.85
22.43
29.10
34.64
38.20
39.52
38.81
36.25
31.75
24.95
15.59
3.94
-9.14
-22.24
-33.97
-43.14
-48.82
-50.20
-46.54
-37.35
-23.05
-5.32
12.88
28.04
37.19
39.00
34.27
25.39
15.36
6.41
-0.52
-5.75
-10.28
-14.87
-19.60
-24.09
-27.89
-30.63
-32.07
-31.95
-29.95
-25.98
-20.52
-14.72
-10.03
-7.54
-7.30
-8.24
-8.70
-7.35
-3.86
1.04
5.98
9.73
11.78
12.40
12.27
12.09
12.25
12.66
13.01
12.95
12.43
11.78
11.46
11.82
12.81
13.98
14.66
14.36
12.92
10.70
8.33
6.39
5.21
4.64
4.25
3.48
2.01
-0.18
-2.76
-5.30
-7.46
-9.11
-10.35
-11.35
-12.24
-13.07
-13.86
-14.66
-15.56
-16.60
-17.60
-18.20
-17.95
-16.51
-13.83
-10.18
-6.00
-1.72
2.32
5.86
8.70
10.64
11.64
11.82
11.50
11.10
10.94
11.18
11.76
12.51
13.25
13.86
14.23
14.26
13.91
13.22
12.34
11.47
10.73
10.03
9.13
7.73
5.77
3.45
1.19
-0.59
-1.72
-2.34
-2.83
-3.60
-4.83
-6.47
-8.29
-10.06
-11.66
-13.14
-14.56
-15.90
-17.09
-17.97
-18.47
-18.64
-18.57
-18.35
-17.92
-17.10
-15.66
-13.42
-10.38
-6.73
-2.79
1.06
4.52
7.40
9.61
11.06
11.77
11.76
11.18
10.26
9.22
8.25
7.36
6.54
5.76
5.12
4.83
5.08
5.93
7.10
8.15
8.59
8.18
6.99
5.34
3.61
2.02
0.62
-0.67
-1.87
-2.92
-3.74
-4.33
-4.86
-5.58
-6.72
-8.26
-9.99
-11.54
-12.52
-12.68
-11.90
-10.21
-7.69
-4.54
-1.01
2.56
5.91
8.86
11.36
13.49
15.27
16.67
17.53
17.70
17.09
15.77
13.99
12.06
10.28
8.80
7.62
6.61
5.63
4.66
3.75
3.05
2.62
2.41
2.25
1.96
1.39
0.55
-0.56
-1.89
-3.47
-5.34
-7.50
-9.86
-12.22
-14.38
-16.27
-17.97
-19.73
-21.75
-24.10
-26.58
-28.67
-29.74
-29.20
-26.79
-22.69
-17.56
-12.35
-8.04
-5.35
-4.54
-5.31
-6.99
-8.76
-9.87
-9.83
-8.50
-6.09
-3.03
0.09
2.79
4.79
6.15
7.22
8.47
10.28
12.91
16.53
21.46
28.11
36.75
47.21
58.77
70.37
81.12
90.73
99.51
107.86
115.59
121.59
124.02
121.13
112.16
97.78
79.87
60.87
43.01
27.94
16.65
9.58
6.64
7.27
10.59
15.63
21.58
27.93
34.35
40.48
45.87
50.19
53.57
56.83
61.14
67.49
76.08
86.19
96.50
105.63
112.66
117.23
119.37
119.44
118.15
116.53
115.81
116.91
119.97
124.03
127.24
127.62
123.67
114.86
101.45
84.11
63.32
39.24
11.62
-19.97
-55.72
-94.48
-132.83
-165.07
-184.93
-188.45
-176.77
-156.83
-138.99
-132.52
-141.19
-161.50
-184.51
-200.55
-203.96
-195.48
-181.04
-168.06
-161.66
-162.85
-169.38
-178.03
-186.26
-192.39
-194.56
-190.04
-175.86
-150.71
-116.73
-79.52
-45.97
-21.13
-6.14
1.51
5.58
8.42
10.02
9.15
5.59
1.39
0.17
4.87
15.74
29.90
43.05
51.76
55.14
54.81
53.64
53.90
56.04
58.70
59.51
56.32
48.39
36.58
22.89
9.44
-2.43
-12.58
-21.68
-30.49
-39.36
-48.33
-57.59
-67.69
-79.21
-91.88
-104.02
-112.73
-115.26
-110.35
-99.18
-84.67
-70.09
-57.44
-46.99
-37.88
-29.28
-21.25
-14.64
-10.28
-8.13
-7.05
-5.46
-2.43
1.61
4.88
5.07
0.66
-8.17
-19.30
-29.53
-35.90
-37.04
-33.62
-27.79
-21.93
-17.61
-15.21
-14.36
-14.73
-16.50
-20.03
-25.17
-30.66
-34.39
-34.23
-29.10
-19.58
-7.70
3.96
13.30
19.55
23.30
26.09
29.63
35.01
42.30
50.50
57.95
63.08
64.99
63.85
60.84
57.77
56.38
57.69
61.68
67.28
72.74
76.19
76.17
72.03
64.03
53.17
41.02
29.37
19.95
13.93
11.65
12.45
14.94
17.55
19.03
18.81
17.08
14.46
11.51
8.37
4.71
-0.07
-6.31
-13.69
-21.12
-26.99
-29.76
-28.54
-23.55
-16.13
-8.40
-2.55
-0.15
-1.66
-6.23
-11.98
-16.60
-18.06
-15.31
-8.57
0.94
11.37
20.91
28.20
32.55
33.90
32.68
29.58
25.40
20.96
16.99
14.16
13.11
14.45
18.58
25.40
34.00
42.71
49.50
52.73
51.76
47.18
40.41
33.00
25.97
19.48
13.15
6.52
-0.49
-7.44
-13.58
-18.34
-21.55
-23.53
-24.83
-25.81
-26.45
-26.32
-24.83
-21.56
-16.58
-10.37
-3.63
3.04
9.29
14.94
19.67
22.87
23.58
20.85
14.26
4.29
-7.68
-19.81
-30.33
-37.98
-42.09
-42.53
-39.36
-32.88
-23.67
-12.71
-1.39
8.74
16.46
21.34
23.92
25.53
27.79
31.96
38.49
46.77
55.31
62.08
65.13
63.12
55.79
44.18
30.29
16.54
4.94
-3.60
-9.42
-13.84
-18.33
-23.61
-29.17
-33.34
-34.08
-29.99
-21.20
-9.52
2.03
10.19
12.54
8.35
-1.03
-12.39
-21.50
-24.27
-17.87
-1.84
21.08
45.31
63.85
70.54
62.44
41.13
12.45
-15.46
-35.23
-43.45
-41.46
-34.32
-28.08
-27.13
-32.61
-42.42
-52.70
-59.93
-63.38
-64.71
-66.43
-70.03
-74.89
-78.85
-79.30
-74.45
-64.07
-50.27
-36.19
-24.48
-16.58
-12.96
-13.84
-19.48
-29.77
-38.31
-38.62
-27.34
-6.78
17.17
39.72
59.02
75.50
90.26
103.90
115.25
122.19
123.74
120.64
115.06
109.41
105.29
103.11
102.19
100.57
95.41
85.49
71.10
53.77
35.36
17.34
0.51
-14.92
-26.52
-35.78
-43.76
-50.73
-56.29
-59.83
-61.14
-60.31
-57.70
-54.06
-50.66
-47.99
-46.09
-44.70
-43.32
-41.77
-39.98
-37.95
-35.81
-34.09
-32.87
-32.03
-31.40
-30.59
-29.59
-28.31
-26.66
-24.56
-22.22
-19.68
-16.99
-15.48
-14.39
-13.82
-13.90
-14.70
-16.22
-18.51
-21.38
-24.49
-27.47
-29.76
-31.16
-31.23
-29.49
-25.66
-19.71
-11.86
-2.52
7.66
17.81
26.74
33.86
38.94
41.96
43.09
42.70
41.24
39.29
37.03
34.59
32.82
32.70
35.20
40.99
50.53
63.71
80.12
99.86
120.22
138.75
153.75
164.31
170.03
171.28
168.44
161.72
149.87
132.15
108.95
81.30
50.35
17.02
-17.91
-54.99
-86.16
-108.89
-123.34
-130.74
-132.43
-129.40
-122.21
-110.92
-96.27
-78.93
-61.60
-46.10
-32.77
-20.69
-8.30
1.71
11.93
23.31
35.87
46.49
52.92
54.84
54.00
53.39
55.88
63.13
74.56
88.59
99.81
103.60
97.68
82.43
59.29
34.85
12.07
-9.62
-32.42
-63.17
-107.88
-169.50
-246.56
-333.84
-424.09
-510.65
-589.55
-636.73
-638.39
-595.12
-522.54
-441.83
-368.45
-307.19
-254.93
-206.09
-156.05
-106.49
-61.51
-24.86
2.66
23.76
41.22
62.92
94.39
138.01
190.61
246.84
300.94
347.89
379.69
391.16
382.09
356.75
322.64
286.10
251.06
218.36
186.78
154.75
122.21
90.64
63.12
39.39
17.78
-3.33
-24.91
-47.07
-69.64
-92.56
-116.45
-143.31
-175.26
-213.27
-255.77
-298.88
-337.16
-365.21
-378.71
-375.36
-355.74
-321.88
-280.19
-240.13
-211.93
-202.87
-213.63
-236.81
-259.48
-268.52
-256.37
-223.42
-176.82
-126.08
-78.08
-34.56
7.29
51.64
100.82
154.18
210.11
266.83
323.25
378.72
432.42
482.42
525.37
556.88
572.74
572.46
557.42
530.37
494.61
453.45
410.00
366.77
325.53
287.39
256.76
237.04
229.71
233.83
246.83
265.67
287.47
309.72
330.16
351.69
376.11
403.02
429.30
450.42
462.39
462.55
449.78
398.29
298.23
156.34
-5.08
-159.93
-289.80
-387.62
-455.04
-496.23
-521.14
-532.70
-532.69
-523.03
-507.47
-490.79
-477.39
-469.43
-467.25
-469.41
-468.89
-461.02
-441.53
-408.49
-362.14
-303.50
-234.86
-158.50
-76.15
14.21
109.18
201.78
282.16
341.77
376.95
389.40
383.78
364.23
333.70
291.98
238.54
174.52
104.56
36.31
-22.34
-66.72
-97.20
-117.46
-131.84
-141.04
-141.21
-126.29
-93.11
-45.59
4.72
43.15
59.20
51.65
29.13
5.00
-10.25
-14.09
-11.59
-10.03
-13.41
-19.73
-23.42
-19.92
-9.41
3.20
11.63
11.88
4.59
-6.13
-15.13
-18.82
-15.94
-7.65
3.10
13.03
18.24
16.71
8.86
-2.12
-11.90
-16.87
-16.18
-12.00
-8.38
-9.09
-15.62
-27.06
-40.65
-53.50
-63.64
-69.98
-72.23
-70.86
-67.56
-65.28
-67.62
-76.46
-90.57
-105.15
-113.45
-110.44
-95.49
-73.31
-50.76
-36.25
-33.27
-39.87
-50.84
-61.07
-68.39
-73.56
-78.52
-83.88
-88.59
-89.83
-85.19
-74.07
-57.80
-38.78
-19.71
-2.37
13.29
28.30
44.24
61.87
79.11
94.84
107.35
115.15
117.48
115.10
109.48
102.32
94.84
87.43
79.97
71.65
63.17
53.04
41.14
28.13
14.88
2.03
-10.10
-21.31
-31.81
-41.79
-51.62
-61.17
-70.00
-77.84
-84.66
-90.54
-95.60
-100.15
-104.50
-109.15
-114.32
-119.72
-125.24
-130.85
-136.55
-142.24
-147.91
-153.53
-159.26
-165.21
-170.83
-175.84
-180.05
-183.18
-184.84
-184.38
-180.81
-172.50
-162.35
-151.18
-139.58
-127.98
-116.68
-105.88
-95.60
-85.84
-76.64
-68.20
-60.16
-52.52
-45.40
-38.90
-32.93
-27.21
-21.35
-15.04
-8.32
-1.04
6.42
13.48
19.74
25.25
30.61
36.77
44.65
54.72
67.11
81.22
96.19
111.35
126.74
143.15
161.86
183.94
209.68
238.43
268.67
298.58
326.79
352.97
377.81
402.82
430.05
461.82
500.32
546.53
599.03
653.05
700.72
732.99
742.64
726.98
688.90
635.60
575.70
516.15
460.60
409.72
362.68
318.74
277.99
240.80
207.12
175.95
145.74
115.14
83.79
52.33
22.10
-5.65
-30.36
-52.33
-72.51
-91.93
-111.34
-131.01
-150.63
-169.71
-187.75
-204.43
-219.68
-233.71
-246.69
-258.32
-267.43
-271.98
-269.78
-259.61
-242.16
-220.20
-197.74
-178.47
-164.46
-155.62
-150.33
-146.50
-142.63
-138.10
-132.99
-127.54
-121.96
-116.36
-110.97
-106.15
-102.33
-99.77
-98.50
-98.45
-99.43
-101.20
-103.44
-105.74
-107.63
-108.65
-108.45
-107.06
-104.92
-102.87
-101.93
-102.92
-106.03
-110.68
-115.72
-119.92
-122.57
-123.66
-123.76
-123.57
-123.52
-123.65
-123.62
-122.80
-120.43
-115.69
-107.98
-97.57
-85.85
-75.22
-68.23
-66.45
-69.50
-75.07
-79.88
-81.15
-77.99
-71.62
-64.70
-59.72
-57.62
-57.27
-56.13
-51.64
-42.64
-30.13
-16.94
-6.54
-1.51
-2.53
-8.04
-14.94
-19.48
-18.28
-9.06
8.86
34.12
62.96
89.45
106.42
107.38
89.22
54.60
12.39
-24.51
-43.98
-39.86
-14.82
21.12
55.54
79.74
92.21
97.72
103.09
112.17
123.49
131.62
131.12
120.11
101.30
79.89
59.87
41.58
21.90
-2.95
-34.07
-67.99
-97.70
-115.76
-118.36
-107.90
-92.58
-83.65
-90.62
-116.58
-156.22
-197.68
-227.75
-237.87
-227.67
-203.62
-174.36
-145.35
-116.61
-84.82
-47.75
-7.85
27.56
49.71
53.06
37.88
9.64
-23.82
-55.54
-80.83
-96.97
-102.36
-96.57
-80.72
-57.82
-31.94
-6.88
14.53
30.65
40.34
42.58
37.13
25.36
10.71
-2.28
-9.65
-9.92
-4.66
2.25
6.57
5.60
-0.83
-10.70
-21.13
-29.83
-35.90
-39.72
-42.24
-44.27
-45.93
-46.64
-45.39
-41.10
-33.05
-21.20
-6.38
9.76
25.07
37.32
44.59
45.72
40.53
30.08
16.79
4.02
-4.67
-6.71
-1.44
9.53
23.12
35.96
45.60
50.98
52.15
49.52
43.36
33.85
21.60
8.18
-3.83
-11.59
-13.11
-8.12
1.69
13.38
23.86
30.94
33.81
32.81
28.75
22.30
13.85
4.10
-5.45
-12.33
-13.86
-8.52
3.02
17.84
31.94
41.89
46.21
45.45
41.32
35.40
28.37
20.36
11.78
4.01
-0.69
-0.29
5.80
16.15
27.70
37.03
41.61
40.57
34.57
25.20
14.43
4.22
-3.49
-7.01
-5.34
1.32
11.34
21.98
30.31
34.19
32.99
27.53
19.42
10.21
0.96
-7.69
-14.98
-19.81
-20.96
-17.86
-11.27
-3.37
3.08
5.92
4.58
0.15
-5.40
-10.26
-13.48
-14.93
-14.77
-12.83
-8.70
-2.17
6.02
14.11
19.78
21.24
18.10
11.57
3.82
-2.94
-7.36
-9.08
-8.40
-5.77
-1.53
4.08
10.54
16.86
21.72
23.92
22.82
18.57
11.90
3.82
-4.56
-12.03
-17.28
-19.09
-16.86
-11.16
-3.70
3.10
7.05
6.95
2.81
-4.48
-13.80
-24.02
-33.97
-42.04
-46.12
-44.09
-34.77
-18.77
1.36
21.80
38.81
49.85
54.17
52.52
46.23
36.68
25.04
12.74
1.84
-5.10
-5.92
-0.05
10.84
23.18
32.95
37.32
35.70
29.61
21.47
13.32
6.15
0.24
-4.17
-6.26
-5.10
-0.31
7.22
15.40
21.68
24.20
22.41
17.01
9.37
0.78
-7.83
-15.62
-21.67
-24.70
-23.72
-18.55
-10.28
-1.03
6.89
11.91
13.75
13.21
11.53
9.74
8.40
7.83
8.45
10.80
15.20
21.27
27.72
32.79
34.93
33.49
28.82
21.97
14.07
6.11
-0.98
-6.15
-8.27
-6.69
-1.74
5.03
11.30
14.93
14.79
11.05
4.93
-2.13
-9.07
-15.33
-20.62
-24.44
-26.05
-24.82
-20.80
-15.04
-9.48
-6.31
-7.10
-12.14
-20.28
-29.43
-37.30
-42.13
-43.06
-40.02
-33.55
-24.53
-14.12
-3.53
6.14
14.15
20.15
24.18
26.36
26.77
25.46
22.59
18.60
14.27
10.49
8.09
7.68
9.51
13.57
19.49
26.36
32.64
36.40
35.76
29.74
18.82
5.01
-8.66
-19.07
-24.11
-23.21
-17.48
-9.16
-0.78
5.55
8.54
7.67
3.00
-5.00
-15.29
-26.17
-35.39
-40.71
-40.73
-35.51
-26.64
-16.66
-8.08
-2.49
-0.23
-0.56
-2.21
-3.92
-4.71
-3.90
-1.22
3.15
8.52
13.70
17.48
19.02
18.23
15.82
12.98
10.95
10.64
12.43
16.06
20.83
25.77
29.90
32.44
33.04
31.79
29.01
25.07
20.14
14.44
8.45
3.13
-0.21
-0.49
2.56
8.04
14.11
18.75
20.55
19.20
15.34
10.02
4.13
-1.77
-7.28
-11.84
-14.68
-15.15
-13.18
-9.61
-5.97
-3.89
-4.22
-6.75
-10.43
-14.01
-16.78
-18.56
-19.40
-19.04
-16.87
-12.30
-5.37
2.86
10.69
16.49
19.55
20.25
19.67
18.82
18.08
17.23
15.94
14.21
12.47
11.27
10.84
10.99
11.32
11.51
11.53
11.45
11.16
10.15
7.80
3.78
-1.43
-6.55
-10.07
-11.02
-9.54
-6.81
-4.42
-3.51
-4.35
-6.41
-9.02
-11.96
-15.57
-20.25
-25.64
-30.38
-32.53
-30.62
-24.61
-16.11
-7.56
-1.00
2.85
4.64
5.67
6.89
8.36
9.42
9.51
8.76
8.14
8.78
11.29
15.24
19.39
22.42
23.50
22.69
20.65
18.12
15.45
12.44
8.68
4.00
-1.22
-6.13
-9.75
-11.46
-11.31
-9.93
-8.33
-7.47
-7.90
-9.66
-12.33
-15.30
-18.01
-20.11
-21.54
-22.42
-23.08
-23.84
-24.90
-26.22
-27.41
-27.93
-27.27
-25.20
-21.84
-17.64
-13.06
-8.46
-4.01
0.20
3.98
7.09
9.21
10.20
10.20
9.62
8.88
8.27
7.75
7.03
5.96
4.78
4.13
4.90
7.66
12.22
17.54
22.06
24.41
24.00
21.24
17.32
13.52
10.74
9.23
8.77
8.96
9.44
9.90
9.99
9.34
7.59
4.54
0.36
-4.44
-9.06
-12.56
-14.19
-13.64
-11.24
-7.84
-4.51
-2.07
-0.71
-0.02
0.84
2.54
5.30
8.72
12.02
14.46
15.67
15.79
15.29
14.64
14.09
13.54
12.72
11.42
9.61
7.59
5.78
4.52
3.86
3.47
2.86
1.67
-0.22
-2.49
-4.68
-6.35
-7.28
-7.55
-7.48
-7.50
-8.00
-9.20
-11.10
-13.45
-15.86
-17.94
-19.56
-20.85
-22.05
-23.29
-24.33
-24.63
-23.66
-21.31
-17.95
-14.31
-10.96
-7.96
-4.83
-0.93
4.00
9.58
14.93
19.08
21.44
22.06
21.50
20.46
19.40
18.50
17.66
16.76
15.81
14.91
14.21
13.71
13.18
12.27
10.68
8.31
5.40
2.41
-0.15
-1.94
-2.99
-3.61
-4.24
-5.26
-6.77
-8.62
-10.52
-12.23
-13.73
-15.21
-16.90
-18.96
-21.26
-23.50
-25.42
-26.89
-27.94
-28.63
-28.97
-28.87
-28.24
-27.02
-25.15
-22.50
-18.86
-14.06
-8.22
-1.84
4.24
9.14
12.37
14.01
14.54
14.62
14.63
14.61
14.34
13.64
12.53
11.31
10.36
9.98
10.20
10.79
11.37
11.60
11.30
10.46
9.25
7.90
6.59
5.37
4.26
3.17
2.03
0.76
-0.70
-2.40
-4.29
-6.27
-8.17
-9.80
-10.93
-11.47
-11.47
-11.24
-11.28
-12.10
-13.88
-16.34
-18.71
-20.06
-19.70
-17.41
-13.47
-8.41
-2.73
3.31
9.50
15.62
21.26
25.96
29.33
31.28
31.96
31.64
30.54
28.82
26.62
24.17
21.79
19.76
18.22
17.11
16.23
15.42
14.52
13.45
12.14
10.53
8.60
6.46
4.29
2.32
0.64
-0.78
-2.13
-3.68
-5.65
-8.05
-10.74
-13.51
-16.10
-18.37
-20.27
-21.82
-23.14
-24.46
-26.01
-27.90
-29.96
-31.71
-32.57
-32.07
-30.06
-26.69
-22.25
-16.88
-10.56
-3.17
5.16
13.80
21.70
27.72
31.10
31.82
30.50
28.12
25.57
23.40
21.79
20.67
19.89
19.29
18.73
18.08
17.20
16.03
14.55
12.86
11.09
9.40
7.90
6.58
5.40
4.18
2.71
0.83
-1.54
-4.29
-7.19
-9.97
-12.42
-14.48
-16.25
-17.90
-19.55
-21.20
-22.79
-24.31
-25.88
-27.73
-30.10
-32.92
-35.75
-37.76
-38.11
-36.26
-32.12
-26.06
-18.64
-10.39
-1.73
6.98
15.26
22.55
28.24
31.97
33.74
33.96
33.18
31.84
30.06
27.78
24.87
21.46
17.99
15.05
13.13
12.36
12.43
12.74
12.68
11.83
10.15
7.90
5.50
3.32
1.57
0.23
-0.90
-2.08
-3.59
-5.52
-7.77
-10.11
-12.32
-14.29
-16.05
-17.75
-19.42
-21.07
-22.65
-24.20
-25.89
-27.76
-29.62
-30.97
-31.17
-29.71
-26.45
-21.60
-15.48
-8.40
-0.48
8.07
16.89
25.25
32.32
37.32
39.90
40.18
38.69
36.13
33.14
30.19
27.55
25.32
23.50
22.04
20.97
20.33
20.16
20.38
20.71
20.75
20.08
18.42
15.78
12.35
8.49
4.55
0.87
-2.35
-4.97
-7.05
-8.78
-10.54
-12.61
-15.12
-17.99
-21.05
-24.15
-27.25
-30.24
-32.80
-34.41
-34.39
-32.25
-27.85
-21.48
-13.74
-5.27
3.36
11.71
19.31
25.64
30.23
32.79
33.38
32.41
30.46
28.07
25.57
23.13
20.82
18.75
17.08
15.98
15.53
15.55
15.69
15.44
14.40
12.46
9.87
7.07
4.53
2.42
0.58
-1.34
-3.65
-6.48
-9.67
-12.98
-16.16
-19.09
-21.74
-24.13
-26.33
-28.41
-30.61
-33.10
-35.86
-38.54
-40.46
-40.87
-39.29
-35.67
-30.34
-23.75
-16.19
-7.82
1.16
10.18
18.30
24.32
27.30
26.97
23.83
19.11
14.15
10.01
7.13
5.31
3.92
2.33
0.16
-2.52
-5.25
-7.50
-8.91
-9.51
-9.67
-9.96
-10.87
-12.83
-16.12
-20.95
-27.35
-34.81
-41.98
-46.69
-46.60
-40.10
-27.36
-10.45
7.26
22.51
33.43
40.01
43.62
45.84
47.47
48.21
47.24
44.05
39.04
33.25
27.70
22.63
17.54
11.69
4.87
-2.11
-7.69
-10.31
-9.09
-4.31
2.79
10.47
16.94
20.65
20.45
15.64
6.23
-6.86
-21.63
-35.31
-44.94
-48.16
-43.83
-32.28
-15.17
4.95
25.21
43.06
56.60
64.85
67.72
65.76
59.93
51.27
40.76
29.16
17.01
4.65
-7.63
-19.52
-30.67
-40.62
-48.77
-54.41
-56.75
-55.25
-49.88
-41.33
-31.00
-20.48
-11.18
-3.82
1.61
5.57
8.57
10.91
12.58
13.46
13.48
12.81
11.76
10.66
9.75
9.08
8.71
8.58
8.73
9.18
9.92
10.87
11.79
12.33
12.12
10.93
8.78
5.97
2.92
0.03
-2.54
-4.78
-6.80
-8.66
-10.36
-11.83
-13.01
-13.92
-14.64
-15.28
-16.00
-16.88
-18.03
-19.51
-21.28
-23.12
-24.59
-25.18
-24.49
-22.42
-19.16
-15.05
-10.37
-5.26
0.28
6.14
12.02
17.40
21.75
24.71
26.23
26.59
26.25
25.64
24.99
24.23
23.16
21.50
19.21
16.45
13.61
11.11
9.11
7.47
5.84
3.94
1.70
-0.60
-2.61
-4.07
-5.01
-5.79
-6.78
-8.27
-10.21
-12.35
-14.31
-15.82
-16.84
-17.57
-18.35
-19.36
-20.52
-21.46
-21.79
-21.29
-20.16
-18.90
-18.11
-18.15
-19.01
-20.42
-21.99
-23.43
-24.50
-25.05
-24.89
-23.84
-21.86
-18.98
-15.36
-11.15
-6.41
-1.19
4.33
9.76
14.65
18.55
21.27
22.91
23.74
24.13
24.28
24.18
23.72
22.69
21.08
19.07
17.04
15.46
14.64
14.60
15.01
15.36
15.19
14.31
12.84
11.20
9.78
8.89
8.48
8.30
7.94
7.01
5.29
2.81
-0.19
-3.31
-6.19
-8.56
-10.35
-11.62
-12.54
-13.27
-13.98
-14.85
-16.05
-17.71
-19.77
-21.85
-23.36
-23.71
-22.60
-20.17
-16.88
-13.24
-9.59
-5.99
-2.34
1.38
4.98
8.19
10.74
12.58
13.88
14.91
15.82
16.59
17.00
16.85
16.04
14.63
12.88
11.15
9.80
9.08
8.96
9.16
9.21
8.75
7.62
6.06
4.44
3.12
2.23
1.64
1.06
0.27
-0.84
-2.20
-3.70
-5.26
-6.91
-8.71
-10.66
-12.64
-14.42
-15.80
-16.65
-17.08
-17.30
-17.64
-18.37
-19.67
-21.50
-23.57
-25.37
-26.27
-25.78
-23.69
-20.23
-15.90
-11.28
-6.85
-2.79
0.85
4.01
6.60
8.46
9.57
10.13
10.57
11.38
12.82
14.81
16.89
18.46
19.04
18.46
16.91
14.88
12.86
11.17
9.86
8.73
7.53
6.11
4.57
3.18
2.22
1.72
1.47
1.04
0.08
-1.54
-3.64
-5.88
-7.88
-9.40
-10.44
-11.09
-11.54
-11.95
-12.43
-13.02
-13.68
-14.27
-14.58
-14.43
-13.82
-13.08
-12.75
-13.27
-14.75
-16.74
-18.43
-19.03
-18.18
-16.11
-13.46
-10.81
-8.35
-5.81
-2.73
1.13
5.54
9.86
13.39
15.75
16.95
17.35
17.37
17.29
17.21
17.08
16.86
16.45
15.81
14.89
13.72
12.42
11.19
10.25
9.77
9.77
10.18
10.78
11.35
11.68
11.60
11.09
10.21
9.08
7.83
6.46
4.93
3.26
1.48
-0.29
-1.95
-3.51
-5.05
-6.70
-8.51
-10.36
-12.04
-13.42
-14.56
-15.68
-16.96
-18.36
-19.54
-20.04
-19.53
-18.04
-15.91
-13.56
-11.16
-8.62
-5.58
-1.84
2.53
7.07
11.22
14.50
16.82
18.35
19.38
20.02
20.14
19.52
18.02
15.79
13.29
11.15
9.90
9.67
10.25
11.08
11.57
11.30
10.13
8.25
6.01
3.84
2.08
0.85
0.14
-0.32
-0.84
-1.70
-3.00
-4.64
-6.40
-8.11
-9.68
-11.13
-12.45
-13.56
-14.29
-14.53
-14.40
-14.29
-14.78
-16.33
-18.93
-21.99
-24.46
-25.38
-24.23
-21.26
-17.25
-13.03
-9.09
-5.36
-1.48
2.85
7.52
12.04
15.81
18.46
19.98
20.65
20.75
20.37
19.43
17.76
15.35
12.45
9.54
7.18
5.70
4.92
4.08
2.02
-2.22
-8.96
-17.51
-26.35
-33.80
-38.79
-41.37
-42.50
-43.35
-44.31
-44.56
-42.43
-36.27
-25.55
-11.46
3.42
15.98
23.81
25.97
23.21
17.34
10.38
3.67
-2.66
-9.42
-17.67
-27.54
-37.49
-44.51
-45.30
-38.02
-23.69
-6.08
9.79
19.82
22.68
20.08
15.34
11.28
8.83
6.75
2.94
-3.94
-13.82
-25.87
-39.77
-56.45
-77.28
-102.01
-126.98
-145.33
-149.94
-137.66
-111.96
-82.07
-58.68
-48.26
-49.66
-54.97
-54.32
-41.70
-18.35
8.18
28.58
36.91
33.37
23.12
12.74
6.80
6.31
9.60
14.23
18.29
20.60
20.47
17.73
13.25
9.31
8.97
14.23
24.24
34.96
41.35
40.53
33.75
25.43
19.75
17.36
14.93
8.19
-3.88
-17.01
-23.65
-18.05
-0.49
22.01
39.19
42.88
30.49
4.59
-30.69
-73.23
-123.68
-183.07
-249.16
-314.62
-368.82
-402.14
-410.17
-395.27
-364.78
-327.22
-288.74
-251.75
-215.73
-179.20
-141.45
-102.93
-64.54
-26.57
11.92
52.82
97.91
147.68
200.39
251.96
297.37
332.81
357.66
375.06
390.43
408.73
431.58
456.19
476.51
486.17
481.44
462.82
434.39
401.72
369.37
339.54
312.05
285.48
258.41
230.31
201.71
173.77
147.82
124.62
104.07
85.39
67.54
49.50
30.25
8.58
-16.83
-46.85
-80.79
-115.61
-145.99
-165.71
-169.97
-157.26
-130.03
-93.57
-53.87
-15.74
18.09
46.45
68.72
84.16
92.06
92.31
85.92
74.98
62.11
49.70
39.14
30.44
22.32
12.88
0.41
-15.64
-34.26
-53.24
-70.25
-83.97
-94.59
-103.41
-111.59
-119.22
-125.13
-127.58
-125.60
-119.75
-112.03
-104.98
-100.48
-99.19
-100.54
-103.34
-106.37
-108.63
-109.50
-108.66
-106.18
-102.61
-98.92
-96.26
-95.50
-96.90
-100.02
-103.76
-106.70
-107.27
-103.94
-95.45
-81.16
-61.60
-38.65
-15.35
4.88
19.31
26.61
27.07
22.18
13.91
4.11
-5.75
-14.57
-21.51
-25.90
-27.38
-25.93
-21.97
-16.23
-9.75
-3.69
0.92
3.51
4.19
3.76
3.42
4.11
6.09
8.72
10.86
11.51
10.30
7.52
3.77
-0.55
-5.33
-10.50
-15.54
-19.32
-20.46
-18.08
-12.44
-4.91
2.71
9.08
13.93
17.96
22.12
26.77
31.35
34.69
35.70
33.95
29.70
23.46
15.43
5.41
-6.72
-20.26
-33.58
-44.72
-52.47
-57.23
-60.65
-64.28
-67.91
-69.03
-63.87
-49.60
-26.47
1.71
29.09
50.61
64.33
72.01
77.69
85.13
95.81
108.57
120.93
131.03
138.84
145.88
153.58
161.52
166.92
165.79
155.14
134.98
108.65
81.48
58.20
40.98
29.05
19.75
10.50
-0.01
-11.64
-23.65
-35.52
-47.17
-58.44
-68.61
-76.25
-79.94
-79.05
-74.34
-67.70
-61.32
-56.78
-54.57
-54.22
-54.84
-55.33
-54.63
-51.57
-45.09
-34.86
-21.96
-9.15
-0.02
2.58
-1.91
-11.25
-21.40
-28.50
-30.60
-28.23
-23.47
-18.35
-13.68
-9.01
-3.70
2.10
7.20
10.06
9.91
7.24
3.50
-0.04
-3.06
-6.21
-10.30
-15.37
-20.42
-23.97
-25.16
-24.48
-23.62
-24.35
-27.29
-31.30
-34.14
-33.82
-29.80
-23.11
-15.49
-8.19
-1.40
5.18
11.35
15.76
16.56
12.91
6.21
0.04
-1.73
2.81
12.21
22.38
28.87
29.28
24.37
17.16
10.94
7.49
6.66
7.22
8.20
9.64
12.37
17.16
23.80
30.91
36.50
38.87
37.36
32.39
25.19
17.07
8.96
1.24
-6.08
-13.06
-19.57
-25.32
-30.08
-33.87
-37.06
-40.14
-43.38
-46.67
-49.59
-51.74
-52.95
-53.20
-52.43
-50.32
-46.53
-41.13
-34.95
-29.58
-26.68
-27.10
-30.34
-34.68
-38.07
-39.06
-37.48
-34.09
-29.82
-25.08
-19.63
-13.05
-5.38
2.55
9.43
14.18
16.53
17.16
17.25
17.73
18.83
20.14
21.02
21.15
20.76
20.44
20.73
21.79
23.33
24.85
25.93
26.44
26.53
26.42
26.22
25.73
24.57
22.37
18.96
14.53
9.67
5.17
1.69
-0.57
-2.01
-3.46
-5.67
-8.75
-11.88
-13.57
-12.33
-7.37
0.97
11.37
22.20
32.16
40.85
48.73
56.66
65.45
75.33
86.03
96.99
107.59
117.36
125.88
132.65
136.99
138.26
136.14
130.99
123.81
115.82
107.85
99.70
90.24
78.07
62.44
44.03
24.93
7.96
-4.51
-11.41
-13.21
-11.41
-7.81
-3.73
0.12
3.51
6.27
8.07
8.51
7.37
4.78
1.25
-2.59
-6.33
-9.93
-13.71
-18.05
-23.17
-28.82
-34.47
-39.55
-43.72
-47.02
-49.70
-51.97
-53.93
-55.50
-56.64
-57.44
-58.09
-58.66
-58.96
-58.57
-57.05
-54.26
-50.43
-46.10
-41.85
-37.98
-34.47
-31.06
-27.59
-24.19
-21.22
-19.10
-18.03
-17.82
-18.04
-18.16
-17.91
-17.29
-16.57
-16.05
-15.83
-15.75
-15.50
-14.80
-13.61
-12.16
-10.87
-10.13
-10.08
-10.61
-11.48
-12.43
-13.27
-13.97
-14.55
-15.05
-15.48
-15.83
-16.07
-16.17
-16.19
-16.23
-16.43
-16.97
-17.96
-19.40
-21.05
-22.59
-23.63
-23.93
-23.42
-22.29
-20.79
-19.07
-17.13
-14.81
-11.95
-8.62
-5.11
-1.91
0.51
1.95
2.53
2.63
2.61
2.63
2.54
2.02
0.90
-0.70
-2.36
-3.55
-3.92
-3.37
-2.01
0.06
2.85
6.35
10.27
13.89
16.20
16.20
13.46
8.27
1.60
-5.39
-11.71
-16.86
-20.67
-23.06
-23.97
-23.52
-22.21
-21.09
-21.62
-25.00
-31.55
-40.26
-48.98
-55.30
-57.57
-55.80
-51.69
-47.82
-46.34
-47.86
-51.07
-53.23
-51.13
-42.02
-24.24
2.51
36.82
75.40
113.30
144.95
165.80
173.92
170.75
160.31
147.30
135.14
124.79
115.25
104.96
93.40
81.79
72.58
68.17
69.30
74.19
78.59
77.05
65.02
40.99
7.53
-29.69
-64.30
-91.83
-111.03
-123.14
-129.91
-131.74
-127.26
-114.76
-94.01
-67.20
-38.06
-10.09
14.91
36.54
54.45
66.83
70.65
63.18
44.09
16.31
-15.07
-44.91
-69.75
-87.99
-98.93
-101.87
-96.26
-83.06
-65.85
-50.39
-42.11
-43.31
-51.59
-61.22
-66.36
-64.17
-55.79
-44.74
-34.17
-24.99
-16.12
-6.25
4.37
13.15
16.38
11.61
-0.29
-14.71
-24.98
-25.27
-13.25
9.01
36.12
61.90
81.48
92.36
93.72
85.36
67.26
40.20
7.16
-26.32
-53.54
-69.43
-72.95
-67.69
-59.91
-55.35
-56.71
-63.02
-70.76
-75.56
-74.26
-65.71
-50.96
-32.54
-13.46
3.73
17.47
27.32
34.10
39.48
45.47
53.53
63.95
75.46
85.59
91.77
92.54
88.36
81.47
74.95
71.31
71.77
76.14
83.34
91.88
99.96
105.24
104.94
96.62
79.30
54.17
24.22
-6.74
-35.19
-58.49
-75.06
-84.33
-86.74
-83.74
-77.44
-69.87
-62.16
-54.43
-46.40
-38.15
-30.34
-23.42
-16.43
-6.91
7.71
28.16
52.18
75.25
93.20
104.81
112.60
120.97
132.85
147.77
162.39
172.97
178.15
179.29
178.21
174.12
162.86
139.24
101.35
53.38
4.88
-33.65
-56.33
-64.94
-67.82
-75.42
-94.89
-127.60
-170.20
-218.33
-269.65
-323.93
-380.32
-434.34
-477.11
-498.34
-491.51
-457.77
-405.94
-348.27
-295.04
-250.36
-211.81
-173.61
-130.64
-81.10
-26.51
30.01
85.40
136.64
180.29
211.84
226.64
221.95
197.87
157.24
103.99
41.62
-26.95
-98.33
-166.90
-224.57
-262.09
-273.40
-258.67
-224.68
-181.73
-139.31
-102.61
-71.56
-42.36
-9.42
30.22
75.32
121.43
163.68
198.68
224.94
241.70
248.27
245.79
235.33
218.76
199.87
184.71
179.33
186.97
206.24
232.79
264.28
298.94
334.58
367.50
393.04
406.15
403.39
384.08
337.38
266.02
185.73
115.74
65.77
34.45
15.27
2.81
-7.72
-19.12
-31.27
-44.97
-62.81
-89.13
-124.14
-166.84
-208.34
-240.62
-259.27
-263.43
-256.42
-242.76
-226.70
-209.76
-192.20
-173.86
-156.24
-141.55
-130.36
-122.50
-117.43
-115.61
-115.91
-115.56
-110.07
-95.70
-71.11
-38.53
-6.78
17.85
29.39
27.04
15.54
2.95
-3.92
-2.19
6.86
19.62
35.46
51.47
67.78
85.63
105.00
123.23
136.22
140.61
135.35
122.30
104.55
85.83
68.48
52.58
36.19
16.67
-7.88
-35.54
-65.05
-95.03
-122.82
-144.76
-156.54
-154.31
-136.35
-104.59
-64.74
-24.93
7.34
28.26
38.23
40.62
39.41
37.25
34.72
31.39
26.73
21.37
16.93
14.84
15.35
17.38
19.19
19.11
16.56
11.96
6.66
2.22
-0.40
-1.16
-0.91
-0.84
-1.99
-4.70
-8.68
-13.09
-17.05
-20.03
-22.07
-23.61
-25.27
-27.49
-30.31
-33.42
-36.26
-38.34
-39.37
-39.25
-38.10
-35.82
-32.21
-27.05
-20.28
-11.89
-2.26
7.94
17.97
27.24
35.52
42.86
49.50
55.62
61.23
66.01
69.56
71.56
71.96
71.10
69.52
68.00
67.41
68.56
71.85
76.80
81.77
84.14
81.24
71.43
55.10
34.72
14.06
-3.15
-14.58
-19.88
-20.38
-18.17
-15.16
-12.62
-11.18
-11.07
-12.38
-15.00
-18.54
-22.33
-25.62
-27.86
-28.69
-28.03
-25.83
-22.05
-16.72
-10.19
-3.23
3.08
7.83
10.77
12.51
14.15
16.65
20.27
24.42
28.01
29.99
29.86
27.81
24.62
21.43
19.14
18.28
18.68
19.50
19.46
17.98
16.10
16.38
21.61
32.67
47.26
60.46
66.49
61.15
42.98
13.11
-25.37
-67.67
-107.03
-134.90
-143.20
-128.27
-93.96
-51.76
-16.25
1.46
-1.52
-19.96
-45.14
-70.41
-93.91
-117.40
-142.84
-169.84
-195.66
-216.98
-231.65
-238.78
-237.65
-227.10
-205.91
-174.21
-134.31
-89.83
-43.94
2.04
48.30
94.43
137.72
173.13
195.34
201.98
195.21
181.05
166.72
157.29
153.82
153.48
151.59
144.07
129.16
107.78
82.83
57.64
35.04
16.65
2.91
-6.73
-13.48
-18.42
-21.90
-23.06
-20.28
-12.32
0.49
15.75
29.86
39.86
45.14
47.80
51.35
58.32
68.41
78.23
83.04
79.37
67.03
49.44
32.25
20.90
18.67
25.67
39.23
55.15
69.20
78.34
81.47
79.36
74.01
67.81
62.57
59.28
58.28
59.89
64.71
73.20
84.85
97.68
108.45
114.10
113.06
106.01
95.07
82.30
67.95
49.81
24.61
-9.11
-48.38
-85.17
-108.95
-111.89
-93.41
-61.22
-27.61
-3.09
8.96
13.34
18.86
31.62
50.30
67.04
73.17
65.92
51.07
39.82
41.69
58.39
82.50
101.83
105.97
91.58
63.00
28.93
-2.73
-28.52
-50.10
-71.91
-97.95
-129.12
-163.03
-195.81
-224.55
-248.93
-271.05
-294.16
-320.55
-350.28
-381.36
-410.69
-434.83
-450.50
-454.60
-444.12
-417.10
-373.70
-317.75
-256.98
-201.28
-159.41
-135.39
-126.66
-125.28
-122.08
-109.91
-86.16
-52.31
-11.65
33.38
82.85
138.24
199.62
262.06
316.53
352.48
362.27
344.44
303.96
249.89
191.89
136.96
86.60
39.33
-7.00
-52.63
-95.19
-130.94
-156.67
-171.26
-166.56
-138.73
-88.57
-22.75
49.04
117.97
178.84
229.92
271.34
303.69
325.60
337.35
339.61
334.46
325.03
314.49
304.90
296.80
289.36
279.82
266.78
249.57
229.10
207.51
187.24
170.17
157.32
148.91
144.01
141.76
141.37
142.67
145.92
151.26
158.30
166.08
173.34
178.53
180.60
179.06
174.25
167.10
158.59
149.25
138.95
127.08
112.73
95.39
75.10
52.61
29.08
5.37
-18.33
-42.73
-68.98
-97.91
-129.21
-161.13
-190.70
-214.77
-231.26
-240.23
-244.11
-246.85
-252.42
-263.15
-278.85
-297.10
-314.59
-328.80
-339.45
-348.63
-359.94
-377.19
-403.08
-438.44
-481.61
-528.03
-570.07
-598.04
-602.76
-579.38
-530.73
-468.25
-409.02
-369.76
-360.13
-378.90
-414.70
-451.11
-473.36
-473.34
-450.76
-410.86
-360.61
-305.81
-250.22
-196.35
-146.49
-103.07
-67.78
-40.30
-17.93
3.54
28.01
57.19
89.92
122.88
152.51
176.79
196.36
214.39
235.46
263.89
301.74
347.27
394.35
433.56
454.90
451.53
422.88
375.43
320.56
270.20
232.45
209.59
199.08
196.91
200.98
212.68
235.68
272.99
323.99
383.25
441.42
488.17
515.29
519.11
501.05
466.33
421.67
373.03
324.29
277.27
232.80
191.82
155.99
127.24
106.73
94.13
87.67
84.96
84.16
84.73
87.46
93.68
104.18
118.48
134.61
149.63
160.52
164.95
161.83
151.25
134.20
112.05
86.24
58.17
29.28
1.13
-24.68
-46.62
-63.58
-74.95
-80.71
-81.29
-77.38
-69.85
-59.87
-49.05
-39.60
-34.12
-35.18
-44.66
-63.10
-89.49
-121.67
-156.93
-192.95
-228.30
-262.70
-296.82
-332.12
-370.67
-414.65
-465.30
-521.47
-578.77
-629.87
-666.60
-682.96
-677.63
-654.57
-621.33
-585.91
-553.84
-526.99
-504.29
-483.58
-463.29
-442.90
-422.33
-401.10
-377.93
-351.28
-320.27
-285.36
-248.41
-212.12
-179.09
-150.88
-127.69
-108.56
-91.96
-76.56
-61.64
-47.33
-34.23
-22.99
-13.85
-6.56
-0.47
5.10
10.52
15.69
20.06
22.91
23.67
22.20
18.92
14.66
10.48
7.40
6.16
7.10
10.17
14.95
20.85
27.24
33.64
39.73
45.44
50.82
55.87
60.47
64.28
66.87
67.91
67.43
65.95
64.48
64.23
66.26
71.04
78.31
87.10
96.19
104.64
112.17
119.35
127.27
137.00
149.03
163.02
177.81
191.82
203.77
213.08
220.31
227.32
237.06
252.86
277.08
309.21
344.72
375.22
390.26
380.33
339.87
269.37
175.67
70.60
-31.75
-118.22
-179.37
-211.47
-216.75
-202.17
-176.90
-149.43
-125.28
-106.25
-91.17
-77.70
-63.97
-49.29
-34.03
-18.90
-4.29
9.97
24.47
39.90
56.88
75.95
97.70
122.70
150.60
179.04
203.00
215.71
210.89
185.89
143.70
92.77
43.92
6.02
-17.47
-29.15
-35.30
-41.86
-51.42
-62.57
-71.72
-75.90
-74.51
-69.26
-62.46
-55.35
-47.40
-37.11
-23.57
-7.47
9.00
23.37
34.54
43.59
53.27
66.66
85.75
110.66
139.66
170.38
200.97
230.93
261.62
295.13
334.54
382.39
439.32
502.62
565.80
619.61
654.79
665.55
651.04
616.36
570.02
520.53
473.54
430.88
391.63
354.17
318.36
283.78
250.92
219.45
187.94
154.48
117.65
77.21
34.30
-7.16
-46.77
-82.80
-114.69
-143.55
-172.42
-205.37
-245.97
-294.86
-344.33
-389.69
-419.95
-425.25
-400.07
-345.03
-266.78
-176.42
-87.17
-6.35
48.74
70.89
58.66
17.56
-40.48
-99.82
-145.42
-166.96
-153.81
-117.59
-65.84
-6.62
54.63
116.17
179.34
246.47
270.24
306.34
339.66
361.89
365.64
347.04
307.06
250.67
184.61
114.62
51.44
-12.38
-77.85
-145.92
-216.23
-286.59
-353.20
-411.20
-455.66
-476.70
-478.31
-460.88
-427.29
-381.84
-329.35
-274.27
-220.21
-169.85
-121.13
-77.98
-38.67
-0.26
40.90
87.84
142.08
202.92
267.22
331.31
386.14
424.57
441.08
433.82
405.16
360.64
306.55
247.43
185.76
121.38
56.49
-3.30
-48.59
-69.74
-61.38
-26.02
26.00
80.02
122.39
145.43
147.61
133.28
108.55
77.93
42.70
1.56
-46.91
-101.41
-155.39
-200.65
-227.60
-230.73
-211.93
-180.81
-151.39
-136.51
-142.90
-168.25
-207.91
-254.74
-303.69
-352.32
-398.55
-438.22
-464.68
-470.95
-451.30
-409.23
-351.19
-285.41
-219.18
-156.29
-96.88
-38.98
6.70
53.74
96.74
131.58
156.70
173.61
186.70
200.24
214.88
225.31
223.64
199.11
149.44
83.71
18.81
-26.56
-39.41
-16.85
34.39
103.01
174.88
239.73
292.12
328.50
346.61
345.38
325.86
292.13
251.00
209.54
162.04
106.35
42.97
-23.52
-86.79
-142.69
-185.86
-222.04
-257.87
-297.54
-341.42
-389.03
-438.29
-484.87
-522.70
-544.73
-545.28
-520.99
-472.80
-404.11
-320.25
-226.14
-125.26
-22.73
72.47
149.66
201.82
227.53
231.78
222.32
206.70
190.03
174.24
159.14
143.43
126.89
110.03
94.24
81.01
71.29
65.24
61.86
59.60
56.96
53.42
49.09
44.73
41.24
39.39
39.31
40.46
41.78
42.30
42.16
42.25
43.78
47.15
51.14
53.43
51.97
46.76
40.18
35.39
33.77
33.90
33.39
28.80
19.84
8.83
-1.26
-9.21
-16.49
-26.14
-39.93
-56.50
-71.98
-81.80
-83.79
-79.15
-71.19
-62.53
-54.33
-45.55
-34.62
-21.18
-6.01
9.22
23.10
34.95
45.17
53.86
61.22
67.29
72.00
75.58
78.43
80.98
83.46
86.01
87.98
89.17
89.80
90.01
89.53
87.29
81.61
70.47
57.24
44.08
33.27
26.55
24.38
25.98
29.88
34.65
39.62
44.94
50.29
55.06
58.16
58.22
54.39
46.96
37.36
27.48
18.78
11.40
5.23
0.56
-1.61
0.07
6.20
15.69
25.76
33.07
34.96
31.05
23.15
14.16
6.69
2.24
1.12
3.05
7.52
13.74
20.54
26.33
29.43
28.64
23.76
15.50
5.34
-5.04
-14.06
-20.47
-23.46
-22.91
-19.63
-15.37
-12.41
-12.90
-18.08
-27.78
-40.57
-54.23
-66.59
-76.23
-82.75
-86.67
-89.00
-91.00
-93.85
-98.55
-105.76
-115.57
-127.43
-140.12
-152.15
-162.24
-169.84
-175.15
-178.96
-182.07
-184.90
-187.31
-188.79
-188.78
-186.88
-182.93
-176.91
-168.85
-158.79
-146.88
-133.41
-118.76
-103.30
-87.43
-71.60
-56.51
-43.14
-32.50
-25.14
-20.77
-18.29
-16.32
-13.90
-10.93
-8.09
-6.16
-5.25
-4.59
-2.90
0.69
5.98
11.69
16.04
17.74
16.52
13.10
8.59
3.93
-0.38
-4.12
-6.96
-8.45
-8.17
-6.10
-2.83
0.52
2.71
2.83
0.53
-3.84
-9.45
-15.19
-19.80
-22.28
-22.10
-19.47
-15.30
-11.02
-8.01
-7.24
-8.84
-12.20
-16.19
-19.52
-21.01
-19.82
-15.59
-8.49
0.69
10.65
19.82
26.75
30.57
31.18
29.22
25.62
21.30
16.88
12.80
9.53
7.74
8.19
11.29
16.50
22.36
26.92
28.63
27.06
23.02
18.02
13.43
9.90
7.24
4.86
2.41
-0.05
-2.11
-3.49
-4.33
-5.14
-6.51
-8.70
-11.49
-14.41
-17.02
-19.27
-21.50
-24.20
-27.67
-31.74
-35.68
-38.43
-38.91
-36.51
-31.26
-23.82
-15.26
-6.69
1.03
7.40
12.28
15.73
17.91
19.17
20.00
20.96
22.50
24.67
27.07
28.94
29.50
28.35
25.66
22.08
18.54
15.81
14.32
14.10
14.78
15.79
16.40
16.00
14.25
11.22
7.30
3.09
-0.86
-4.18
-6.67
-8.25
-8.92
-8.93
-8.78
-9.21
-10.93
-14.22
-18.78
-23.74
-28.12
-31.22
-32.98
-33.83
-34.36
-34.99
-35.65
-35.90
-35.06
-32.49
-27.79
-20.89
-12.16
-2.26
7.83
17.08
24.62
29.88
32.73
33.43
32.60
31.09
29.63
28.63
28.13
27.84
27.47
26.87
26.24
25.85
25.87
26.09
26.01
25.04
22.88
19.75
16.34
13.55
11.93
11.54
11.84
12.10
11.68
10.37
8.40
6.18
4.10
2.27
0.58
-1.16
-3.12
-5.23
-7.34
-9.21
-10.69
-11.82
-12.85
-14.14
-16.04
-18.70
-22.03
-25.65
-29.08
-31.83
-33.47
-33.65
-32.07
-28.53
-23.03
-15.81
-7.50
1.06
8.97
15.52
20.34
23.47
25.21
25.97
26.00
25.42
24.29
22.78
21.28
20.34
20.36
21.36
22.83
23.99
24.16
23.13
21.25
19.17
17.43
16.22
15.24
13.95
11.98
9.27
6.11
3.02
0.33
-1.84
-3.69
-5.61
-7.93
-10.75
-13.89
-16.92
-19.41
-21.14
-22.20
-22.95
-23.85
-25.23
-27.17
-29.54
-32.01
-34.15
-35.47
-35.33
-33.14
-28.42
-21.08
-11.57
-0.91
9.45
18.13
24.12
27.19
27.93
27.43
26.98
27.44
28.99
31.04
32.64
33.00
31.89
29.72
27.27
25.23
23.93
23.25
22.91
22.68
22.47
22.28
22.02
21.45
20.28
18.29
15.56
12.42
9.41
7.09
5.76
5.32
5.23
4.69
3.01
-0.05
-4.15
-8.50
-12.17
-14.48
-15.30
-15.06
-14.62
-14.84
-16.33
-19.23
-23.15
-27.37
-31.08
-33.60
-34.48
-33.51
-30.55
-25.52
-18.45
-9.68
-0.04
9.23
16.83
21.91
24.31
24.72
24.28
23.99
24.39
25.21
25.76
25.37
23.82
21.60
19.62
18.83
19.66
21.85
24.51
26.60
27.39
26.66
24.76
22.33
19.99
18.05
16.56
15.29
13.99
12.39
10.41
8.08
5.61
3.32
1.53
0.43
-0.08
-0.40
-1.08
-2.63
-5.13
-8.31
-11.57
-14.39
-16.56
-18.25
-19.89
-21.83
-24.27
-27.14
-30.20
-32.98
-34.91
-35.18
-33.02
-27.91
-19.85
-9.66
1.28
11.24
18.83
23.31
24.91
24.65
23.83
23.53
24.19
25.52
26.83
27.44
27.15
26.35
25.71
25.74
26.46
27.38
27.82
27.26
25.67
23.46
21.26
19.54
18.39
17.56
16.61
15.19
13.19
10.77
8.24
5.89
3.87
2.20
0.81
-0.38
-1.48
-2.63
-3.99
-5.78
-8.11
-10.95
-13.97
-16.78
-19.04
-20.74
-22.15
-23.80
-26.21
-29.58
-33.73
-38.06
-41.67
-43.65
-43.22
-39.92
-33.82
-25.62
-16.47
-7.82
-0.77
4.13
7.09
8.88
10.44
12.39
14.85
17.44
19.49
20.40
19.96
18.38
16.31
14.57
13.78
14.16
15.42
16.93
18.03
18.35
17.82
16.62
14.96
12.96
10.66
8.21
5.95
4.22
3.22
2.83
2.61
2.03
0.75
-1.34
-4.03
-7.05
-10.06
-12.78
-14.89
-16.10
-16.32
-15.79
-15.17
-15.27
-16.87
-20.21
-24.87
-29.72
-33.24
-34.05
-31.24
-24.81
-15.64
-5.27
4.53
12.32
17.35
19.69
20.03
19.36
18.57
18.24
18.56
19.26
19.91
19.96
19.13
17.50
15.59
14.08
13.65
14.49
16.30
18.36
19.81
20.03
18.80
16.50
13.79
11.40
9.85
9.19
9.14
9.14
8.71
7.56
5.76
3.49
1.02
-1.52
-4.06
-6.62
-9.20
-11.70
-13.99
-15.95
-17.54
-18.92
-20.39
-22.32
-24.95
-28.20
-31.56
-34.23
-35.32
-34.20
-30.72
-25.22
-18.38
-10.91
-3.44
3.55
9.62
14.32
17.34
18.61
18.51
17.74
17.04
16.76
16.73
16.40
15.26
13.20
10.62
8.28
6.80
6.40
6.80
7.48
7.95
7.87
7.13
5.74
3.87
1.78
-0.23
-1.96
-3.37
-4.59
-5.77
-6.85
-7.63
-7.92
-7.84
-7.95
-9.00
-11.51
-15.41
-19.93
-23.95
-26.58
-27.59
-27.43
-26.94
-26.89
-27.79
-29.80
-32.73
-36.20
-39.41
-41.26
-40.51
-36.33
-28.74
-18.77
-8.27
0.77
7.03
10.19
10.97
10.64
10.38
10.88
12.17
13.83
15.35
16.32
16.66
16.53
16.17
15.77
15.32
14.75
14.06
13.46
13.27
13.66
14.47
15.10
14.86
13.32
10.58
7.31
4.40
2.49
1.71
1.71
1.94
1.87
1.18
-0.21
-2.27
-4.78
-7.45
-9.89
-11.76
-13.05
-14.00
-15.10
-16.78
-19.05
-21.46
-23.14
-23.17
-20.99
-16.63
-10.66
-3.92
2.66
8.36
12.74
15.68
17.35
18.10
18.42
18.81
19.51
20.51
21.41
21.65
20.81
18.87
16.37
14.17
13.16
13.74
15.65
18.02
19.76
20.04
18.65
16.05
13.13
10.69
9.12
8.33
7.90
7.44
6.80
6.02
5.14
3.98
2.14
-0.73
-4.66
-9.07
-13.03
-15.58
-16.40
-15.86
-15.04
-15.14
-16.92
-20.46
-25.15
-29.91
-33.58
-35.17
-34.02
-29.91
-23.17
-14.64
-5.49
3.00
9.78
14.41
17.00
18.14
18.66
19.19
20.04
21.10
21.89
21.87
20.71
18.56
16.02
14.01
13.23
13.93
15.73
17.77
19.10
19.09
17.73
15.54
13.28
11.59
10.70
10.40
10.26
9.83
8.91
7.58
6.10
4.71
3.58
2.70
1.98
1.26
0.37
-0.87
-2.59
-4.73
-7.06
-9.23
-10.99
-12.39
-13.79
-15.70
-18.44
-21.99
-25.99
-29.83
-32.94
-34.84
-35.20
-33.80
-30.46
-25.09
-17.90
-9.45
-0.75
7.06
12.98
16.52
17.84
17.61
16.74
15.95
15.58
15.50
15.31
14.70
13.65
12.42
11.43
10.96
11.03
11.44
11.85
11.92
11.44
10.37
8.74
6.66
4.18
1.41
-1.44
-4.04
-6.02
-7.16
-7.51
-7.48
-7.66
-8.64
-10.62
-13.35
-16.22
-18.52
-19.79
-20.02
-19.62
-19.20
-19.37
-20.51
-22.69
-25.69
-28.91
-31.58
-32.83
-31.90
-28.44
-22.53
-14.78
-6.11
2.37
9.69
15.21
18.75
20.60
21.40
21.80
22.29
22.91
23.32
23.08
21.87
19.77
17.31
15.13
13.82
13.59
14.38
15.81
17.46
18.84
19.57
19.38
18.27
16.47
14.39
12.43
10.82
9.55
8.44
7.35
6.37
5.70
5.49
5.63
5.72
5.12
3.36
0.27
-3.80
-8.10
-11.81
-14.32
-15.56
-16.01
-16.51
-17.91
-20.66
-24.66
-29.16
-33.14
-35.54
-35.56
-32.86
-27.55
-20.11
-11.44
-2.65
5.11
10.92
14.47
16.11
16.76
17.52
19.16
21.80
24.91
27.63
29.16
29.20
28.02
26.29
24.68
23.50
22.58
21.52
19.97
17.96
15.89
14.29
13.44
13.27
13.31
12.95
11.82
9.92
7.54
5.18
3.28
2.05
1.52
1.43
1.40
0.97
-0.31
-2.59
-5.68
-9.07
-12.05
-14.06
-14.73
-14.20
-12.95
-11.78
-11.58
-12.99
-16.17
-20.44
-24.28
-25.76
-23.14
-15.76
-4.42
8.81
21.29
30.92
36.78
39.54
40.94
43.05
47.32
54.06
62.26
70.17
76.02
78.88
78.97
77.63
76.74
78.20
83.47
92.98
105.68
118.48
126.03
122.11
102.31
67.11
23.49
-16.40
-39.52
-37.52
-10.70
31.78
75.54
106.64
116.32
102.56
68.37
18.78
-41.03
-105.57
-167.87
-219.35
-252.04
-262.12
-252.68
-233.02
-214.64
-205.64
-206.74
-211.43
-209.95
-194.83
-164.44
-122.83
-76.83
-32.46
6.91
39.95
65.74
82.73
89.42
85.92
75.05
61.93
51.97
48.46
51.03
56.09
58.69
54.86
43.21
25.06
3.48
-18.16
-37.24
-52.21
-62.32
-67.20
-66.65
-60.81
-50.41
-36.72
-21.47
-6.57
6.24
15.61
20.65
21.04
17.16
10.12
1.71
-6.11
-11.73
-14.32
-13.95
-11.33
-7.44
-3.21
0.45
2.58
2.17
-1.36
-7.56
-14.66
-19.87
-20.41
-14.67
-2.95
12.73
29.41
44.32
55.43
61.53
62.20
57.73
49.34
39.22
30.14
24.55
23.58
26.54
31.24
35.25
36.91
35.91
33.04
29.37
25.67
22.19
19.05
16.51
15.07
15.02
16.08
17.37
17.87
16.88
14.43
11.08
7.45
3.74
-0.42
-5.52
-11.69
-18.29
-24.14
-28.13
-29.80
-29.60
-28.61
-28.12
-29.22
-32.57
-38.48
-46.65
-56.12
-65.19
-71.80
-74.15
-71.44
-64.19
-54.01
-42.97
-32.81
-24.64
-18.94
-15.86
-15.33
-16.95
-19.84
-22.85
-25.00
-25.92
-25.91
-25.72
-25.94
-26.66
-27.70
-29.10
-31.50
-36.10
-44.01
-55.53
-69.72
-84.67
-98.28
-109.09
-116.88
-122.50
-127.49
-133.46
-141.69
-152.96
-167.67
-185.80
-206.74
-229.32
-252.20
-274.62
-297.02
-320.73
-346.78
-374.46
-400.36
-419.14
-425.62
-417.41
-396.20
-367.21
-336.70
-308.94
-284.77
-261.91
-236.88
-207.29
-172.72
-133.89
-91.28
-44.46
7.02
62.25
118.30
170.99
216.82
254.81
286.72
315.59
343.52
370.28
393.54
410.77
421.30
427.46
433.83
444.85
462.36
484.26
505.31
519.62
523.53
517.08
503.27
486.07
467.72
447.72
423.86
394.43
360.09
323.84
289.36
258.53
230.42
201.85
169.60
132.41
91.76
51.14
14.37
-15.57
-37.38
-51.39
-59.18
-62.95
-64.76
-65.98
-66.98
-67.37
-66.55
-64.18
-60.44
-56.06
-51.80
-48.33
-45.89
-44.45
-43.85
-43.84
-44.13
-44.50
-44.74
-44.77
-44.57
-44.12
-43.27
-41.72
-39.09
-35.12
-29.93
-24.13
-18.61
-14.25
-11.41
-9.85
-8.86
-7.76
-6.29
-4.72
-3.59
-3.26
-3.63
-4.18
-4.30
-3.70
-2.59
-1.56
-1.29
-2.03
-3.63
-5.48
-6.80
-6.94
-5.46
-2.26
2.46
8.29
14.64
20.90
26.56
31.42
35.61
39.55
43.78
48.67
54.35
60.68
67.36
74.20
81.19
88.53
96.57
105.58
115.70
126.88
138.99
151.86
165.37
179.49
194.00
208.70
223.23
237.45
251.59
266.40
282.76
301.13
320.86
340.07
355.87
365.20
365.67
356.00
336.18
307.11
270.22
227.21
179.96
130.44
80.59
32.27
-12.97
-53.94
-89.84
-120.30
-145.34
-165.39
-181.25
-194.00
-204.65
-214.19
-223.55
-233.64
-245.37
-259.49
-276.34
-295.80
-317.52
-341.44
-368.32
-399.51
-435.98
-476.79
-517.84
-551.96
-570.90
-568.41
-543.07
-499.33
-446.02
-392.96
-347.80
-314.28
-292.33
-279.53
-272.40
-266.61
-256.93
-237.63
-204.58
-158.24
-105.72
-59.83
-34.61
-38.98
-72.01
-122.28
-172.16
-204.73
-210.03
-187.68
-145.02
-92.63
-39.78
7.93
48.18
80.18
103.20
116.65
121.26
120.09
118.10
120.44
129.94
145.55
162.72
175.59
179.67
173.87
160.54
143.86
127.84
114.74
104.96
97.74
92.13
87.52
83.63
80.10
76.40
71.93
66.39
59.92
53.14
46.82
41.51
37.41
34.14
31.10
27.48
22.76
16.95
10.60
4.70
0.15
-2.67
-4.18
-5.44
-7.76
-12.12
-18.77
-27.11
-35.92
-43.66
-48.75
-49.94
-46.43
-38.17
-25.77
-10.49
6.01
22.03
36.11
47.25
54.95
59.25
60.74
60.37
59.17
57.92
56.91
55.85
54.13
51.22
46.99
41.91
36.93
33.14
31.38
31.98
34.62
38.50
42.58
45.85
47.59
47.41
45.35
41.61
36.63
30.89
24.94
19.38
14.67
11.07
8.41
6.08
3.22
-0.88
-6.47
-13.12
-19.94
-25.93
-30.56
-34.01
-37.07
-40.78
-45.73
-51.84
-58.24
-63.59
-66.53
-66.04
-61.63
-53.31
-41.54
-27.17
-11.36
4.47
18.87
30.60
38.95
43.85
45.85
45.89
45.01
43.98
43.26
42.91
42.73
42.52
42.24
42.09
42.37
43.21
44.39
45.40
45.73
45.17
44.03
42.95
42.47
42.64
42.86
42.18
39.84
35.64
30.14
24.28
18.94
14.48
10.72
7.06
2.86
-2.23
-8.16
-14.51
-20.58
-25.66
-29.34
-31.71
-33.35
-35.11
-37.85
-42.03
-47.64
-54.20
-60.94
-66.91
-71.06
-72.24
-69.46
-62.09
-50.28
-35.19
-18.75
-3.14
9.87
19.50
25.87
29.83
32.30
33.92
34.86
35.00
34.29
32.90
31.33
30.16
29.80
30.30
31.31
32.39
33.19
33.70
34.13
34.71
35.33
35.51
34.62
32.27
28.56
24.13
19.80
16.13
13.26
10.85
8.32
5.19
1.16
-3.77
-9.44
-15.46
-21.28
-26.32
-30.16
-32.83
-34.85
-37.20
-40.85
-46.35
-53.58
-61.61
-68.97
-74.07
-75.54
-72.58
-65.01
-53.32
-38.55
-22.07
-5.46
9.84
22.68
32.47
39.30
43.72
46.52
48.36
49.42
49.54
48.35
45.70
41.96
37.92
34.66
32.98
33.14
34.70
36.87
38.81
40.02
40.40
40.04
39.04
37.33
34.77
31.32
27.22
22.94
19.08
15.99
13.59
11.49
9.11
6.12
2.44
-1.68
-5.97
-10.33
-14.82
-19.52
-24.36
-29.02
-33.11
-36.42
-39.15
-41.94
-45.65
-50.96
-57.99
-66.10
-73.98
-79.97
-82.52
-80.56
-73.80
-62.79
-48.62
-32.76
-16.62
-1.44
11.94
23.01
31.51
37.44
40.94
42.33
42.04
40.48
38.11
35.30
32.45
29.92
28.04
27.05
27.02
27.87
29.34
31.00
32.41
33.16
33.06
32.19
30.81
29.36
28.10
27.11
26.09
24.56
22.20
18.91
14.94
10.70
6.47
2.27
-2.04
-6.67
-11.61
-16.68
-21.55
-25.99
-29.90
-33.32
-36.35
-39.12
-41.88
-44.96
-48.76
-53.55
-59.24
-65.19
-70.31
-73.33
-73.15
-69.08
-61.03
-49.41
-35.08
-19.24
-3.26
11.41
23.56
32.47
38.01
40.62
41.04
39.96
37.89
35.12
31.91
28.59
25.65
23.62
22.86
23.40
24.85
26.66
28.28
29.47
30.24
30.71
30.85
30.47
29.25
27.04
23.98
20.55
17.37
14.79
12.82
11.02
8.85
5.85
1.89
-2.86
-8.06
-13.31
-18.21
-22.40
-25.72
-28.37
-30.97
-34.45
-39.51
-46.24
-53.80
-60.60
-64.87
-65.27
-61.41
-53.73
-43.25
-31.10
-18.23
-5.37
6.79
17.60
26.44
32.87
36.85
38.72
39.11
38.57
37.49
36.03
34.23
32.21
30.17
28.44
27.33
27.07
27.66
29.01
30.77
32.54
33.80
34.09
33.15
31.04
28.17
25.08
22.29
19.97
17.95
15.86
13.42
10.59
7.52
4.35
1.03
-2.65
-6.90
-11.57
-16.24
-20.29
-23.32
-25.43
-27.16
-29.31
-32.51
-36.98
-42.40
-48.09
-53.23
-57.05
-58.92
-58.33
-54.96
-48.62
-39.44
-27.90
-14.91
-1.70
10.29
19.85
26.25
29.46
30.20
29.62
28.71
28.09
27.67
26.94
25.45
23.22
20.84
19.20
18.95
20.04
21.69
22.80
22.60
21.03
18.77
16.80
15.83
15.89
16.38
16.52
15.72
13.84
11.21
8.36
5.73
3.48
1.57
-0.19
-1.98
-3.94
-6.08
-8.43
-11.04
-13.97
-17.22
-20.67
-24.07
-27.08
-29.49
-31.32
-32.89
-34.69
-37.09
-40.17
-43.43
-46.02
-46.88
-45.19
-40.61
-33.43
-24.50
-15.01
-6.11
1.38
7.08
11.16
14.03
16.10
17.54
18.23
17.98
16.72
14.73
12.55
10.77
9.83
9.78
10.39
11.35
12.40
13.42
14.34
15.08
15.53
15.61
15.31
14.71
13.93
13.15
12.46
11.85
11.16
10.09
8.38
5.84
2.55
-1.18
-4.99
-8.54
-11.70
-14.41
-16.66
-18.36
-19.54
-20.42
-21.44
-23.15
-25.81
-29.18
-32.62
-35.20
-36.14
-35.09
-31.93
-26.91
-20.27
-12.36
-3.71
4.97
12.73
18.86
23.06
25.67
27.34
28.62
29.58
29.59
27.75
23.41
16.68
8.64
1.02
-4.40
-6.52
-5.20
-1.20
4.27
10.01
15.17
19.22
21.92
23.13
22.88
21.44
19.25
16.95
15.00
13.61
12.61
11.57
9.97
7.46
4.00
-0.17
-4.62
-8.89
-12.62
-15.62
-17.87
-19.50
-20.61
-21.28
-21.66
-21.92
-22.46
-23.79
-26.28
-29.93
-34.27
-38.43
-41.39
-42.21
-40.23
-35.27
-27.64
-18.14
-7.98
1.51
9.18
14.34
16.94
17.51
16.91
15.95
15.19
14.78
14.53
14.08
13.18
11.83
10.34
9.28
9.15
10.15
11.98
13.97
15.48
16.12
16.03
15.63
15.36
15.31
15.25
14.74
13.51
11.63
9.51
7.63
6.21
5.16
4.06
2.56
0.43
-2.24
-5.15
-7.96
-10.42
-12.45
-14.09
-15.52
-16.85
-18.17
-19.52
-20.91
-22.38
-24.03
-26.07
-28.74
-32.02
-35.66
-38.99
-40.90
-40.34
-36.51
-29.32
-19.50
-8.46
2.15
10.93
17.20
20.96
22.75
23.20
22.81
21.79
20.16
17.98
15.46
13.02
11.10
10.01
9.71
9.88
10.00
9.58
8.45
6.70
4.69
2.74
0.86
-1.14
-3.58
-6.55
-9.61
-11.97
-12.87
-12.04
-9.96
-7.68
-6.32
-6.65
-8.70
-11.97
-15.74
-19.36
-22.55
-25.24
-27.42
-29.08
-30.18
-30.84
-31.35
-32.19
-33.70
-35.91
-38.31
-39.99
-39.88
-37.17
-31.63
-23.62
-13.99
-3.88
5.61
13.48
18.98
21.68
21.60
19.21
15.32
10.91
6.88
3.91
2.56
3.12
5.73
10.23
15.99
22.01
27.12
30.33
31.21
29.93
27.09
23.36
19.36
15.61
12.57
10.72
10.45
11.74
14.01
16.09
16.62
14.47
9.28
1.61
-7.24
-15.72
-22.50
-26.83
-28.68
-28.65
-27.68
-26.84
-27.06
-28.92
-32.51
-37.45
-42.77
-47.13
-48.99
-47.03
-40.58
-29.89
-16.20
-1.48
12.12
22.81
29.60
32.44
32.09
29.79
26.89
24.46
23.14
23.08
24.07
25.68
27.52
29.29
30.80
31.86
32.26
31.80
30.48
28.61
26.77
25.58
25.34
25.95
26.85
27.34
26.86
25.26
22.71
19.58
16.23
12.77
9.22
5.47
1.55
-2.36
-5.82
-8.27
-9.21
-8.51
-6.53
-4.28
-3.10
-4.24
-8.35
-15.11
-23.30
-31.04
-36.39
-37.85
-34.69
-27.17
-16.21
-3.36
9.68
21.37
30.77
37.55
41.97
44.54
45.67
45.55
44.23
41.88
38.94
36.08
33.71
31.76
29.57
26.22
20.79
12.13
-1.28
-21.40
-49.93
-86.77
-128.81
-169.87
-202.76
-222.48
-229.07
-227.92
-226.93
-232.33
-244.94
-259.93
-269.60
-267.78
-252.66
-226.81
-194.46
-157.91
-116.34
-67.89
-13.24
41.76
87.03
112.50
112.76
89.16
47.71
-4.97
-64.87
-130.68
-200.89
-270.62
-331.16
-372.79
-389.47
-382.06
-357.81
-326.39
-295.23
-266.91
-239.80
-211.03
-179.13
-145.05
-111.02
-78.94
-48.83
-18.84
13.29
49.00
88.02
128.42
167.63
203.64
235.92
265.83
296.01
329.23
367.47
411.52
461.00
514.39
568.94
620.74
664.97
696.94
712.58
709.55
688.09
651.05
603.14
549.72
495.79
445.09
400.45
362.15
328.07
294.84
259.11
218.05
169.43
111.78
45.15
-26.56
-97.47
-160.27
-207.05
-230.96
-228.73
-201.94
-155.58
-94.83
-20.84
64.79
157.70
250.02
331.39
391.30
422.35
423.24
399.89
365.05
328.35
292.49
254.55
209.86
155.20
90.05
16.24
-80.77
-193.89
-301.39
-383.64
-435.65
-463.40
-474.81
-475.03
-466.49
-449.19
-421.01
-383.80
-343.45
-306.68
-277.38
-255.51
-238.16
-225.62
-211.42
-189.48
-158.88
-123.66
-89.82
-61.92
-41.46
-27.01
-15.93
-4.09
12.34
33.61
56.09
74.30
83.02
78.32
62.92
38.39
8.19
-22.20
-45.42
-53.04
-37.98
2.30
63.04
132.27
193.71
234.07
247.12
235.05
205.94
169.28
132.09
97.55
66.10
36.65
9.05
-16.66
-40.91
-65.17
-91.79
-123.35
-161.87
-208.37
-262.87
-322.80
-382.92
-435.45
-471.73
-484.88
-472.16
-435.77
-381.23
-315.40
-244.32
-173.36
-108.62
-58.13
-31.39
-36.18
-74.08
-137.40
-210.29
-274.40
-316.48
-334.03
-335.26
-333.77
-340.33
-357.02
-376.85
-388.62
-383.98
-361.98
-328.98
-294.14
-264.20
-240.23
-218.78
-195.48
-168.49
-139.70
-113.09
-92.22
-78.02
-68.59
-60.33
-50.04
-36.43
-20.65
-5.45
6.23
12.73
14.34
13.08
11.68
12.28
15.63
20.98
26.71
31.32
34.10
35.43
36.42
38.30
41.70
46.51
51.95
57.12
61.43
64.79
67.58
70.27
73.17
76.22
79.17
81.78
83.96
85.92
87.93
90.32
93.53
98.15
104.78
113.50
123.32
131.97
136.58
134.90
126.66
114.12
101.32
92.50
90.27
94.81
104.19
115.65
127.03
137.47
147.14
156.51
165.76
174.80
183.95
194.69
209.39
229.91
255.55
281.71
300.56
304.03
287.67
253.38
209.21
166.35
134.83
120.33
123.56
141.77
170.74
205.73
241.14
269.85
283.69
275.71
243.24
190.01
125.81
63.64
15.82
-9.32
-8.74
15.78
59.22
114.62
173.68
226.98
264.60
277.83
261.72
217.51
153.58
83.85
23.75
-14.52
-25.90
-13.47
13.16
41.70
61.01
64.01
48.70
17.42
-24.57
-70.59
-113.73
-147.57
-166.94
-168.85
-153.36
-123.99
-87.20
-50.91
-22.39
-6.38
-4.07
-13.42
-30.30
-50.01
-68.05
-80.44
-83.54
-74.22
-50.53
-12.91
34.84
85.55
129.74
157.75
162.19
140.05
93.83
31.28
-36.39
-97.38
-142.50
-167.39
-173.00
-164.38
-148.22
-130.67
-116.01
-106.47
-102.63
-103.57
-106.66
-107.41
-100.26
-80.39
-46.29
-1.40
46.07
85.71
108.40
109.52
90.25
56.68
17.36
-19.51
-48.05
-65.43
-71.41
-67.53
-56.23
-40.34
-22.93
-7.15
3.98
8.26
5.07
-3.91
-14.69
-22.14
-21.93
-12.49
4.18
23.30
39.50
49.05
51.18
47.51
40.56
32.01
22.15
10.50
-2.84
-16.41
-27.67
-34.38
-35.96
-34.00
-31.44
-30.81
-32.81
-35.94
-37.50
-35.36
-29.19
-20.68
-12.42
-6.52
-3.59
-2.76
-2.57
-1.84
-0.16
2.21
4.83
7.22
8.92
9.39
8.06
4.68
-0.50
-6.77
-13.27
-19.28
-24.50
-29.01
-33.04
-36.96
-41.20
-46.15
-52.03
-58.48
-64.32
-67.69
-66.40
-58.76
-44.11
-23.21
1.91
28.38
53.06
73.01
85.92
90.51
86.87
76.58
62.51
48.08
36.34
28.99
26.04
26.08
27.08
27.36
26.07
23.16
19.03
14.21
9.30
5.16
2.88
3.59
7.90
15.41
24.71
33.68
40.10
42.22
39.15
31.15
19.65
7.08
-3.73
-10.38
-11.68
-8.10
-1.40
6.17
12.82
17.80
21.24
23.64
25.41
26.81
28.21
30.27
33.82
39.34
46.43
53.59
58.77
60.10
56.76
49.23
39.09
28.42
19.09
12.32
8.61
7.76
9.09
11.70
14.70
17.55
20.26
23.35
27.53
33.12
39.57
45.39
48.48
46.99
39.93
27.57
11.17
-7.63
-27.39
-47.33
-67.06
-86.23
-104.14
-119.54
-131.03
-137.46
-138.41
-134.26
-125.89
-114.17
-99.75
-83.04
-64.66
-45.58
-27.10
-10.26
4.69
18.43
32.17
46.73
61.75
75.67
86.25
91.62
91.11
85.38
76.03
64.88
53.38
42.51
32.89
25.01
19.35
16.32
16.02
18.14
21.83
25.85
28.86
29.73
27.83
23.17
16.27
7.85
-1.42
-11.16
-21.17
-31.34
-41.33
-50.61
-58.54
-64.67
-68.85
-71.31
-72.49
-72.87
-72.80
-72.43
-71.74
-70.40
-67.81
-63.10
-55.30
-43.66
-28.00
-8.96
11.90
32.37
50.06
63.00
70.17
71.72
68.81
63.19
56.57
50.05
43.95
37.91
31.32
23.74
15.31
6.70
-0.94
-6.40
-8.68
-7.38
-2.79
4.04
11.64
18.55
23.70
26.65
27.46
26.42
23.80
19.82
14.71
8.91
3.13
-1.89
-5.67
-8.23
-10.10
-12.03
-14.60
-17.93
-21.69
-25.35
-28.56
-31.36
-34.11
-37.21
-40.59
-43.58
-45.01
-43.62
-38.51
-29.41
-16.78
-1.68
14.33
29.44
41.80
49.97
53.36
52.40
48.37
42.81
36.89
31.07
25.20
19.04
12.77
7.07
2.86
0.72
0.60
1.88
3.74
5.66
7.49
9.26
10.81
11.59
10.81
7.85
2.77
-3.69
-10.28
-15.77
-19.40
-21.17
-21.64
-21.59
-21.61
-21.91
-22.36
-22.63
-22.37
-21.39
-19.76
-17.78
-15.95
-14.78
-14.61
-15.47
-16.96
-18.37
-18.85
-17.74
-14.71
-9.94
-3.95
2.54
8.86
14.58
19.49
23.61
27.04
29.83
31.95
33.15
33.12
31.54
28.29
23.55
17.89
12.10
7.06
3.37
1.15
0.07
-0.53
-1.26
-2.41
-3.79
-4.83
-4.94
-3.92
-2.17
-0.62
-0.31
-1.77
-4.76
-8.25
-10.99
-12.21
-11.99
-11.22
-10.98
-11.97
-14.16
-16.90
-19.36
-21.07
-22.04
-22.70
-23.58
-24.98
-26.92
-29.25
-31.76
-34.30
-36.76
-38.83
-39.78
-38.33
-32.90
-22.22
-6.09
14.00
34.99
53.01
64.72
68.43
64.61
55.43
43.71
31.85
21.24
12.39
5.42
0.60
-1.62
-0.92
2.46
7.45
12.50
16.11
17.50
16.91
15.42
14.32
14.41
15.64
17.17
17.80
16.68
13.57
8.97
3.78
-1.12
-5.21
-8.41
-11.02
-13.35
-15.58
-17.65
-19.39
-20.71
-21.73
-22.86
-24.55
-27.16
-30.67
-34.66
-38.41
-41.05
-41.87
-40.37
-36.36
-29.95
-21.51
-11.70
-1.39
8.43
16.88
23.36
27.62
29.78
30.08
28.73
25.81
21.31
15.38
8.49
1.55
-4.31
-8.11
-9.37
-8.28
-5.55
-2.01
1.64
4.94
7.46
8.59
7.62
4.10
-1.74
-8.66
-14.74
-18.01
-17.32
-12.78
-5.84
1.35
6.59
8.36
6.24
0.91
-6.07
-12.83
-17.82
-20.32
-20.69
-20.16
-20.24
-22.02
-25.72
-30.58
-35.26
-38.33
-38.77
-36.05
-30.21
-21.66
-11.16
0.25
11.29
20.67
27.35
30.84
31.28
29.28
25.56
20.71
15.03
8.78
2.41
-3.33
-7.58
-9.63
-9.42
-7.55
-5.07
-2.98
-1.79
-1.32
-0.97
-0.11
1.40
3.11
4.20
3.91
2.00
-1.12
-4.64
-7.77
-10.15
-11.91
-13.47
-15.17
-17.00
-18.67
-19.90
-20.70
-21.50
-22.96
-25.59
-29.45
-33.90
-37.76
-39.67
-38.47
-33.68
-25.57
-15.13
-3.80
6.98
16.03
22.73
27.09
29.60
30.98
31.83
32.35
32.27
30.97
27.72
22.13
14.35
5.26
-3.74
-11.17
-15.84
-17.26
-15.64
-11.75
-6.66
-1.40
3.21
6.60
8.45
8.61
7.02
3.81
-0.65
-5.75
-10.69
-14.65
-17.07
-17.79
-17.15
-15.82
-14.55
-14.00
-14.56
-16.32
-19.08
-22.43
-25.73
-28.13
-28.73
-26.80
-22.02
-14.66
-5.51
4.25
13.41
20.99
26.40
29.57
30.83
30.81
30.06
28.87
27.06
24.11
19.54
13.31
6.17
-0.44
-4.94
-6.19
-4.10
0.37
5.57
9.89
12.39
13.12
12.89
12.78
13.52
15.14
16.98
17.96
17.06
13.66
7.69
-0.36
-9.65
-19.11
-27.69
-34.50
-38.95
-40.96
-40.94
-39.80
-38.56
-38.03
-38.41
-39.19
-39.25
-37.34
-32.51
-24.55
-14.15
-2.71
8.13
17.01
23.24
26.90
28.60
29.11
28.98
28.34
27.00
24.64
21.16
16.90
12.66
9.47
8.20
9.18
12.04
15.83
19.30
21.42
21.66
20.08
17.19
13.62
9.88
6.22
2.67
-0.88
-4.49
-8.17
-11.78
-15.14
-18.06
-20.43
-22.34
-23.99
-25.69
-27.63
-29.79
-31.87
-33.35
-33.63
-32.20
-28.68
-22.92
-15.00
-5.29
5.50
16.33
26.00
33.41
37.87
39.35
38.39
35.91
32.75
29.40
25.84
21.69
16.64
10.84
4.98
0.19
-2.50
-2.65
-0.65
2.41
5.21
6.84
7.13
6.53
5.72
5.09
4.48
3.38
1.25
-1.94
-5.73
-9.25
-11.75
-12.88
-12.91
-12.53
-12.56
-13.60
-15.82
-18.95
-22.48
-25.75
-28.20
-29.34
-28.83
-26.42
-21.94
-15.38
-7.07
2.32
11.77
20.16
26.60
30.69
32.69
33.38
33.55
33.59
33.14
31.37
27.46
21.34
14.04
7.49
3.78
4.07
7.95
13.34
17.26
17.06
11.46
1.05
-11.93
-24.68
-34.78
-41.35
-45.48
-49.99
-58.66
-75.37
-103.30
-144.18
-197.41
-259.33
-323.13
-379.79
-420.35
-438.68
-433.52
-408.90
-372.48
-332.68
-295.81
-264.45
-237.97
-213.82
-189.23
-162.13
-130.93
-94.05
-49.67
3.46
64.65
130.23
193.83
247.87
286.28
306.88
312.07
307.66
300.13
293.92
290.12
286.90
281.35
271.55
257.72
241.80
226.17
212.06
199.05
185.66
170.81
154.93
140.05
128.85
122.74
120.86
120.38
117.93
111.43
100.96
88.29
75.62
64.35
54.72
46.58
40.03
35.59
33.56
33.24
32.89
30.55
25.16
17.17
8.35
0.86
-3.77
-5.04
-3.29
0.74
6.30
12.54
18.36
22.48
23.96
22.83
20.42
18.83
19.85
23.84
29.38
33.93
35.19
32.32
26.35
19.41
13.60
9.94
8.15
7.33
6.79
6.58
7.39
9.85
13.86
18.50
22.45
24.78
25.46
25.37
25.80
27.66
30.89
34.22
35.64
33.17
25.81
14.27
1.17
-9.52
-13.79
-9.09
4.29
22.91
40.83
51.25
48.60
29.99
-4.22
-50.76
-104.26
-158.03
-204.85
-237.90
-251.96
-244.56
-217.08
-174.83
-125.89
-79.09
-41.63
-17.55
-7.17
-7.60
-13.46
-17.86
-13.88
3.42
34.66
74.75
113.98
141.48
150.12
139.98
118.53
96.93
84.23
82.79
87.57
89.53
81.02
59.93
30.35
-0.13
-24.65
-40.16
-48.07
-52.41
-57.01
-63.57
-70.97
-76.58
-78.02
-74.70
-68.19
-61.45
-57.40
-57.46
-60.94
-65.26
-67.14
-64.17
-55.79
-43.62
-30.56
-19.50
-11.92
-7.34
-3.80
0.92
8.01
16.92
25.63
31.75
33.76
31.78
27.24
21.87
16.68
11.49
5.46
-2.08
-10.86
-19.37
-25.28
-26.36
-21.44
-11.09
2.27
15.21
24.73
29.73
31.73
34.16
40.35
51.16
63.94
73.48
74.83
66.27
50.25
31.85
15.55
2.74
-8.33
-20.22
-33.57
-46.07
-53.91
-54.62
-49.19
-41.69
-36.87
-37.09
-41.03
-44.65
-43.80
-36.69
-24.79
-11.88
-2.16
1.61
-0.99
-8.27
-17.33
-25.29
-30.15
-31.46
-30.29
-28.55
-28.23
-30.41
-34.94
-40.74
-46.32
-50.47
-52.77
-53.63
-54.03
-55.07
-57.40
-60.98
-65.25
-69.62
-73.93
-78.46
-83.34
-87.75
-89.65
-86.20
-75.13
-56.09
-31.25
-4.64
19.58
38.86
53.08
64.05
74.11
84.63
95.35
104.70
110.81
112.56
110.24
105.43
100.35
96.90
95.95
96.98
98.30
97.53
92.67
83.15
70.30
56.75
45.15
36.99
32.23
29.90
29.08
29.58
31.64
35.24
39.58
43.39
45.89
47.56
49.82
53.56
57.39
57.04
46.90
23.29
-12.52
-53.47
-89.02
-109.42
-109.98
-93.09
-67.05
-42.48
-27.86
-26.98
-38.78
-59.24
-83.59
-107.41
-126.53
-136.69
-134.10
-117.36
-89.34
-57.39
-31.09
-18.31
-21.76
-37.99
-59.54
-78.55
-89.98
-92.71
-88.24
-78.69
-65.51
-49.27
-30.61
-11.09
6.75
20.33
28.18
30.76
30.23
29.31
30.15
33.59
39.54
47.85
58.89
73.54
92.43
114.93
138.73
160.38
176.25
183.52
180.47
166.35
141.54
107.95
69.48
31.75
0.60
-20.10
-30.10
-32.84
-33.68
-37.19
-45.17
-56.41
-68.00
-77.31
-83.31
-86.57
-88.29
-89.23
-89.29
-87.97
-85.15
-81.68
-79.20
-79.38
-82.85
-88.64
-94.31
-96.97
-94.55
-86.68
-74.90
-61.90
-50.34
-41.83
-36.38
-32.76
-29.24
-24.51
-18.01
-10.07
-1.55
6.54
13.26
17.94
20.30
20.49
19.08
16.79
14.34
12.19
10.53
9.46
9.03
9.36
10.43
11.93
13.35
14.13
14.05
13.39
12.77
12.79
13.42
13.91
13.06
9.94
4.51
-2.15
-8.30
-12.28
-13.37
-12.06
-9.79
-8.21
-8.36
-10.37
-13.47
-16.51
-18.38
-18.46
-16.81
-14.10
-11.30
-9.35
-8.65
-8.72
-8.46
-6.58
-2.32
3.95
10.76
15.98
17.63
14.39
5.95
-6.77
-21.49
-34.57
-41.59
-38.66
-24.32
-0.93
25.54
47.41
58.42
56.32
43.68
26.52
11.49
2.97
1.33
3.04
2.15
-7.21
-28.58
-61.68
-102.50
-144.48
-180.79
-206.11
-217.62
-214.50
-196.89
-165.08
-119.87
-64.19
-4.03
51.99
95.15
119.71
125.06
115.69
99.11
82.80
71.33
65.40
62.56
59.60
54.29
45.95
34.86
21.32
5.33
-13.63
-35.92
-61.13
-86.58
-107.91
-120.30
-120.12
-105.92
-77.99
-39.04
6.22
51.48
92.26
126.42
153.89
175.40
191.55
203.20
210.17
211.68
206.39
196.06
183.96
172.68
162.38
151.68
141.25
133.40
131.36
135.88
147.17
162.85
178.02
186.83
176.28
141.38
86.89
33.54
-13.24
-54.49
-93.61
-128.25
-152.54
-160.04
-146.16
-112.27
-68.09
-30.17
-9.65
-8.01
-18.89
-34.73
-51.57
-68.54
-86.66
-105.73
-124.99
-141.56
-153.94
-163.54
-173.43
-184.74
-194.24
-198.63
-194.82
-185.31
-175.83
-172.80
-179.87
-195.86
-214.98
-229.16
-232.12
-221.25
-198.67
-168.71
-136.11
-104.90
-77.73
-55.97
-39.21
-27.17
-18.54
-11.89
-5.68
1.25
9.12
17.30
24.23
28.13
27.78
23.65
17.57
12.86
13.52
23.08
43.25
72.26
104.06
128.98
136.74
120.52
80.88
27.24
-24.68
-58.37
-62.75
-35.86
15.56
80.33
148.09
212.84
273.07
329.01
379.21
418.87
441.22
440.68
416.16
372.25
317.16
259.09
202.85
149.02
95.84
42.87
-6.52
-45.42
-66.70
-67.48
-51.73
-29.41
-12.49
-9.79
-23.93
-51.60
-86.96
-125.51
-165.78
-208.19
-252.01
-293.09
-324.01
-336.82
-326.42
-292.83
-241.25
-180.20
-119.19
-66.94
-30.34
-13.47
-16.55
-35.18
-60.76
-82.80
-92.30
-84.84
-61.89
-29.35
5.47
36.73
61.58
79.75
91.98
98.75
99.74
94.25
81.95
63.25
39.58
13.53
-10.90
-28.55
-34.31
-25.42
-3.81
23.11
44.35
49.87
35.58
5.99
-27.56
-52.36
-60.65
-53.27
-38.39
-26.20
-22.84
-27.12
-31.87
-28.71
-13.43
11.48
38.35
58.84
68.46
68.56
64.59
62.29
64.08
67.98
69.47
64.75
53.30
38.09
23.64
13.44
8.35
7.02
7.53
9.00
11.86
16.89
23.86
31.09
36.11
36.87
32.57
23.59
10.90
-4.27
-20.16
-34.02
-42.29
-41.93
-32.31
-16.27
0.53
12.13
15.24
10.70
2.63
-4.25
-7.16
-6.09
-2.54
2.42
9.21
19.00
31.83
45.22
54.63
55.59
46.21
28.26
6.33
