1720632249.00
64.000000
-0.00
-0.00
-0.00
-0.00
-0.00
-0.00
-0.00
-0.00
-0.00
-0.00
0.00
0.01
0.01
-0.00
-0.03
-0.05
-0.05
0.00
0.13
0.36
0.66
1.01
1.37
1.72
2.06
2.40
2.79
3.24
3.80
4.42
5.06
5.66
6.20
6.68
7.15
7.68
8.31
9.14
10.09
11.04
11.88
12.56
13.14
13.76
14.65
15.96
17.91
20.32
22.90
25.38
27.58
29.57
31.68
34.32
37.81
42.54
48.15
54.10
59.83
64.97
69.58
74.14
79.34
85.71
93.76
103.00
112.62
121.73
129.77
136.75
143.30
150.75
157.77
166.64
177.95
191.79
206.97
220.57
228.25
225.36
208.53
176.87
132.76
80.05
23.07
-34.94
-92.44
-149.16
-205.23
-260.37
-313.74
-363.87
-409.83
-450.91
-486.50
-515.74
-537.23
-549.22
-549.96
-538.37
-514.21
-478.67
-433.88
-382.45
-327.02
-269.84
-212.63
-156.66
-102.95
-52.37
-5.90
35.58
71.43
101.35
125.50
144.38
158.69
169.15
176.37
180.75
182.57
182.07
179.51
175.23
169.65
163.18
156.15
148.81
141.30
133.69
126.02
118.33
110.69
103.16
95.80
88.68
81.83
75.25
68.95
62.95
57.25
51.86
46.78
42.03
37.59
33.45
29.61
26.07
22.81
19.83
17.11
14.67
12.48
10.54
8.83
7.35
6.07
4.97
4.05
3.27
2.62
2.09
1.65
1.30
1.01
0.79
0.61
0.48
0.37
0.28
0.22
0.17
0.14
0.11
0.10
0.09
0.09
0.10
0.11
0.12
0.15
0.17
0.21
0.24
0.28
0.32
0.37
0.41
0.46
0.51
0.55
0.61
0.66
0.72
0.78
0.85
0.92
1.00
1.09
1.19
1.30
1.42
1.56
1.72
1.89
2.08
2.30
2.53
2.80
3.08
3.40
3.75
4.14
4.55
5.00
5.49
6.02
6.58
7.19
7.84
8.54
9.27
10.06
10.88
11.76
12.67
13.64
14.66
15.76
16.91
18.12
19.38
20.66
21.91
23.04
23.99
24.63
24.83
24.49
23.50
21.80
19.39
16.30
12.59
8.43
4.01
-0.49
-4.81
-8.77
-12.19
-14.95
-16.99
-18.33
-19.02
-19.14
-18.79
-18.05
-17.02
-15.74
-14.32
-12.82
-11.31
-9.79
-8.33
-6.92
-5.51
-4.04
-2.48
-0.79
0.97
2.77
4.61
6.38
8.07
9.78
11.62
13.68
15.94
18.30
20.64
22.91
24.86
26.53
28.14
29.98
32.22
34.86
37.65
40.29
42.60
44.13
44.94
45.44
46.15
47.39
49.10
50.86
52.06
52.27
50.73
47.41
42.69
37.02
30.53
22.69
12.16
-3.44
-22.07
-44.01
-69.67
-99.03
-130.89
-162.47
-189.65
-207.98
-214.22
-207.51
-190.46
-167.32
-142.45
-118.99
-98.25
-80.14
-64.14
-49.95
-37.66
-28.01
-21.13
-16.50
-13.26
-10.58
-8.01
-5.48
-3.23
-1.45
-0.50
-0.41
-0.96
-1.94
-3.34
-5.38
-8.45
-12.73
-17.93
-23.36
-27.91
-30.39
-29.95
-26.25
-19.44
-10.02
1.26
13.55
25.73
36.78
45.90
52.79
57.63
60.91
63.08
64.42
64.99
64.87
64.24
63.31
62.07
60.12
56.85
51.84
45.34
38.33
32.09
27.46
24.35
21.83
18.74
14.48
9.31
4.04
-0.64
-4.71
-8.82
-13.84
-20.19
-27.59
-35.27
-42.36
-48.35
-53.03
-56.31
-57.90
-57.19
-53.41
-46.04
-35.03
-21.03
-5.31
10.49
24.74
36.21
44.42
49.67
52.76
54.57
55.56
55.67
54.52
51.87
47.98
43.62
39.77
37.08
35.53
34.52
33.18
30.94
27.73
24.01
20.29
16.84
13.45
9.70
5.25
0.21
-4.97
-9.79
-14.16
-18.60
-23.95
-30.88
-39.17
-47.63
-54.42
-57.82
-57.00
-52.33
-44.97
-36.24
-26.96
-17.28
-7.03
3.86
14.97
25.36
33.93
39.77
42.51
42.42
40.34
37.36
34.54
32.49
31.28
30.46
29.36
27.45
24.63
21.15
17.42
13.61
9.57
5.06
0.02
-5.26
-10.29
-14.69
-18.50
-22.25
-26.75
-32.67
-40.33
-49.61
-60.06
-71.09
-82.06
-92.20
-100.61
-106.47
-109.22
-108.97
-106.53
-103.30
-100.66
-99.56
-100.19
-102.15
-104.91
-108.16
-112.25
-118.02
-126.34
-137.38
-149.91
-161.07
-166.92
-163.69
-149.26
-124.14
-91.42
-55.51
-20.44
11.59
40.69
68.62
97.65
129.73
166.30
208.19
255.01
304.25
350.74
387.64
409.09
413.09
402.96
386.05
370.16
359.64
353.59
347.17
335.07
314.89
288.31
259.57
232.58
208.83
187.44
166.74
146.11
126.45
109.06
94.07
79.50
61.92
38.42
8.59
-24.80
-56.96
-83.35
-101.80
-113.20
-120.50
-126.94
-134.44
-143.30
-152.74
-161.84
-169.96
-176.43
-180.31
-180.35
-175.80
-167.18
-156.57
-146.76
-139.96
-136.81
-136.44
-137.39
-138.78
-140.55
-142.85
-145.01
-145.10
-140.49
-129.23
-111.33
-89.05
-66.01
-45.75
-30.42
-20.38
-14.73
-12.10
-11.18
-10.77
-9.61
-6.37
-0.13
8.92
19.08
27.72
32.34
31.89
27.32
21.02
15.36
11.30
7.89
3.12
-4.55
-15.00
-26.27
-35.57
-40.71
-41.04
-37.40
-31.49
-25.01
-19.32
-15.49
-14.52
-17.29
-24.13
-34.35
-46.04
-56.42
-62.67
-62.88
-56.66
-45.29
-31.15
-17.01
-5.19
2.97
7.23
8.26
7.19
5.35
3.93
3.92
5.94
9.97
15.24
20.34
23.65
24.01
21.19
16.04
10.08
4.85
1.39
-0.01
0.18
1.08
1.73
1.37
-0.30
-3.06
-6.31
-9.40
-12.02
-14.43
-17.36
-21.58
-27.29
-33.77
-39.64
-43.43
-44.28
-42.33
-38.46
-33.63
-28.19
-21.76
-13.59
-3.36
8.17
19.22
27.65
32.02
32.26
29.75
26.65
24.93
25.70
28.97
33.90
39.22
43.60
45.92
45.45
42.04
36.24
29.13
22.00
15.79
10.76
6.54
2.60
-1.31
-4.93
-7.77
-9.57
-10.66
-12.01
-14.77
-19.82
-27.26
-36.25
-45.39
-53.00
-57.70
-58.64
-55.62
-49.07
-39.80
-28.84
-17.15
-5.55
5.35
15.07
23.18
29.24
32.94
34.28
33.71
32.13
30.59
29.78
29.71
29.69
28.75
26.27
22.40
18.06
14.39
12.13
11.09
10.43
9.09
6.48
2.72
-1.45
-5.22
-8.10
-10.16
-11.90
-14.00
-17.05
-21.33
-26.83
-33.32
-40.30
-47.03
-52.51
-55.57
-55.02
-50.00
-40.19
-25.98
-8.49
10.57
29.18
45.36
57.55
64.89
67.41
65.98
61.99
56.97
52.10
48.00
44.79
42.31
40.42
39.07
38.39
38.48
39.37
40.90
42.66
44.13
44.77
44.25
42.67
40.53
38.64
37.82
38.69
41.59
46.56
53.33
61.28
69.47
76.91
83.21
89.11
96.40
106.94
121.11
136.51
147.96
148.92
134.09
101.70
54.24
-2.46
-61.54
-117.25
-166.03
-206.39
-238.24
-262.23
-279.59
-292.00
-301.19
-308.10
-312.08
-310.85
-301.33
-281.20
-250.44
-211.98
-171.18
-134.14
-105.68
-87.73
-78.73
-74.31
-68.95
-58.22
-40.56
-17.89
5.32
24.18
35.48
38.92
36.72
32.13
27.83
25.16
24.58
26.53
32.03
42.19
57.18
75.30
93.00
106.14
111.75
109.43
101.46
91.88
84.76
82.61
85.51
91.24
96.25
97.09
91.90
81.17
67.71
55.48
47.93
46.34
49.36
53.58
55.25
51.87
43.13
30.75
17.39
5.42
-3.90
-10.51
-15.24
-19.16
-23.29
-28.50
-35.48
-44.53
-55.28
-66.37
-75.50
-80.15
-78.62
-71.12
-60.20
-50.23
-46.01
-51.19
-66.96
-91.73
-121.63
-151.57
-176.42
-191.97
-195.56
-186.33
-165.24
-134.76
-98.21
-59.05
-19.92
17.88
54.72
92.35
132.89
177.41
224.74
271.07
310.87
338.67
350.88
346.71
327.81
297.08
257.42
211.30
161.14
109.85
61.07
18.55
-14.87
-38.00
-51.32
-56.45
-55.31
-49.65
-41.01
-30.79
-20.26
-10.36
-1.65
5.65
11.45
15.56
17.58
17.12
14.02
8.55
1.48
-6.19
-13.35
-19.04
-22.56
-23.59
-22.22
-18.98
-14.77
-10.70
-7.72
-6.37
-6.69
-8.27
-10.60
-13.34
-16.39
-19.79
-23.48
-27.18
-30.46
-32.95
-34.64
-35.89
-37.24
-39.04
-41.24
-43.31
-44.48
-43.92
-41.07
-35.60
-27.53
-17.17
-5.09
7.84
20.57
32.01
41.27
47.82
51.59
52.87
52.15
50.02
46.98
43.48
39.92
36.67
33.98
31.92
30.33
28.82
26.81
23.74
19.26
13.37
6.52
-0.42
-6.43
-10.71
-12.99
-13.75
-14.04
-15.14
-18.05
-23.20
-30.31
-38.61
-47.07
-54.64
-60.37
-63.42
-63.13
-59.01
-51.00
-39.61
-25.92
-11.47
2.10
13.50
22.15
28.15
32.12
34.78
36.53
37.39
37.15
35.76
33.49
30.90
28.56
26.75
25.39
24.15
22.71
20.87
18.64
15.98
12.80
8.94
4.46
-0.27
-4.44
-7.18
-8.08
-7.50
-6.74
-7.50
-11.18
-18.30
-28.08
-38.86
-48.52
-55.26
-57.98
-56.45
-51.08
-42.70
-32.32
-20.91
-9.36
1.63
11.57
20.20
27.31
32.70
36.17
37.58
36.96
34.66
31.39
28.04
25.46
24.25
24.44
25.58
26.80
27.17
25.98
22.95
18.27
12.60
6.79
1.68
-2.25
-5.04
-7.22
-9.62
-12.92
-17.44
-23.06
-29.46
-36.37
-43.73
-51.53
-59.39
-66.25
-70.50
-70.52
-65.37
-55.34
-41.90
-27.07
-12.71
0.16
11.40
21.42
30.57
38.67
45.01
48.60
48.81
45.73
40.27
33.85
27.87
23.24
20.26
18.72
18.20
18.24
18.44
18.33
17.36
15.01
11.03
5.62
-0.51
-6.43
-11.28
-14.67
-16.76
-18.33
-20.51
-24.46
-30.96
-39.99
-50.49
-60.54
-67.88
-70.73
-68.38
-61.36
-51.09
-39.15
-26.72
-14.35
-2.26
9.28
19.70
28.26
34.53
38.58
41.04
42.56
43.41
43.29
41.60
38.02
32.95
27.47
22.85
20.00
19.02
19.32
19.99
20.26
19.67
18.09
15.47
11.84
7.32
2.24
-2.95
-7.84
-12.46
-17.43
-23.71
-31.93
-41.79
-51.70
-59.20
-61.94
-58.75
-50.24
-38.55
-26.35
-15.64
-7.02
0.14
6.98
14.17
21.48
27.92
32.36
34.19
33.68
31.78
29.71
28.50
28.64
30.05
32.12
34.04
35.09
34.87
33.40
31.02
28.13
24.97
21.48
17.38
12.47
6.81
0.82
-4.90
-9.81
-13.76
-16.99
-20.06
-23.59
-27.97
-33.22
-38.94
-44.41
-48.62
-50.28
-48.01
-40.41
-26.54
-6.35
18.96
47.12
75.32
101.00
122.34
138.72
150.50
158.76
164.85
170.02
175.17
180.38
184.75
186.29
182.35
170.42
148.90
117.61
77.65
30.93
-20.29
-73.58
-126.24
-175.28
-217.78
-251.53
-275.53
-290.02
-296.16
-295.46
-289.45
-279.77
-268.16
-256.28
-244.95
-233.62
-220.52
-203.61
-181.93
-156.44
-129.65
-104.27
-81.76
-61.80
-42.87
-23.63
-3.87
15.40
32.67
46.90
57.87
65.90
71.25
73.82
73.44
70.42
65.92
61.65
59.08
58.60
59.30
59.53
57.91
54.13
49.09
44.21
40.46
37.65
34.50
29.44
21.72
11.98
2.18
-5.59
-10.33
-12.87
-15.64
-21.33
-31.24
-44.20
-56.84
-64.96
-65.50
-57.93
-44.32
-28.17
-12.62
0.82
12.39
23.19
33.97
44.37
53.13
58.94
61.29
60.80
58.91
57.07
56.04
55.66
55.18
53.79
51.18
47.67
43.95
40.70
38.09
35.75
32.87
28.74
23.12
16.42
9.55
3.43
-1.51
-5.59
-9.74
-15.05
-22.21
-31.21
-41.27
-51.18
-59.53
-65.08
-66.87
-64.25
-57.06
-45.67
-31.07
-14.69
1.95
17.64
31.68
43.83
54.03
62.15
67.87
70.94
71.40
69.78
66.98
63.92
61.18
58.78
56.36
53.58
50.39
47.18
44.42
42.35
40.54
38.10
34.02
27.84
20.01
11.78
4.61
-0.62
-4.07
-6.93
-10.72
-16.51
-24.43
-33.59
-42.59
-50.16
-55.57
-58.67
-59.52
-58.00
-53.63
-45.81
-34.28
-19.68
-3.67
11.54
23.96
32.59
37.82
41.01
43.65
46.48
49.13
50.46
49.46
46.03
41.24
36.83
34.21
33.77
34.65
35.29
34.35
31.24
26.39
20.74
15.17
9.99
4.94
-0.44
-6.43
-12.79
-18.98
-24.57
-29.68
-35.05
-41.63
-49.83
-59.06
-67.62
-73.30
-74.26
-69.72
-60.16
-47.00
-31.97
-16.56
-1.81
11.60
23.21
32.64
39.69
44.39
47.06
48.17
48.14
47.20
45.38
42.65
39.10
35.09
31.22
28.03
25.81
24.30
22.83
20.61
17.16
12.59
7.54
2.72
-1.50
-5.32
-9.42
-14.43
-20.58
-27.55
-34.70
-41.48
-47.83
-54.02
-60.25
-66.11
-70.35
-71.19
-67.01
-57.18
-42.52
-25.11
-7.53
8.04
20.49
29.84
36.90
42.58
47.44
51.44
54.19
55.32
54.82
53.08
50.77
48.46
46.37
44.32
41.91
38.84
35.13
31.08
27.03
23.09
18.96
14.10
8.13
1.15
-6.22
-13.16
-19.17
-24.48
-30.02
-36.95
-45.93
-56.53
-67.17
-75.55
-79.52
-77.85
-70.61
-58.96
-44.63
-29.26
-14.10
0.09
12.84
23.92
33.26
40.90
46.98
51.51
54.40
55.41
54.39
51.52
47.33
42.57
37.93
33.88
30.63
28.16
26.36
24.93
23.37
20.97
17.08
11.44
4.49
-2.71
-8.84
-12.99
-15.10
-16.14
-17.72
-21.38
-27.98
-37.26
-47.89
-57.96
-65.57
-69.38
-68.84
-64.15
-56.02
-45.33
-33.00
-19.89
-6.77
5.71
16.98
26.62
34.27
39.72
42.97
44.27
44.10
42.98
41.31
39.20
36.65
33.70
30.66
28.08
26.39
25.58
25.03
23.73
20.81
16.04
9.95
3.51
-2.38
-7.34
-11.55
-15.51
-19.66
-24.19
-29.20
-34.85
-41.47
-49.29
-57.96
-66.28
-72.27
-73.84
-69.64
-59.80
-45.97
-30.66
-16.26
-4.12
5.72
14.16
22.28
30.53
38.45
44.91
48.76
49.48
47.46
43.85
40.01
36.88
34.72
33.12
31.44
29.29
26.63
23.70
20.61
17.13
12.79
7.26
0.74
-5.96
-11.78
-15.99
-18.74
-21.07
-24.52
-30.37
-39.00
-49.60
-60.38
-69.20
-74.29
-74.73
-70.64
-62.94
-52.82
-41.31
-29.03
-16.25
-3.27
9.42
21.00
30.65
37.85
42.67
45.68
47.57
48.78
49.27
48.73
46.87
43.86
40.32
37.03
34.49
32.61
30.74
28.07
24.09
18.90
13.11
7.56
2.79
-1.11
-4.50
-8.01
-12.21
-17.46
-23.87
-31.34
-39.61
-48.20
-56.41
-63.26
-67.56
-68.27
-64.79
-57.23
-46.51
-34.04
-21.28
-9.23
1.76
11.87
21.43
30.51
38.68
45.16
49.19
50.42
49.17
46.38
43.24
40.71
39.17
38.35
37.56
36.07
33.51
30.00
25.91
21.58
17.07
12.19
6.77
0.98
-4.70
-9.69
-13.66
-16.85
-19.93
-23.80
-29.12
-36.05
-44.15
-52.46
-59.67
-64.41
-65.53
-62.44
-55.38
-45.40
-34.01
-22.57
-11.82
-1.68
8.31
18.39
28.05
36.19
41.67
44.02
43.75
42.12
40.42
39.27
38.37
36.97
34.39
30.62
26.33
22.46
19.63
17.76
16.15
13.81
10.04
4.79
-1.36
-7.43
-12.55
-16.37
-19.22
-21.91
-25.41
-30.42
-37.07
-44.86
-52.91
-60.04
-65.18
-67.39
-66.11
-61.14
-52.69
-41.36
-28.08
-13.99
-0.28
11.99
22.04
29.56
34.59
37.49
38.74
38.80
38.09
36.95
35.67
34.45
33.33
32.16
30.64
28.53
25.78
22.52
18.99
15.27
11.24
6.67
1.46
-4.11
-9.43
-13.82
-17.04
-19.49
-22.20
-26.33
-32.53
-40.61
-49.51
-57.74
-63.95
-67.25
-67.28
-64.00
-57.45
-47.76
-35.38
-21.25
-6.74
6.66
17.91
26.67
33.36
38.71
43.27
47.07
49.75
50.80
50.09
48.00
45.25
42.49
39.91
37.29
34.19
30.41
26.13
21.79
17.75
13.99
10.08
5.51
0.02
-6.05
-11.94
-16.88
-20.60
-23.56
-26.82
-31.52
-38.27
-46.68
-55.37
-62.40
-65.97
-65.06
-59.77
-51.10
-40.44
-28.97
-17.38
-5.91
5.33
16.00
25.44
32.92
38.00
40.77
41.83
42.02
41.95
41.74
41.11
39.65
37.23
34.15
31.01
28.39
26.43
24.80
22.87
20.05
16.17
11.48
6.54
1.86
-2.35
-6.20
-10.04
-14.21
-18.93
-24.26
-30.16
-36.52
-43.15
-49.64
-55.33
-59.33
-60.71
-58.80
-53.44
-45.05
-34.53
-22.95
-11.25
-0.08
10.23
19.45
27.36
33.65
38.09
40.59
41.35
40.74
39.20
37.10
34.69
32.19
29.83
27.83
26.29
25.12
23.90
22.15
19.44
15.71
11.17
6.29
1.48
-3.07
-7.34
-11.49
-15.68
-20.06
-24.85
-30.37
-36.88
-44.37
-52.20
-59.11
-63.47
-63.88
-59.78
-51.74
-41.21
-29.88
-19.00
-9.04
0.26
9.36
18.44
27.14
34.68
40.22
43.26
43.88
42.65
40.41
37.89
35.55
33.47
31.48
29.34
26.86
24.03
20.89
17.53
14.00
10.39
6.78
3.28
-0.08
-3.39
-6.93
-11.04
-15.95
-21.68
-28.04
-34.77
-41.67
-48.61
-55.30
-61.09
-64.95
-65.74
-62.68
-55.76
-45.84
-34.29
-22.46
-11.15
-0.50
9.71
19.68
29.13
37.37
43.55
47.12
48.15
47.30
45.46
43.44
41.56
39.68
37.47
34.70
31.47
28.14
25.12
22.50
20.04
17.18
13.43
8.63
3.10
-2.55
-7.70
-12.04
-15.74
-19.41
-23.83
-29.63
-36.97
-45.37
-53.73
-60.58
-64.48
-64.50
-60.49
-53.09
-43.45
-32.76
-21.82
-10.94
-0.11
10.61
20.85
29.87
36.86
41.32
43.34
43.50
42.61
41.30
39.86
38.24
36.25
33.81
31.08
28.44
26.19
24.46
22.97
21.12
18.30
14.19
8.98
3.33
-1.92
-6.20
-9.53
-12.50
-16.05
-20.89
-27.24
-34.73
-42.59
-49.92
-55.92
-59.92
-61.31
-59.54
-54.26
-45.59
-34.24
-21.47
-8.78
2.55
11.83
19.06
24.72
29.39
33.36
36.51
38.44
38.83
37.68
35.43
32.71
30.14
28.02
26.33
24.91
23.64
22.50
21.47
20.32
18.55
15.57
11.07
5.36
-0.64
-5.78
-9.33
-11.43
-13.09
-15.76
-20.52
-27.56
-36.04
-44.47
-51.35
-55.65
-56.96
-55.38
-51.18
-44.63
-36.02
-25.77
-14.57
-3.34
7.02
15.88
23.04
28.72
33.28
36.92
39.55
40.83
40.48
38.57
35.61
32.41
29.66
27.58
25.91
24.14
21.94
19.31
16.54
13.89
11.27
8.26
4.39
-0.48
-5.98
-11.40
-16.11
-19.95
-23.40
-27.36
-32.66
-39.58
-47.57
-55.39
-61.41
-64.17
-62.85
-57.46
-48.76
-37.98
-26.36
-14.91
-4.24
5.33
13.77
21.14
27.51
32.85
37.01
39.75
40.90
40.58
39.29
37.72
36.46
35.64
34.87
33.40
30.67
26.63
21.82
17.06
13.02
9.81
6.98
3.86
-0.07
-4.77
-9.78
-14.44
-18.36
-21.63
-24.88
-28.88
-34.16
-40.65
-47.61
-53.79
-57.87
-58.81
-56.18
-50.13
-41.38
-30.90
-19.72
-8.69
1.64
11.03
19.43
26.77
32.86
37.41
40.18
41.14
40.64
39.34
37.98
36.99
36.38
35.67
34.29
31.98
29.00
25.99
23.48
21.48
19.33
16.10
11.15
4.67
-2.35
-8.58
-13.08
-15.89
-17.94
-20.57
-24.81
-30.92
-38.27
-45.70
-51.92
-55.88
-56.88
-54.66
-49.32
-41.31
-31.31
-20.17
-8.70
2.36
12.45
21.17
28.15
33.14
36.02
36.90
36.22
34.67
32.97
31.63
30.73
30.02
29.04
27.46
25.28
22.85
20.61
18.84
17.40
15.88
13.80
10.90
7.33
3.39
-0.61
-4.64
-8.94
-13.82
-19.40
-25.55
-31.92
-38.15
-44.01
-49.26
-53.56
-56.25
-56.41
-53.18
-46.15
-35.69
-22.96
-9.64
2.64
12.75
20.26
25.49
29.16
32.01
34.45
36.46
37.63
37.50
35.87
32.96
29.40
25.96
23.28
21.62
20.81
20.31
19.44
17.66
14.75
10.81
6.27
1.63
-2.71
-6.62
-10.28
-14.09
-18.51
-23.80
-29.96
-36.65
-43.31
-49.24
-53.74
-56.25
-56.36
-53.93
-49.04
-41.98
-33.14
-22.99
-12.01
-0.72
10.30
20.37
28.79
34.99
38.71
40.14
39.89
38.86
37.92
37.52
37.59
37.59
36.82
34.76
31.40
27.17
22.81
18.93
15.75
13.02
10.23
6.93
2.97
-1.43
-5.94
-10.41
-14.95
-19.86
-25.34
-31.38
-37.70
-43.86
-49.45
-54.04
-57.15
-58.18
-56.50
-51.68
-43.72
-33.22
-21.21
-8.92
2.55
12.49
20.68
27.25
32.50
36.71
39.90
41.92
42.59
41.96
40.38
38.35
36.22
33.98
31.35
28.07
24.26
20.45
17.26
14.98
13.26
11.24
8.06
3.34
-2.55
-8.67
-14.00
-17.94
-20.67
-23.01
-26.13
-30.93
-37.48
-44.84
-51.29
-55.00
-54.79
-50.57
-43.28
-34.23
-24.55
-14.78
-5.08
4.37
13.08
20.36
25.71
29.17
31.35
32.98
34.50
35.77
36.27
35.54
33.54
30.69
27.69
25.15
23.33
22.14
21.21
20.07
18.35
15.84
12.59
8.85
4.87
0.78
-3.49
-8.09
-13.10
-18.43
-23.81
-29.06
-34.17
-39.29
-44.39
-49.05
-52.37
-53.36
-51.35
-46.36
-39.04
-30.21
-20.50
-10.14
0.71
11.60
21.62
29.65
34.82
37.03
36.94
35.69
34.29
33.25
32.51
31.73
30.56
28.87
26.74
24.26
21.45
18.31
14.89
11.36
7.94
4.80
1.87
-1.11
-4.45
-8.41
-13.00
-18.08
-23.46
-29.10
-35.05
-41.42
-47.97
-54.01
-58.41
-59.90
-57.61
-51.49
-42.40
-31.77
-21.02
-11.02
-1.87
6.78
15.27
23.56
31.05
36.93
40.58
41.95
41.51
40.01
38.14
36.25
34.42
32.51
30.46
28.29
26.12
23.94
21.67
19.05
15.88
12.06
7.74
3.17
-1.38
-5.75
-9.94
-14.08
-18.45
-23.38
-29.18
-36.02
-43.70
-51.53
-58.35
-62.81
-63.78
-60.72
-53.89
-44.18
-32.83
-21.00
-9.52
1.13
10.72
19.13
26.23
31.89
36.11
39.03
40.89
41.98
42.42
42.12
40.93
38.70
35.57
31.93
28.33
25.21
22.67
20.44
18.04
15.04
11.33
7.09
2.70
-1.49
-5.28
-8.68
-11.91
-15.22
-18.98
-23.51
-29.03
-35.46
-42.30
-48.59
-53.13
-54.81
-52.92
-47.32
-38.44
-27.20
-14.77
-2.48
8.50
17.34
23.77
28.17
31.31
34.03
36.70
39.19
40.87
41.14
39.75
37.02
33.61
30.20
27.16
24.52
22.11
19.75
17.34
14.86
12.18
9.12
5.54
1.53
-2.59
-6.45
-9.88
-13.15
-16.85
-21.68
-27.92
-35.29
-42.91
-49.66
-54.55
-56.97
-56.73
-53.94
-48.77
-41.43
-32.09
-21.14
-9.20
2.76
13.66
22.54
28.86
32.69
34.62
35.51
36.14
36.86
37.52
37.60
36.51
33.95
30.18
25.97
22.27
19.76
18.47
17.69
16.35
13.60
9.30
4.03
-1.27
-5.90
-9.74
-13.24
-16.98
-21.32
-26.24
-31.52
-37.00
-42.58
-47.99
-52.58
-55.25
-54.89
-50.91
-43.58
-33.96
-23.40
-12.91
-2.95
6.48
15.37
23.47
30.29
35.36
38.67
40.62
41.80
42.58
42.89
42.30
40.41
37.20
33.18
29.18
25.90
23.58
21.87
19.96
16.99
12.49
6.62
0.14
-5.85
-10.46
-13.37
-15.00
-16.35
-18.58
-22.55
-28.46
-35.76
-43.35
-49.86
-54.08
-55.17
-52.87
-47.50
-39.78
-30.60
-20.76
-10.80
-1.09
8.13
16.55
23.84
29.62
33.71
36.08
36.93
36.58
35.43
33.84
32.15
30.58
29.15
27.71
26.03
23.93
21.42
18.63
15.71
12.71
9.49
5.87
1.80
-2.49
-6.53
-9.84
-12.24
-14.11
-16.27
-19.63
-24.71
-31.32
-38.53
-45.01
-49.53
-51.38
-50.46
-47.08
-41.63
-34.35
-25.32
-14.78
-3.32
8.02
17.98
25.53
30.26
32.51
33.15
33.09
32.89
32.60
31.99
30.89
29.44
28.03
26.97
26.21
25.26
23.41
20.21
15.75
10.68
5.86
1.96
-0.85
-2.90
-4.79
-7.08
-10.14
-14.08
-18.87
-24.42
-30.64
-37.31
-43.95
-49.83
-54.01
-55.62
-54.14
-49.56
-42.40
-33.47
-23.63
-13.54
-3.65
5.71
14.23
21.62
27.63
32.17
35.32
37.19
37.83
37.21
35.34
32.51
29.33
26.61
25.01
24.68
25.11
25.34
24.27
21.24
16.24
9.91
3.29
-2.63
-7.15
-10.13
-12.01
-13.59
-15.82
-19.47
-24.88
-31.84
-39.66
-47.28
-53.57
-57.54
-58.49
-56.16
-50.65
-42.47
-32.39
-21.36
-10.36
-0.11
8.98
16.90
23.80
29.82
34.88
38.70
41.03
41.83
41.44
40.42
39.29
38.23
37.00
35.20
32.57
29.23
25.63
22.25
19.21
16.16
12.50
7.79
2.14
-3.75
-9.04
-13.15
-16.19
-18.97
-22.53
-27.62
-34.32
-41.98
-49.46
-55.47
-58.90
-58.99
-55.49
-48.67
-39.34
-28.71
-18.05
-8.32
0.12
7.54
14.50
21.50
28.56
35.15
40.42
43.56
44.22
42.68
39.74
36.46
33.76
32.10
31.41
31.19
30.76
29.57
27.28
23.82
19.31
13.95
8.13
2.41
-2.50
-6.02
-8.01
-9.09
-10.46
-13.55
-19.25
-27.44
-36.91
-45.81
-52.38
-55.59
-55.33
-52.10
-46.64
-39.61
-31.49
-22.79
-14.10
-6.02
1.11
7.38
13.24
19.13
25.04
30.41
34.34
36.13
35.76
33.89
31.53
29.45
27.86
26.43
24.83
22.99
21.24
19.93
18.98
17.67
14.99
10.27
3.72
-3.50
-9.88
-14.29
-16.69
-18.08
-20.01
-23.78
-29.87
-37.85
-46.68
-55.10
-62.01
-66.48
-67.64
-64.76
-57.53
-46.35
-32.61
-18.36
-5.74
3.78
9.89
13.37
15.53
17.49
19.73
22.07
24.07
25.48
26.45
27.41
28.75
30.45
32.08
32.80
31.66
27.94
21.44
12.79
3.53
-4.17
-8.26
-7.64
-2.87
3.90
9.70
11.90
9.21
1.89
-8.63
-20.53
-32.08
-41.84
-48.56
-51.26
-49.40
-43.26
-33.97
-23.16
-12.38
-2.57
5.91
13.12
19.14
24.03
27.95
31.37
34.91
38.99
43.48
47.67
50.57
51.42
49.95
46.25
40.54
33.04
24.07
14.43
5.55
-0.75
-2.98
-0.64
5.24
12.37
18.01
19.93
17.05
9.57
-1.47
-14.74
-28.96
-42.98
-55.67
-65.86
-72.53
-75.12
-73.86
-69.59
-63.44
-56.26
-48.33
-39.42
-29.23
-17.88
-6.09
5.02
14.29
20.92
24.65
25.76
24.85
22.61
19.65
16.36
13.00
9.82
7.09
5.09
4.03
3.88
4.22
4.24
2.92
-0.68
-7.03
-15.84
-26.01
-36.07
-44.61
-50.97
-55.48
-59.25
-63.48
-68.69
-74.38
-79.18
-81.77
-81.73
-79.99
-78.32
-78.42
-80.81
-84.26
-86.18
-83.41
-73.09
-53.19
-22.85
17.38
65.17
116.31
165.12
205.63
233.46
247.40
249.90
245.96
240.60
236.35
232.07
224.29
209.74
187.97
161.84
135.58
111.60
88.62
62.73
30.45
-7.71
-46.59
-78.72
-98.40
-104.62
-100.92
-92.49
-82.52
-70.70
-54.12
-30.36
0.05
32.87
61.77
80.76
86.35
78.55
60.27
35.91
9.86
-14.69
-36.19
-54.20
-68.50
-78.32
-82.42
-80.05
-72.03
-61.16
-51.29
-45.42
-44.41
-46.43
-48.24
-47.13
-42.35
-35.19
-27.82
-21.58
-16.07
-9.63
-0.75
10.46
21.79
29.87
31.95
27.31
17.57
5.75
-5.28
-14.02
-20.64
-26.47
-32.89
-40.41
-48.31
-54.85
-57.85
-55.56
-47.32
-34.03
-17.92
-1.97
11.06
19.47
23.07
22.99
20.98
18.64
16.76
15.25
13.36
10.34
5.93
0.62
-4.64
-8.82
-11.24
-11.83
-10.93
-9.10
-6.91
-4.87
-3.42
-2.96
-3.82
-6.17
-10.00
-15.04
-20.78
-26.56
-31.77
-36.10
-39.70
-43.19
-47.31
-52.40
-57.88
-62.25
-63.58
-60.35
-52.20
-40.24
-26.56
-13.49
-2.72
5.14
10.45
14.11
17.01
19.67
22.13
24.15
25.39
25.59
24.66
22.74
20.10
17.12
14.24
11.92
10.56
10.44
11.55
13.43
15.26
15.96
14.60
10.71
4.58
-2.80
-9.95
-15.42
-18.27
-18.51
-17.16
-15.95
-16.71
-20.50
-26.99
-34.36
-39.93
-41.13
-36.50
-26.17
-11.66
4.80
21.04
35.46
47.18
55.86
61.47
64.06
63.81
61.01
56.19
50.26
44.30
39.39
36.13
34.39
33.21
31.27
27.55
22.03
15.58
9.53
4.78
1.24
-2.05
-6.32
-12.21
-19.27
-26.20
-31.60
-34.84
-36.53
-38.40
-42.46
-50.03
-60.90
-73.10
-83.51
-88.97
-87.50
-79.07
-65.61
-50.13
-35.47
-23.27
-13.59
-5.38
2.69
11.33
20.35
28.83
35.71
40.40
42.98
44.02
44.19
43.93
43.24
41.88
39.60
36.34
32.29
27.84
23.35
19.08
15.03
11.00
6.73
2.02
-3.19
-8.81
-14.68
-20.80
-27.29
-34.45
-42.47
-51.28
-60.34
-68.71
-75.22
-78.71
-78.32
-73.65
-64.91
-52.95
-39.19
-25.25
-12.55
-1.92
6.56
13.37
19.17
24.29
28.67
31.95
33.89
34.59
34.65
34.82
35.74
37.67
40.59
44.24
48.35
52.59
56.53
59.57
61.00
60.23
57.03
51.65
44.72
37.04
29.30
21.89
14.91
8.16
1.29
-6.05
-14.09
-22.82
-31.90
-40.65
-48.16
-53.48
-55.80
-54.50
-49.36
-40.62
-29.04
-15.79
-2.24
10.37
21.13
29.58
35.60
39.19
40.50
39.89
38.09
36.09
34.99
35.60
38.22
42.46
47.47
52.17
55.49
56.55
54.77
50.00
42.57
33.22
22.98
12.85
3.64
-4.24
-10.73
-16.10
-20.80
-25.42
-30.54
-36.56
-43.41
-50.40
-56.35
-59.84
-59.73
-55.56
-47.71
-37.24
-25.53
-13.91
-3.34
5.65
12.91
18.53
22.74
25.79
27.84
28.90
28.85
27.62
25.30
22.38
19.60
17.68
16.99
17.32
17.96
18.04
16.95
14.55
11.16
7.27
3.35
-0.44
-4.13
-7.84
-11.73
-15.92
-20.62
-26.13
-32.72
-40.41
-48.68
-56.41
-62.11
-64.32
-62.15
-55.58
-45.45
-33.22
-20.43
-8.28
2.59
12.12
20.56
28.17
34.92
40.49
44.35
46.10
45.75
43.79
41.07
38.46
36.45
35.06
33.92
32.52
30.50
27.80
24.61
21.14
17.59
13.97
10.15
6.01
1.41
-3.66
-9.13
-14.85
-20.72
-26.72
-32.96
-39.56
-46.48
-53.32
-59.23
-63.07
-63.77
-60.73
-54.08
-44.64
-33.65
-22.29
-11.40
-1.37
7.74
15.90
22.97
28.62
32.52
34.51
34.78
33.79
32.16
30.40
28.78
27.31
25.82
24.14
22.18
19.94
17.43
14.62
11.49
8.07
4.50
0.97
-2.30
-5.29
-8.09
-10.93
-14.04
-17.62
-21.85
-26.85
-32.70
-39.24
-45.93
-51.87
-55.95
-57.21
-55.17
-49.95
-42.13
-32.54
-21.96
-11.06
-0.39
9.51
18.10
24.92
29.70
32.47
33.60
33.69
33.39
33.21
33.34
33.59
33.48
32.48
30.30
27.08
23.42
20.06
17.52
15.83
14.54
12.97
10.46
6.66
1.53
-4.70
-11.75
-19.19
-26.54
-33.29
-39.07
-43.78
-47.61
-50.76
-53.19
-54.37
-53.48
-49.75
-42.96
-33.62
-22.76
-11.52
-0.78
9.04
17.79
25.41
31.75
36.59
39.77
41.30
41.38
40.33
38.50
36.27
34.03
32.14
30.76
29.81
28.86
27.32
24.71
20.92
16.26
11.38
6.85
2.91
-0.70
-4.54
-9.11
-14.55
-20.57
-26.67
-32.51
-38.14
-43.82
-49.68
-55.28
-59.47
-60.84
-58.31
-51.77
-42.13
-30.99
-19.84
-9.48
0.09
9.36
18.61
27.61
35.52
41.33
44.32
44.44
42.34
39.08
35.82
33.48
32.47
32.77
33.90
35.15
35.75
35.03
32.60
28.37
22.51
15.42
7.66
-0.12
-7.27
-13.30
-18.03
-21.72
-25.02
-28.74
-33.57
-39.69
-46.67
-53.49
-58.81
-61.40
-60.55
-56.17
-48.81
-39.43
-29.02
-18.32
-7.77
2.42
12.15
21.13
28.93
35.03
39.00
40.71
40.49
38.93
36.79
34.66
32.85
31.37
30.04
28.64
27.11
25.39
23.40
20.96
17.83
13.89
9.33
4.64
0.43
-2.87
-5.22
-7.08
-9.17
-12.26
-16.88
-23.19
-30.89
-39.27
-47.24
-53.54
-56.97
-56.71
-52.69
-45.51
-36.30
-26.30
-16.48
-7.38
0.85
8.16
14.47
19.59
23.33
25.65
26.77
27.12
27.07
26.86
26.46
25.68
24.40
22.69
20.85
19.28
18.19
17.37
16.20
13.87
9.80
3.95
-3.03
-10.01
-15.85
-19.82
-21.98
-23.13
-24.51
-27.32
-32.30
-39.42
-47.92
-56.52
-63.69
-67.94
-68.11
-63.52
-54.25
-41.15
-25.83
-10.32
3.51
14.48
22.44
28.12
32.66
36.99
41.36
45.40
48.41
49.87
49.66
48.09
45.63
42.71
39.66
36.76
34.29
32.47
31.28
30.30
28.73
25.74
20.78
13.94
5.93
-2.23
-9.59
-15.71
-20.78
-25.44
-30.45
-36.31
-42.92
-49.53
-54.92
-57.76
-57.11
-52.74
-45.21
-35.65
-25.40
-15.57
-6.79
0.84
7.51
13.43
18.52
22.41
24.60
24.77
22.99
19.78
15.90
12.06
8.59
5.42
2.21
-1.35
-5.40
-9.91
-14.76
-19.98
-25.69
-32.00
-38.85
-45.85
-52.46
-58.28
-63.32
-68.17
-73.72
-80.52
-88.31
-95.72
-100.71
-101.46
-97.45
-89.89
-81.20
-73.58
-67.63
-61.68
-52.48
-36.67
-12.58
19.01
55.07
91.40
124.00
149.92
167.34
175.39
173.96
164.15
148.71
132.11
119.56
115.15
120.16
132.20
145.87
154.82
154.29
143.08
123.52
99.77
75.46
52.58
32.14
15.71
6.60
9.02
25.62
54.64
89.06
118.56
133.45
128.72
105.83
71.32
33.28
-2.28
-33.03
-59.44
-82.57
-102.08
-115.96
-121.63
-117.65
-105.14
-87.78
-70.50
-57.62
-51.16
-50.36
-52.24
-53.15
-50.41
-43.39
-33.50
-23.25
-15.04
-10.15
-8.48
-8.93
-10.03
-10.65
-10.14
-8.28
-5.05
-0.63
4.53
9.52
13.15
14.36
12.63
8.31
2.47
-3.48
-8.28
-11.13
-11.74
-10.23
-7.02
-2.95
0.76
2.48
0.62
-5.78
-16.49
-29.76
-42.85
-52.76
-57.42
-56.30
-50.48
-41.94
-32.67
-23.89
-15.89
-8.38
-0.99
6.24
12.91
18.50
22.73
25.66
27.65
28.99
29.74
29.65
28.33
25.64
21.77
17.35
13.21
10.03
8.11
7.19
6.62
5.65
3.75
0.77
-3.06
-7.33
-11.67
-15.87
-19.89
-23.80
-27.77
-32.07
-36.97
-42.67
-49.04
-55.38
-60.51
-63.04
-61.91
-56.90
-48.66
-38.54
-27.94
-17.80
-8.37
0.53
9.08
17.13
24.07
29.23
32.19
33.03
32.38
31.00
29.50
28.08
26.58
24.69
22.28
19.50
16.74
14.39
12.56
10.99
9.20
6.62
2.98
-1.65
-6.83
-12.03
-16.80
-21.09
-25.21
-29.70
-35.05
-41.43
-48.53
-55.67
-61.97
-66.65
-69.27
-69.71
-68.09
-64.66
-59.61
-53.21
-45.89
-38.28
-31.22
-25.53
-21.87
-20.59
-21.73
-24.96
-29.65
-34.91
-39.69
-43.06
-44.45
-43.88
-41.70
-38.33
-33.78
-27.75
-19.86
-10.15
0.74
11.68
21.60
29.82
36.18
40.81
43.81
45.00
43.91
39.93
32.60
21.81
7.98
-7.59
-22.52
-33.33
-36.14
-27.91
-7.89
21.42
54.62
84.87
106.05
114.88
111.80
100.60
86.87
75.88
70.86
72.09
77.35
83.14
86.32
85.11
79.26
69.44
56.41
40.52
21.95
1.07
-21.09
-42.82
-62.27
-78.06
-89.63
-97.05
-100.54
-100.15
-95.90
-88.31
-78.82
-69.73
-63.52
-61.85
-64.93
-71.35
-78.68
-84.36
-86.49
-84.14
-77.20
-65.96
-50.85
-32.32
-10.98
12.40
36.97
61.83
86.06
108.65
128.39
143.96
154.33
159.30
159.77
157.56
154.59
151.95
149.50
146.30
141.87
137.42
135.93
140.86
153.92
173.19
192.70
204.33
201.19
180.79
146.48
106.13
68.58
40.01
21.64
9.88
-1.36
-17.78
-42.47
-75.28
-113.39
-152.37
-187.23
-213.20
-226.77
-226.91
-216.23
-201.17
-190.10
-189.81
-202.11
-222.06
-239.33
-242.41
-223.77
-183.28
-128.38
-70.93
-22.41
10.03
25.04
25.68
16.66
1.82
-16.74
-37.84
-59.56
-78.56
-90.90
-94.04
-88.48
-78.10
-68.44
-64.00
-65.94
-71.48
-75.17
-71.22
-55.59
-27.32
11.57
57.42
106.15
153.88
197.34
233.56
259.86
273.99
274.55
261.32
235.62
200.55
160.57
120.81
86.51
62.58
53.13
60.65
84.80
121.38
162.43
198.02
219.22
220.93
203.23
170.17
127.14
78.27
25.67
-29.34
-83.97
-132.73
-168.60
-186.00
-183.84
-166.59
-142.30
-119.21
-102.22
-91.53
-83.41
-72.88
-56.42
-33.55
-6.83
19.13
39.12
48.84
46.18
32.04
10.56
-11.97
-28.88
-35.29
-29.64
-14.22
5.76
23.87
34.42
34.09
23.27
6.52
-8.28
-12.34
0.35
29.87
69.24
106.87
131.57
137.39
125.87
103.93
79.45
57.25
38.23
21.55
7.68
-0.57
0.09
10.06
24.61
34.95
31.94
10.38
-28.92
-80.56
-138.14
-197.77
-259.05
-323.16
-389.54
-453.66
-507.42
-542.05
-551.85
-536.67
-501.73
-454.97
-403.63
-351.84
-300.43
-248.48
-195.53
-142.74
-92.44
-46.52
-4.97
34.72
76.50
123.86
177.91
236.34
293.63
342.86
377.81
394.74
393.02
374.77
344.02
306.17
267.40
233.88
210.24
197.70
193.32
190.97
184.33
169.91
148.81
125.67
105.82
92.44
85.65
83.83
85.65
91.06
100.51
112.99
124.90
130.88
126.09
108.53
79.67
43.32
3.48
-37.24
-77.86
-118.19
-157.66
-194.77
-227.30
-252.86
-269.47
-276.04
-272.72
-261.06
-243.76
-223.87
-203.75
-184.41
-165.54
-145.85
-123.67
-97.80
-68.37
-37.61
-9.88
9.51
16.84
12.68
3.02
-2.59
4.50
27.29
61.01
95.31
119.72
128.99
124.93
113.91
102.00
91.27
79.78
65.12
48.37
35.30
33.28
46.11
70.17
94.93
107.79
100.51
73.29
34.30
-4.74
-34.34
-51.01
-57.46
-59.73
-63.16
-69.72
-77.43
-82.02
-79.40
-67.78
-48.71
-26.62
-7.27
4.59
7.35
3.30
-2.35
-3.96
1.78
14.36
29.85
43.03
50.15
50.76
47.62
44.98
46.17
51.82
59.72
66.29
68.77
66.78
62.36
58.66
57.96
60.31
63.64
64.96
62.17
55.14
45.67
36.40
29.32
24.78
21.58
17.82
12.05
4.03
-5.25
-14.29
-21.92
-27.93
-33.00
-38.25
-44.49
-51.76
-59.27
-65.69
-69.65
-70.21
-67.06
-60.54
-51.38
-40.43
-28.53
-16.35
-4.45
6.67
16.56
24.87
31.37
36.02
38.93
40.27
40.27
39.16
37.20
34.63
31.67
28.50
25.24
21.97
18.77
15.69
12.70
9.67
6.44
2.87
-1.04
-5.22
-9.56
-14.04
-18.79
-24.08
-30.24
-37.43
-45.54
-54.06
-62.16
-68.77
-72.81
-73.47
-70.37
-63.66
-53.92
-42.01
-28.87
-15.41
-2.47
9.23
19.15
26.98
32.72
36.56
38.77
39.56
39.06
37.42
34.93
32.12
29.59
27.82
26.88
26.43
25.81
24.39
21.84
18.17
13.63
8.61
3.42
-1.74
-6.76
-11.64
-16.46
-21.36
-26.54
-32.26
-38.65
-45.63
-52.73
-59.02
-63.26
-64.22
-61.09
-53.83
-43.22
-30.65
-17.63
-5.33
5.66
15.23
23.53
30.62
36.40
40.63
43.09
43.73
42.68
40.27
37.00
33.40
30.02
27.25
25.18
23.62
22.10
20.12
17.34
13.72
9.47
4.96
0.50
-3.82
-8.06
-12.41
-17.03
-22.01
-27.39
-33.27
-39.73
-46.69
-53.69
-59.81
-63.77
-64.36
-60.83
-53.26
-42.50
-29.87
-16.69
-3.95
7.85
18.53
28.07
36.37
43.26
48.46
51.79
53.22
52.92
51.23
48.59
45.42
41.99
38.42
34.73
30.91
27.01
23.11
19.25
15.44
11.55
7.46
3.09
-1.57
-6.41
-11.36
-16.41
-21.61
-27.10
-33.01
-39.38
-46.11
-52.85
-59.01
-63.75
-66.09
-65.20
-60.65
-52.56
-41.58
-28.68
-14.87
-1.01
12.28
24.50
35.22
43.96
50.33
54.10
55.35
54.53
52.29
49.33
46.17
43.05
39.98
36.85
33.61
30.31
27.01
23.79
20.55
17.08
13.12
8.54
3.46
-1.84
-6.98
-11.70
-15.99
-20.14
-24.56
-29.72
-35.88
-42.97
-50.48
-57.49
-62.91
-65.66
-65.00
-60.65
-52.88
-42.31
-29.81
-16.33
-2.78
10.01
21.37
30.78
38.00
43.02
46.05
47.39
47.33
46.11
43.94
41.08
37.83
34.54
31.49
28.86
26.62
24.57
22.41
19.78
16.44
12.33
7.59
2.52
-2.58
-7.46
-12.12
-16.68
-21.42
-26.65
-32.59
-39.36
-46.83
-54.56
-61.76
-67.30
-69.91
-68.57
-62.84
-53.05
-40.24
-25.90
-11.46
1.97
13.82
23.91
32.30
39.05
44.12
47.47
49.09
49.17
47.99
45.98
43.52
40.90
38.29
35.76
33.28
30.77
28.10
25.14
21.76
17.85
13.39
8.48
3.26
-2.06
-7.33
-12.53
-17.72
-23.09
-28.89
-35.28
-42.25
-49.51
-56.46
-62.19
-65.70
-66.02
-62.56
-55.21
-44.51
-31.49
-17.45
-3.71
8.78
19.51
28.39
35.65
41.57
46.32
49.91
52.30
53.48
53.61
52.99
51.92
50.59
48.96
46.81
43.94
40.32
36.24
32.28
28.96
26.56
24.87
23.26
21.03
17.78
13.61
9.07
4.70
0.63
-3.61
-8.97
-16.34
-26.07
-37.70
-49.99
-61.37
-70.32
-75.77
-77.19
-74.50
-67.97
-58.13
-45.68
-31.54
-16.80
-2.74
9.37
18.55
24.37
27.10
27.69
27.38
27.23
27.72
28.67
29.43
29.30
27.87
25.20
21.71
17.92
14.17
10.48
6.59
2.21
-2.86
-8.44
-14.07
-19.07
-22.98
-25.76
-27.95
-30.43
-34.07
-39.36
-46.09
-53.48
-60.32
-65.39
-67.60
-66.24
-60.99
-51.99
-39.95
-26.00
-11.57
1.92
13.42
22.46
29.16
34.07
37.90
41.29
44.57
47.73
50.55
52.65
53.70
53.48
51.96
49.27
45.67
41.48
36.99
32.42
27.82
23.20
18.48
13.62
8.67
3.76
-1.01
-5.59
-10.15
-14.95
-20.34
-26.59
-33.77
-41.68
-49.77
-57.12
-62.60
-65.06
-63.67
-58.15
-48.98
-37.19
-24.13
-11.05
1.14
11.95
21.22
28.93
35.06
39.62
42.61
44.12
44.32
43.46
41.76
39.43
36.66
33.60
30.43
27.35
24.58
22.20
20.20
18.32
16.15
13.31
9.58
5.05
0.06
-4.92
-9.52
-13.66
-17.56
-21.64
-26.37
-32.09
-38.79
-46.07
-53.06
-58.56
-61.32
-60.37
-55.33
-46.53
-34.93
-21.85
-8.59
3.81
14.69
23.76
30.95
36.35
40.05
42.20
42.98
42.66
41.56
39.98
38.13
36.12
33.94
31.56
29.01
26.45
24.06
21.97
20.09
18.09
15.58
12.28
8.20
3.63
-1.01
-5.40
-9.50
-13.55
-17.94
-23.01
-28.89
-35.49
-42.44
-49.15
-54.87
-58.72
-59.87
-57.71
-52.10
-43.39
-32.41
-20.23
-7.89
3.70
13.87
22.15
28.23
32.03
33.74
33.79
32.77
31.25
29.57
27.92
26.25
24.53
22.75
20.96
19.25
17.60
15.89
13.91
11.51
8.62
5.31
1.76
-1.90
-5.58
-9.25
-12.98
-16.82
-20.85
-25.14
-29.83
-35.03
-40.77
-46.85
-52.66
-57.25
-59.46
-58.33
-53.44
-45.10
-34.23
-22.09
-9.85
1.63
11.86
20.59
27.65
32.88
36.21
37.78
37.98
37.33
36.27
35.03
33.60
31.84
29.66
27.11
24.41
21.77
19.29
16.96
14.62
12.06
9.14
5.76
1.91
-2.35
-6.90
-11.59
-16.33
-21.04
-25.86
-31.00
-36.72
-43.07
-49.77
-56.07
-60.77
-62.57
-60.47
-54.13
-44.08
-31.50
-17.90
-4.64
7.36
17.69
26.28
33.21
38.54
42.26
44.37
44.99
44.36
42.86
40.87
38.67
36.41
34.07
31.59
28.95
26.25
23.65
21.26
19.04
16.72
13.94
10.44
6.21
1.46
-3.48
-8.36
-13.09
-17.82
-22.78
-28.25
-34.40
-41.23
-48.38
-55.12
-60.30
-62.63
-61.07
-55.22
-45.53
-33.20
-19.73
-6.43
5.82
16.66
25.95
33.54
39.22
42.77
44.24
43.99
42.65
40.89
39.16
37.60
36.04
34.25
32.09
29.61
27.01
24.51
22.13
19.74
17.03
13.69
9.64
5.02
0.18
-4.51
-8.87
-12.93
-16.97
-21.26
-26.04
-31.39
-37.29
-43.55
-49.68
-54.91
-58.20
-58.51
-55.13
-48.02
-37.84
-25.80
-13.20
-1.15
9.68
18.94
26.42
31.96
35.42
36.77
36.32
34.64
32.42
30.27
28.47
26.95
25.43
23.68
21.63
19.47
17.43
15.64
13.98
12.13
9.77
6.76
3.21
-0.68
-4.71
-8.82
-13.06
-17.55
-22.32
-27.41
-32.85
-38.69
-44.88
-51.06
-56.48
-59.99
-60.45
-57.11
-49.93
-39.66
-27.54
-14.93
-2.90
7.91
17.22
24.93
31.01
35.42
38.19
39.48
39.58
38.89
37.69
36.20
34.48
32.49
30.23
27.74
25.16
22.65
20.32
18.13
15.87
13.20
9.85
5.70
0.92
-4.15
-9.08
-13.62
-17.80
-22.00
-26.76
-32.59
-39.61
-47.37
-54.82
-60.54
-63.15
-61.71
-56.02
-46.68
-34.84
-21.85
-8.87
3.33
14.32
23.93
32.04
38.50
43.14
45.90
46.90
46.46
45.06
43.16
41.08
38.93
36.64
34.10
31.33
28.48
25.81
23.45
21.32
19.09
16.31
12.68
8.17
3.09
-2.09
-6.97
-11.42
-15.63
-19.95
-24.85
-30.62
-37.32
-44.62
-51.82
-57.85
-61.53
-61.78
-58.02
-50.32
-39.49
-26.79
-13.60
-1.07
10.09
19.59
27.38
33.46
37.81
40.39
41.30
40.84
39.45
37.62
35.71
33.83
31.90
29.81
27.48
25.00
22.47
20.01
17.58
15.02
12.12
8.75
4.92
0.76
-3.52
-7.73
-11.80
-15.79
-19.87
-24.25
-29.12
-34.55
-40.45
-46.45
-51.85
-55.73
-57.10
-55.18
-49.71
-41.04
-30.08
-18.01
-6.00
5.06
14.65
22.51
28.53
32.67
34.93
35.48
34.68
33.07
31.21
29.52
28.15
27.06
26.03
24.87
23.44
21.68
19.57
17.06
14.11
10.65
6.70
2.39
-2.11
-6.63
-11.03
-15.25
-19.36
-23.49
-27.86
-32.72
-38.24
-44.42
-50.86
-56.77
-61.04
-62.55
-60.47
-54.60
-45.40
-33.91
-21.40
-9.03
2.36
12.35
20.88
27.97
33.63
37.77
40.28
41.14
40.58
39.04
37.03
35.01
33.20
31.57
29.95
28.19
26.23
24.11
21.84
19.34
16.43
12.97
8.92
4.40
-0.34
-5.10
-9.75
-14.34
-19.06
-24.14
-29.83
-36.26
-43.29
-50.38
-56.52
-60.44
-60.91
-57.19
-49.34
-38.26
-25.42
-12.34
-0.16
10.56
19.78
27.68
34.34
39.66
43.41
45.44
45.82
44.91
43.19
41.12
38.98
36.82
34.58
32.18
29.66
27.16
24.78
22.49
20.09
17.25
13.69
9.29
4.26
-0.99
-6.00
-10.49
-14.49
-18.34
-22.55
-27.60
-33.70
-40.63
-47.71
-53.88
-57.92
-58.77
-55.78
-48.96
-38.98
-26.97
-14.20
-1.81
9.41
19.02
26.82
32.75
36.75
38.84
39.20
38.22
36.41
34.30
32.25
30.35
28.49
26.49
24.27
21.90
19.47
17.06
14.59
11.86
8.67
5.02
1.04
-3.00
-6.93
-10.73
-14.54
-18.53
-22.85
-27.60
-32.83
-38.59
-44.79
-51.10
-56.80
-60.85
-62.12
-59.78
-53.59
-44.00
-32.00
-18.89
-5.88
6.07
16.35
24.63
30.84
35.05
37.45
38.28
37.87
36.57
34.74
32.75
30.85
29.20
27.75
26.38
24.90
23.20
21.21
18.88
16.12
12.80
8.80
4.12
-1.06
-6.44
-11.66
-16.52
-21.04
-25.50
-30.33
-35.93
-42.47
-49.78
-57.21
-63.73
-68.06
-69.00
-65.79
-58.34
-47.34
-34.05
-19.93
-6.26
6.13
16.90
26.06
33.70
39.86
44.43
47.34
48.61
48.48
47.32
45.50
43.30
40.83
38.11
35.20
32.21
29.31
26.57
23.93
21.15
17.92
14.03
9.44
4.33
-1.05
-6.44
-11.72
-16.91
-22.21
-27.96
-34.43
-41.77
-49.68
-57.33
-63.41
-66.41
-65.17
-59.23
-49.11
-36.10
-21.88
-7.93
4.83
16.06
25.83
34.26
41.36
46.93
50.76
52.79
53.22
52.44
50.87
48.81
46.37
43.55
40.35
36.91
33.45
30.18
27.18
24.30
21.26
17.72
13.53
8.78
3.69
-1.45
-6.43
-11.24
-16.02
-21.02
-26.47
-32.57
-39.37
-46.70
-54.05
-60.54
-65.01
-66.26
-63.47
-56.49
-45.94
-33.01
-19.13
-5.53
6.93
17.81
26.83
33.84
38.67
41.26
41.80
40.73
38.70
36.36
34.20
32.44
31.03
29.75
28.36
26.69
24.69
22.36
19.74
16.81
13.51
9.78
5.61
1.10
-3.60
-8.36
-13.13
-17.95
-22.95
-28.25
-33.95
-40.12
-46.78
-53.74
-60.51
-66.11
-69.29
-68.79
-63.87
-54.66
-42.14
-27.88
-13.49
-0.17
11.47
21.25
29.21
35.36
39.63
41.97
42.54
41.71
39.96
37.79
35.55
33.43
31.52
29.81
28.20
26.55
24.67
22.41
19.65
16.27
12.21
7.38
1.78
-4.46
-11.01
-17.39
-23.17
-28.21
-32.73
-37.30
-42.56
-48.87
-56.01
-63.14
-68.99
-72.14
-71.42
-66.20
-56.57
-43.36
-27.88
-11.67
3.92
17.99
30.17
40.56
49.40
56.91
63.02
67.45
69.88
70.20
68.60
65.57
61.69
57.45
53.13
48.78
44.39
39.91
35.36
30.77
26.11
21.26
16.08
10.48
4.48
-1.77
-8.05
-14.17
-20.12
-26.09
-32.53
-39.85
-48.27
-57.40
-66.23
-73.25
-76.82
-75.79
-69.85
-59.63
-46.45
-31.85
-17.23
-3.54
8.68
19.21
27.93
34.79
39.81
43.08
44.76
45.11
44.42
42.95
40.94
38.57
36.00
33.31
30.62
27.98
25.43
22.93
20.31
17.37
13.88
9.75
5.02
-0.09
-5.28
-10.31
-15.08
-19.69
-24.39
-29.49
-35.32
-41.99
-49.36
-56.86
-63.52
-68.11
-69.46
-66.77
-59.85
-49.26
-36.10
-21.74
-7.48
5.63
16.97
26.22
33.30
38.26
41.28
42.62
42.67
41.84
40.50
38.90
37.14
35.22
33.13
30.89
28.54
26.13
23.63
20.95
17.91
14.40
10.34
5.77
0.84
-4.30
-9.46
-14.54
-19.50
-24.45
-29.62
-35.31
-41.77
-49.02
-56.61
-63.63
-68.78
-70.70
-68.42
-61.71
-51.16
-38.01
-23.79
-9.79
3.14
14.67
24.76
33.43
40.56
45.91
49.28
50.65
50.33
48.77
46.54
44.01
41.36
38.58
35.65
32.62
29.60
26.73
23.97
21.09
17.70
13.43
8.13
1.95
-4.65
-11.10
-17.00
-22.24
-27.12
-32.23
-38.25
-45.65
-54.40
-63.88
-72.89
-79.91
-83.54
-82.87
-77.73
-68.64
-56.68
-43.08
-28.88
-14.72
-0.83
12.76
25.94
38.32
49.19
57.79
63.54
66.29
66.32
64.20
60.58
56.00
50.88
45.66
40.80
36.75
33.77
31.75
30.18
28.33
25.54
21.51
16.35
10.52
4.51
-1.35
-7.09
-13.02
-19.62
-27.27
-36.14
-45.99
-56.11
-65.36
-72.34
-75.67
-74.39
-68.20
-57.59
-43.71
-27.98
-11.78
3.78
18.01
30.47
40.86
48.94
54.57
57.77
58.84
58.27
56.70
54.67
52.49
50.23
47.71
44.70
41.11
37.07
32.86
28.78
24.94
21.19
17.16
12.48
6.95
0.69
-5.96
-12.55
-18.76
-24.50
-30.03
-35.81
-42.32
-49.90
-58.45
-67.36
-75.49
-81.37
-83.63
-81.28
-74.10
-62.63
-48.04
-31.79
-15.28
0.41
14.57
26.82
36.90
44.63
49.87
52.64
53.24
52.26
50.42
48.43
46.63
44.98
43.16
40.81
37.81
34.34
30.74
27.23
23.76
19.99
15.48
9.97
3.59
-3.23
-9.95
-16.18
-21.88
-27.35
-33.08
-39.61
-47.29
-56.13
-65.70
-75.06
-82.81
-87.39
-87.41
-82.16
-71.78
-57.31
-40.36
-22.59
-5.41
10.32
24.18
35.99
45.68
53.18
58.42
61.51
62.71
62.39
60.99
58.79
55.97
52.58
48.72
44.60
40.56
36.88
33.65
30.60
27.22
22.92
17.38
10.67
3.27
-4.19
-11.22
-17.67
-23.76
-29.95
-36.78
-44.67
-53.85
-64.18
-74.97
-84.86
-91.95
-94.31
-90.64
-80.85
-66.20
-48.75
-30.67
-13.42
2.40
16.83
29.98
41.66
51.40
58.79
63.72
66.55
67.80
67.90
66.97
64.93
61.74
57.54
52.78
47.94
43.45
39.46
35.84
32.25
28.23
23.30
17.17
9.86
1.79
-6.37
-13.95
-20.59
-26.49
-32.26
-38.76
-46.67
-56.24
-67.04
-78.02
-87.62
-94.06
-95.73
-91.67
-81.83
-67.14
-49.31
-30.28
-11.73
5.27
20.29
33.27
44.19
52.92
59.23
62.98
64.34
63.80
61.99
59.57
56.93
54.14
51.12
47.75
44.03
40.11
36.19
32.37
28.56
24.41
19.55
13.70
6.88
-0.59
-8.22
-15.52
-22.26
-28.51
-34.66
-41.23
-48.68
-57.22
-66.64
-76.20
-84.65
-90.39
-91.84
-87.95
-78.50
-64.26
-46.75
-27.82
-9.16
8.06
23.14
35.79
45.87
53.24
57.85
59.82
59.54
57.67
55.02
52.33
49.98
47.98
45.97
43.57
40.54
36.99
33.20
29.39
25.50
21.15
15.88
9.42
1.95
-5.92
-13.45
-20.11
-25.87
-31.15
-36.69
-43.17
-51.02
-60.20
-70.13
-79.76
-87.61
-92.10
-91.86
-86.16
-75.15
-59.87
-41.98
-23.24
-5.14
11.35
25.78
38.00
47.89
55.34
60.27
62.79
63.25
62.22
60.31
57.96
55.35
52.44
49.11
45.34
41.30
37.24
33.36
29.63
25.74
21.27
15.90
9.57
2.55
-4.70
-11.73
-18.35
-24.67
-31.06
-38.05
-46.11
-55.48
-65.94
-76.65
-86.12
-92.49
-94.00
-89.53
-79.06
-63.69
-45.30
-25.96
-7.33
9.65
24.69
37.85
49.19
58.54
65.56
69.93
71.60
70.91
68.53
65.22
61.54
57.75
53.83
49.68
45.29
40.89
36.76
32.99
29.36
25.35
20.37
14.11
6.69
-1.32
-9.23
-16.47
-22.88
-28.80
-34.89
-41.89
-50.36
-60.35
-71.26
-81.79
-90.14
-94.42
-93.18
-85.88
-73.09
-56.27
-37.34
-18.14
0.05
16.53
31.00
43.31
53.23
60.45
64.78
66.31
65.54
63.22
60.16
56.99
53.99
51.16
48.28
45.16
41.74
38.16
34.57
31.04
27.40
23.29
18.29
12.15
4.94
-2.90
-10.74
-18.00
-24.46
-30.33
-36.15
-42.64
-50.33
-59.33
-69.16
-78.72
-86.48
-90.77
-90.22
-84.18
-72.91
-57.53
-39.71
-21.18
-3.37
12.80
26.81
38.41
47.38
53.55
56.90
57.71
56.62
54.47
52.06
49.84
47.83
45.72
43.14
39.92
36.23
32.44
28.87
25.58
22.26
18.39
13.48
7.36
0.27
-7.28
-14.69
-21.55
-27.77
-33.58
-39.47
-46.03
-53.74
-62.74
-72.62
-82.33
-90.22
-94.54
-93.80
-87.30
-75.37
-59.27
-40.80
-21.73
-3.47
13.18
27.88
40.50
50.91
58.89
64.21
66.81
67.00
65.41
62.79
59.78
56.70
53.52
50.04
46.17
42.03
37.96
34.26
30.94
27.61
23.59
18.27
11.43
3.38
-5.11
-13.22
-20.40
-26.63
-32.41
-38.54
-45.77
-54.51
-64.62
-75.31
-85.19
-92.50
-95.48
-92.88
-84.35
-70.58
-53.09
-33.77
-14.32
4.06
20.70
35.36
47.84
57.90
65.30
69.90
71.89
71.77
70.18
67.68
64.60
61.04
56.98
52.50
47.84
43.35
39.30
35.70
32.26
28.41
23.64
17.64
10.47
2.53
-5.60
-13.40
-20.56
-27.16
-33.58
-40.43
-48.32
-57.54
-67.88
-78.38
-87.43
-93.12
-93.70
-88.19
-76.71
-60.47
-41.39
-21.49
-2.43
14.79
29.71
42.19
52.08
59.20
63.41
64.81
63.90
61.43
58.26
55.07
52.13
49.39
46.58
43.51
40.18
36.80
33.59
30.54
27.32
23.39
18.24
11.72
4.09
-4.02
-11.94
-19.21
-25.77
-31.86
-37.89
-44.29
-51.35
-59.20
-67.70
-76.30
-83.92
-89.07
-90.16
-86.00
-76.31
-61.84
-44.19
-25.29
-6.81
10.09
24.87
37.32
47.31
54.70
59.33
61.26
60.82
58.66
55.55
52.17
48.89
45.83
42.87
39.90
36.91
33.99
31.21
28.44
25.37
21.52
16.51
10.26
3.04
-4.60
-12.08
-19.03
-25.40
-31.43
-37.56
-44.30
-52.05
-60.96
-70.74
-80.51
-88.80
-93.81
-93.90
-88.14
-76.68
-60.73
-42.20
-23.06
-4.82
11.69
26.16
38.51
48.59
56.14
60.96
63.08
62.93
61.23
58.79
56.16
53.61
51.06
48.29
45.16
41.71
38.11
34.52
30.92
27.03
22.41
16.68
9.80
2.12
-5.72
-13.08
-19.66
-25.61
-31.47
-37.99
-45.71
-54.85
-65.13
-75.72
-85.27
-92.07
-94.37
-90.91
-81.33
-66.47
-48.09
-28.38
-9.25
8.14
23.41
36.65
47.96
57.21
64.03
68.14
69.59
68.90
66.91
64.40
61.83
59.17
56.10
52.33
47.86
43.09
38.57
34.65
31.28
27.91
23.82
18.47
11.79
4.20
-3.59
-10.90
-17.40
-23.18
-28.70
-34.66
-41.69
-50.23
-60.19
-70.85
-80.81
-88.22
-91.23
-88.54
-79.85
-65.98
-48.63
-29.82
-11.36
5.53
20.28
32.76
42.94
50.81
56.27
59.33
60.20
59.37
57.42
54.89
52.11
49.17
45.99
42.47
38.67
34.80
31.15
27.94
25.11
22.30
18.91
14.37
8.43
1.26
-6.54
-14.18
-21.03
-26.89
-32.07
-37.28
-43.32
-50.71
-59.40
-68.71
-77.36
-83.72
-86.22
-83.78
-76.07
-63.69
-47.94
-30.46
-12.85
3.66
18.32
30.73
40.68
48.01
52.62
54.59
54.30
52.38
49.63
46.73
44.09
41.72
39.47
37.14
34.65
32.07
29.53
27.03
24.42
21.35
17.46
12.54
6.62
-0.03
-6.97
-13.78
-20.17
-26.10
-31.82
-37.79
-44.57
-52.61
-61.93
-71.90
-81.18
-87.92
-90.33
-87.15
-78.21
-64.44
-47.58
-29.54
-11.92
4.31
18.80
31.40
41.99
50.25
55.85
58.73
59.20
57.95
55.81
53.41
51.04
48.60
45.85
42.66
39.13
35.57
32.28
29.35
26.55
23.36
19.22
13.83
7.25
-0.09
-7.57
-14.63
-21.01
-26.83
-32.54
-38.80
-46.19
-54.97
-64.80
-74.60
-82.70
-87.21
-86.57
-80.09
-68.20
-52.29
-34.25
-15.87
1.54
17.28
31.02
42.59
51.76
58.29
62.14
63.57
63.20
61.79
59.99
58.13
56.14
53.75
50.67
46.88
42.66
38.44
34.56
31.06
27.60
23.62
18.64
12.53
5.57
-1.65
-8.49
-14.63
-20.13
-25.46
-31.17
-37.75
-45.41
-54.01
-63.08
-71.76
-78.87
-83.03
-82.97
-77.93
-67.95
-53.94
-37.43
-20.09
-3.36
11.82
24.90
35.57
43.63
48.96
51.64
52.00
50.65
48.32
45.64
43.04
40.69
38.51
36.32
33.92
31.21
28.22
25.05
21.83
18.61
15.26
11.52
7.09
1.84
-4.11
-10.37
-16.46
-22.01
-27.02
-31.86
-37.14
-43.51
-51.23
-59.98
-68.81
-76.25
-80.70
-80.80
-75.88
-66.03
-52.16
-35.70
-18.28
-1.40
13.80
26.64
36.80
44.25
49.12
51.65
52.20
51.20
49.20
46.70
44.09
41.59
39.19
36.77
34.19
31.43
28.49
25.42
22.20
18.71
14.78
10.27
5.20
-0.28
-5.92
-11.50
-16.86
-22.03
-27.19
-32.70
-39.00
-46.47
-55.18
-64.69
-73.86
-81.05
-84.45
-82.70
-75.36
-63.11
-47.51
-30.50
-13.74
1.72
15.48
27.52
37.89
46.43
52.81
56.85
58.57
58.42
57.00
54.94
52.64
50.19
47.49
44.41
40.99
37.40
33.90
30.68
27.67
24.57
20.93
16.35
10.67
4.09
-2.92
-9.80
-16.13
-21.86
-27.32
-33.08
-39.82
-47.92
-57.27
-67.12
-76.03
-82.17
-83.87
-80.07
-70.80
-57.10
-40.71
-23.47
-6.80
8.52
22.20
34.17
44.21
52.03
57.31
60.05
60.61
59.68
57.92
55.81
53.47
50.72
47.38
43.41
39.07
34.80
31.03
27.97
25.44
22.99
20.00
16.00
10.81
4.62
-2.07
-8.65
-14.64
-19.89
-24.64
-29.47
-35.06
-41.89
-50.00
-58.85
-67.37
-74.13
-77.68
-76.91
-71.27
-61.01
-47.09
-31.00
-14.35
1.39
15.16
26.39
34.86
40.62
43.85
44.91
44.26
42.52
40.28
38.02
36.00
34.25
32.60
30.84
28.86
26.62
24.23
21.76
19.18
16.33
12.97
8.88
4.00
-1.42
-7.02
-12.36
-17.22
-21.66
-26.03
-30.83
-36.54
-43.40
-51.29
-59.74
-67.82
-74.27
-77.68
-76.91
-71.35
-61.27
-47.69
-32.15
-16.22
-1.11
12.46
24.21
34.02
41.78
47.38
50.74
52.06
51.71
50.28
48.32
46.18
43.99
41.70
39.26
36.66
34.01
31.42
28.89
26.26
23.20
19.41
14.74
9.30
3.41
-2.57
-8.42
-14.07
-19.62
-25.29
-31.31
-37.97
-45.52
-54.02
-63.09
-71.79
-78.58
-81.76
-80.00
-72.86
-61.01
-46.00
-29.69
-13.67
1.08
14.16
25.50
35.11
42.90
48.73
52.55
54.45
54.77
53.93
52.31
50.18
47.70
44.89
41.77
38.45
35.12
32.02
29.27
26.77
24.14
20.86
16.44
10.73
4.01
-3.05
-9.68
-15.40
-20.21
-24.61
-29.46
-35.57
-43.34
-52.59
-62.38
-71.20
-77.32
-79.18
-75.89
-67.44
-54.78
-39.42
-23.07
-7.14
7.46
20.34
31.40
40.52
47.58
52.40
54.99
55.65
54.94
53.51
51.86
50.22
48.43
46.20
43.35
39.93
36.31
32.91
29.99
27.44
24.79
21.43
16.90
11.15
4.55
-2.26
-8.67
-14.31
-19.21
-23.72
-28.41
-33.83
-40.39
-48.11
-56.60
-64.90
-71.68
-75.47
-75.08
-69.98
-60.45
-47.57
-32.80
-17.61
-3.16
9.85
21.04
30.21
37.13
41.67
43.79
43.76
42.08
39.49
36.69
34.21
32.30
30.92
29.87
28.87
27.71
26.22
24.36
22.07
19.27
15.81
11.59
6.58
0.95
-4.94
-10.71
-16.03
-20.81
-25.21
-29.62
-34.55
-40.45
-47.53
-55.62
-63.99
-71.40
-76.32
-77.31
-73.51
-64.91
-52.37
-37.37
-21.50
-6.11
7.90
20.07
30.17
38.08
43.69
47.05
48.39
48.18
46.96
45.25
43.36
41.37
39.23
36.85
34.24
31.52
28.86
26.32
23.79
21.03
17.70
13.55
8.54
2.86
-3.13
-9.08
-14.75
-20.16
-25.49
-31.07
-37.29
-44.41
-52.46
-61.02
-69.17
-75.49
-78.44
-76.80
-70.08
-58.81
-44.34
-28.39
-12.54
2.16
15.26
26.73
36.58
44.71
50.85
54.76
56.45
56.25
54.76
52.60
50.20
47.72
45.06
42.15
39.06
36.01
33.24
30.80
28.38
25.49
21.64
16.65
10.75
4.46
-1.67
-7.34
-12.60
-17.79
-23.36
-29.71
-37.10
-45.55
-54.78
-64.01
-72.01
-77.23
-78.19
-73.99
-64.74
-51.50
-35.98
-19.92
-4.62
9.29
21.60
32.30
41.24
48.15
52.81
55.18
55.55
54.45
52.44
49.95
47.20
44.20
40.92
37.44
33.96
30.80
28.19
26.13
24.26
21.98
18.67
13.98
8.02
1.33
-5.32
-11.28
-16.26
-20.51
-24.64
-29.46
-35.58
-43.23
-52.01
-60.97
-68.71
-73.69
-74.60
-70.74
-62.16
-49.71
-34.76
-18.91
-3.60
10.13
21.67
30.75
37.37
41.63
43.80
44.27
43.54
42.13
40.48
38.84
37.28
35.71
34.02
32.14
30.08
27.85
25.44
22.77
19.71
16.12
11.94
7.20
1.98
-3.52
-9.07
-14.46
-19.57
-24.47
-29.45
-34.94
-41.36
-48.88
-57.22
-65.47
-72.26
-76.02
-75.53
-70.23
-60.48
-47.41
-32.50
-17.26
-2.78
10.30
21.70
31.28
38.93
44.49
47.90
49.32
49.12
47.85
46.10
44.29
42.59
40.91
39.02
36.72
34.01
31.06
28.11
25.21
22.13
18.41
13.69
7.87
1.33
-5.26
-11.28
-16.44
-20.94
-25.37
-30.43
-36.62
-44.14
-52.70
-61.60
-69.70
-75.56
-77.70
-75.03
-67.23
-54.92
-39.58
-23.03
-6.98
7.44
19.79
30.14
38.73
45.72
51.08
54.71
56.57
56.81
55.78
53.93
51.65
49.12
46.35
43.31
40.02
36.64
33.40
30.41
27.55
24.44
20.60
15.73
9.85
3.34
-3.23
-9.36
-14.89
-20.00
-25.17
-30.96
-37.77
-45.68
-54.36
-62.99
-70.35
-75.02
-75.71
-71.67
-62.90
-50.24
-35.15
-19.32
-4.17
9.33
20.79
30.14
37.43
42.69
45.90
47.19
46.85
45.43
43.55
41.69
40.05
38.54
36.92
34.95
32.58
29.92
27.14
24.34
21.40
18.09
14.11
9.34
3.90
-1.81
-7.36
-12.39
-16.90
-21.15
-25.62
-30.78
-36.94
-44.09
-51.88
-59.61
-66.25
-70.59
-71.47
-68.18
-60.63
-49.52
-36.06
-21.68
-7.54
5.57
17.27
27.32
35.49
41.50
45.13
46.49
46.00
44.35
42.28
40.32
38.61
37.03
35.29
33.15
30.59
27.80
25.01
22.40
19.90
17.22
13.94
9.79
4.72
-0.97
-6.83
-12.45
-17.65
-22.51
-27.35
-32.60
-38.63
-45.64
-53.49
-61.63
-69.06
-74.41
-76.31
-73.78
-66.60
-55.37
-41.40
-26.23
-11.23
2.66
15.00
25.65
34.57
41.69
46.94
50.24
51.70
51.60
50.35
48.36
45.96
43.32
40.51
37.56
34.53
31.56
28.80
26.27
23.82
21.12
17.83
13.69
8.67
3.01
-2.91
-8.74
-14.25
-19.46
-24.64
-30.19
-36.52
-43.86
-52.07
-60.50
-67.93
-72.84
-73.81
-69.99
-61.39
-48.97
-34.26
-18.87
-4.09
9.36
21.23
31.46
39.98
46.62
51.17
53.60
54.20
53.49
52.10
50.49
48.83
47.01
44.76
41.92
38.58
35.08
31.80
29.00
26.55
24.04
20.91
16.75
11.49
5.39
-0.98
-7.10
-12.60
-17.47
-21.95
-26.49
-31.56
-37.47
-44.27
-51.71
-59.11
-65.47
-69.59
-70.28
-66.75
-58.83
-47.12
-32.81
-17.43
-2.44
11.02
22.24
30.92
37.04
40.78
42.45
42.54
41.58
40.07
38.39
36.72
35.03
33.24
31.27
29.11
26.86
24.60
22.35
20.06
17.55
14.60
11.02
6.75
1.89
-3.29
-8.43
-13.24
-17.60
-21.62
-25.62
-29.98
-35.07
-41.09
-47.96
-55.24
-62.09
-67.28
-69.51
-67.73
-61.52
-51.30
-38.18
-23.67
-9.22
4.12
15.73
25.37
33.01
38.65
42.34
44.19
44.44
43.46
41.73
39.68
37.62
35.69
33.79
31.77
29.47
26.90
24.18
21.42
18.59
15.50
11.84
7.38
2.19
-3.41
-8.93
-14.02
-18.62
-23.02
-27.67
-33.01
-39.26
-46.40
-54.14
-61.92
-68.90
-73.95
-75.80
-73.44
-66.47
-55.34
-41.29
-25.99
-10.96
2.78
14.86
25.33
34.34
41.83
47.54
51.19
52.75
52.53
51.16
49.28
47.27
45.23
42.99
40.37
37.39
34.33
31.50
29.05
26.82
24.33
21.05
16.64
11.18
5.12
-0.92
-6.45
-11.33
-15.79
-20.33
-25.49
-31.67
-39.02
-47.29
-55.83
-63.59
-69.18
-71.20
-68.67
-61.33
-49.83
-35.56
-20.19
-5.24
8.31
20.03
29.88
37.89
44.03
48.20
50.36
50.68
49.60
47.71
45.55
43.50
41.60
39.69
37.53
35.00
32.19
29.39
26.85
24.64
22.47
19.83
16.15
11.20
5.17
-1.30
-7.46
-12.74
-17.07
-20.83
-24.72
-29.40
-35.28
-42.30
-49.99
-57.45
-63.53
-67.04
-66.99
-62.87
-54.81
-43.56
-30.31
-16.33
-2.80
9.44
19.84
28.09
34.02
37.64
39.15
38.98
37.67
35.83
33.92
32.22
30.78
29.53
28.30
26.96
25.43
23.66
21.67
19.42
16.86
13.88
10.36
6.21
1.48
-3.61
-8.76
-13.64
-18.09
-22.23
-26.44
-31.24
-37.06
-44.01
-51.75
-59.43
-65.82
-69.61
-69.72
-65.58
-57.34
-45.77
-32.10
-17.67
-3.68
8.99
19.82
28.54
35.06
39.42
41.75
42.36
41.69
40.23
38.47
36.72
35.05
33.40
31.65
29.73
27.69
25.63
23.54
21.26
18.55
15.10
10.81
5.80
0.38
-5.03
-10.15
-14.88
-19.31
-23.75
-28.56
-34.13
-40.70
-48.24
-56.21
-63.60
-69.04
-71.10
-68.79
-61.88
-50.98
-37.41
-22.71
-8.23
5.11
16.88
26.97
35.35
42.01
46.93
50.14
51.75
52.04
51.29
49.76
47.62
44.98
41.91
38.52
35.02
31.60
28.47
25.67
23.06
20.33
17.13
13.21
8.50
3.16
-2.50
-8.15
-13.54
-18.66
-23.75
-29.22
-35.48
-42.75
-50.76
-58.70
-65.27
-68.99
-68.68
-63.82
-54.73
-42.45
-28.35
-13.81
0.06
12.55
23.19
31.71
38.00
42.05
44.07
44.41
43.50
41.73
39.32
36.36
32.83
28.70
24.06
19.02
13.67
7.96
1.59
-5.98
-15.43
-27.30
-41.65
-57.76
-74.09
-88.46
-98.61
-103.00
-101.19
-94.04
-83.34
-71.29
-59.89
-50.52
-43.65
-38.72
-34.16
-27.64
-16.88
-0.61
20.59
44.13
66.23
83.31
93.29
96.01
92.65
84.53
72.21
55.49
34.15
8.84
-18.50
-45.16
-68.44
-86.58
-98.96
-105.67
-106.57
-100.93
-87.72
-66.78
-39.89
-11.02
14.73
33.25
43.35
47.19
48.98
52.39
58.33
64.52
67.11
63.48
54.08
42.34
32.50
26.87
24.38
21.44
14.23
1.22
-15.79
-32.62
-44.68
-48.94
-44.38
-31.50
-11.48
14.11
43.13
72.60
99.09
119.79
133.42
140.43
142.10
139.07
130.40
113.66
86.43
48.02
0.64
-50.65
-99.19
-138.52
-164.21
-175.08
-173.59
-165.08
-155.82
-150.25
-148.93
-147.96
-140.72
-121.17
-86.73
-39.69
13.84
66.16
110.42
141.52
155.94
151.43
127.51
86.87
36.49
-12.82
-48.92
-62.22
-49.08
-12.88
37.38
90.40
135.82
166.28
177.68
168.53
139.46
93.39
35.96
-24.18
-76.79
-112.84
-128.07
-125.19
-112.94
-102.54
-102.21
-113.07
-128.62
-137.93
-130.90
-102.65
-55.41
2.84
61.97
113.85
155.15
187.70
216.37
245.55
276.04
303.82
321.61
322.42
303.02
265.46
215.70
160.37
104.06
49.03
-2.80
-47.59
-78.99
-90.67
-80.17
-51.76
-15.69
15.55
32.45
32.07
18.38
-0.56
-16.98
-26.58
-29.53
-28.94
-28.50
-30.41
-34.92
-41.00
-47.57
-54.50
-62.36
-71.53
-81.12
-88.66
-90.81
-85.10
-71.49
-53.04
-34.93
-22.37
-18.48
-23.30
-34.26
-47.75
-60.70
-71.10
-77.73
-79.32
-74.52
-62.62
-44.62
-23.65
-4.17
9.69
15.92
15.45
11.68
8.92
10.65
17.97
29.22
40.58
47.78
48.07
41.43
30.61
19.84
12.74
10.84
13.27
17.59
21.09
21.96
19.76
15.46
11.26
9.99
14.44
26.24
44.91
67.61
89.67
106.21
113.64
110.72
98.37
78.94
55.39
30.65
7.43
-11.87
-25.44
-32.62
-33.96
-31.09
-26.09
-20.67
-15.80
-11.54
-7.59
-3.68
0.24
4.01
7.37
10.05
11.85
12.63
12.58
12.06
11.63
11.61
11.67
10.51
6.12
-3.37
-18.56
-37.75
-57.21
-72.49
-80.54
-81.33
-78.17
-76.14
-79.90
-91.74
-110.67
-133.24
-155.22
-173.21
-185.37
-191.19
-190.89
-184.92
-174.06
-159.70
-144.02
-129.55
-118.42
-111.39
-107.52
-104.48
-99.48
-90.63
-78.00
-63.97
-52.24
-46.03
-46.34
-51.38
-57.54
-61.41
-61.59
-59.07
-56.27
-55.24
-56.56
-59.38
-62.56
-65.66
-69.02
-72.84
-76.29
-77.61
-75.22
-69.21
-61.68
-55.56
-52.69
-52.08
-49.71
-39.90
-17.97
17.32
62.45
109.84
150.41
176.80
185.90
179.74
164.24
146.45
131.87
122.79
118.43
116.29
113.78
109.29
102.22
92.80
81.70
70.01
59.06
50.16
44.17
41.34
41.68
45.19
51.75
60.67
70.36
78.51
82.92
82.52
77.82
70.30
61.36
51.85
42.62
35.44
32.86
36.80
46.35
56.72
60.65
51.89
28.83
-4.05
-38.01
-64.22
-77.53
-77.85
-68.71
-54.38
-37.52
-18.75
2.07
24.19
45.25
62.00
71.88
74.25
70.76
64.75
59.62
57.43
58.03
59.42
58.85
54.37
45.75
34.71
23.99
16.02
11.81
10.63
10.49
9.13
5.06
-1.96
-10.94
-20.31
-28.62
-35.15
-40.01
-43.82
-47.28
-50.78
-54.35
-57.87
-61.34
-65.09
-69.53
-74.79
-80.30
-84.74
-86.36
-83.68
-76.10
-64.27
-49.81
-34.68
-20.56
-8.28
2.12
11.06
18.95
25.89
31.71
36.14
39.11
40.82
41.64
41.90
41.68
40.79
39.04
36.37
33.03
29.49
26.18
23.22
20.35
17.03
12.77
7.38
1.13
-5.39
-11.62
-17.29
-22.64
-28.25
-34.72
-42.38
-51.04
-59.92
-67.83
-73.38
-75.43
-73.28
-66.91
-56.95
-44.49
-30.78
-16.89
-3.56
8.83
20.06
29.95
38.25
44.65
49.03
51.50
52.44
52.32
51.53
50.29
48.67
46.67
44.30
41.65
38.76
35.65
32.21
28.34
24.02
19.34
14.53
9.76
5.19
0.80
-3.47
-7.74
-12.15
-16.85
-22.04
-27.88
-34.45
-41.55
-48.62
-54.74
-58.74
-59.57
-56.60
-49.90
-40.15
-28.48
-16.01
-3.63
8.20
19.21
29.15
37.62
44.10
48.16
49.74
49.27
47.49
45.23
43.05
41.09
39.16
36.97
34.41
31.68
29.14
27.05
25.34
23.52
20.96
17.13
11.98
5.92
-0.36
-6.21
-11.34
-15.89
-20.33
-25.30
-31.34
-38.70
-47.23
-56.30
-64.74
-71.10
-73.96
-72.35
-66.16
-56.10
-43.51
-29.86
-16.32
-3.58
8.11
18.70
28.07
35.96
42.07
46.12
48.06
48.06
46.52
43.95
40.91
37.91
35.31
33.28
31.74
30.44
29.04
27.26
24.93
22.01
18.52
14.52
10.02
4.99
-0.54
-6.45
-12.58
-18.74
-24.89
-31.15
-37.77
-44.85
-52.11
-58.73
-63.48
-65.04
-62.51
-55.68
-45.18
-32.23
-18.26
-4.53
8.14
19.37
29.08
37.21
43.70
48.40
51.15
52.04
51.34
49.56
47.24
44.78
42.41
40.16
37.94
35.69
33.35
30.85
28.05
24.86
21.19
17.15
12.97
8.93
5.16
1.52
-2.41
-7.07
-12.72
-19.18
-25.86
-32.09
-37.39
-41.79
-45.75
-49.75
-53.79
-57.01
-57.79
-54.27
-45.21
-30.73
-12.58
6.24
22.54
34.00
39.99
41.69
41.43
41.68
44.28
50.10
58.97
69.74
80.05
86.13
83.03
66.15
33.73
-11.17
-60.45
-103.61
-131.89
-141.94
-136.63
-122.79
-107.16
-93.12
-80.21
-66.22
-50.26
-34.49
-23.33
-20.89
-28.55
-44.04
-62.64
-79.56
-92.01
-99.98
-105.52
-111.44
-119.42
-128.80
-136.31
-137.21
-127.17
-104.58
-71.74
-34.43
0.55
28.47
48.89
65.68
84.60
109.95
141.99
176.65
207.56
229.15
239.12
238.98
232.66
224.06
215.08
205.24
192.83
176.80
157.92
138.68
121.76
108.39
97.52
86.56
73.15
56.72
38.82
21.94
7.75
-3.96
-14.81
-26.22
-37.92
-47.49
-51.50
-47.43
-35.21
-17.62
0.73
15.05
22.08
21.00
13.51
2.92
-7.25
-14.57
-18.53
-20.42
-22.36
-26.11
-32.19
-39.91
-47.91
-54.90
-59.96
-62.39
-61.43
-56.23
-46.21
-31.75
-14.52
2.63
16.47
24.40
25.43
20.47
11.88
2.19
-7.24
-17.10
-30.14
-49.47
-76.36
-108.83
-141.63
-167.77
-180.56
-175.58
-151.63
-111.22
-59.52
-3.39
50.11
95.05
128.17
150.06
164.99
179.19
197.37
221.16
248.34
273.96
292.47
300.28
297.46
287.53
275.63
264.04
252.97
241.18
227.14
209.63
188.24
163.68
137.49
111.09
80.99
44.01
-0.02
-47.49
-93.27
-133.34
-165.85
-191.23
-211.58
-236.39
-272.96
-322.29
-378.74
-434.58
-484.16
-525.13
-557.61
-583.17
-612.22
-652.24
-703.13
-757.34
-805.64
-842.16
-865.19
-875.62
-823.31
-683.83
-471.90
-235.63
-21.74
147.34
270.33
355.53
413.01
451.45
468.82
464.07
441.41
410.20
379.62
354.42
335.07
320.11
308.26
291.46
264.94
229.72
191.75
157.29
129.36
107.75
90.50
75.19
55.15
26.87
-7.80
-41.92
-67.23
-77.99
-72.79
-54.35
-24.03
9.78
39.04
59.09
69.47
72.27
69.87
63.86
55.12
44.45
31.76
18.30
6.26
-2.16
-5.83
-5.24
-2.23
1.03
2.91
2.38
0.20
-1.86
-1.89
1.11
6.60
12.81
17.46
18.81
16.00
9.65
1.12
-8.24
-17.66
-26.76
-34.99
-41.07
-42.99
-38.88
-27.65
-9.85
12.24
35.31
56.04
72.26
83.25
89.57
92.42
92.96
91.95
89.71
86.34
81.96
76.79
71.14
65.21
59.15
53.01
46.80
40.64
34.76
29.47
25.06
21.72
19.41
17.82
16.43
14.55
11.50
6.79
0.18
-8.37
-18.75
-30.80
-44.29
-58.77
-73.34
-86.62
-96.79
-101.86
-100.12
-90.71
-74.10
-52.24
-28.24
-5.52
13.14
26.36
34.19
37.65
37.89
35.64
31.22
24.96
17.63
10.45
4.71
1.08
-0.76
-1.85
-3.33
-5.80
-9.03
-12.34
-15.11
-17.19
-19.04
-21.34
-24.59
-28.79
-33.50
-38.00
-41.68
-44.23
-45.75
-46.70
-47.66
-49.19
-51.63
-54.98
-58.82
-62.33
-64.39
-63.88
-59.98
-52.47
-41.80
-29.01
-15.37
-2.18
9.56
19.13
26.07
30.22
31.69
31.01
29.12
27.29
26.87
28.86
33.54
40.25
47.56
53.77
57.56
58.52
57.19
54.65
51.88
49.24
46.42
42.85
38.28
33.10
28.16
24.33
21.93
20.55
19.20
16.81
12.58
6.30
-1.64
-10.32
-18.51
-24.91
-28.36
-28.09
-23.86
-16.02
-5.44
6.76
19.31
31.14
41.32
49.23
54.53
57.14
57.26
55.41
52.30
48.75
45.49
42.96
41.21
39.97
38.83
37.50
35.94
34.32
32.85
31.61
30.47
29.15
27.43
25.27
22.89
20.64
18.85
17.63
16.76
15.68
13.58
9.62
3.22
-5.61
-16.09
-26.66
-35.39
-40.48
-40.83
-36.20
-27.21
-15.04
-1.09
13.25
26.67
37.98
46.31
51.21
52.89
52.15
50.11
47.84
46.01
44.79
43.93
42.93
41.31
38.77
35.28
31.14
26.86
23.01
19.98
17.89
16.49
15.34
14.00
12.15
9.61
6.32
2.19
-2.83
-8.79
-15.63
-23.18
-31.21
-39.40
-47.36
-54.47
-59.94
-62.89
-62.64
-58.98
-52.28
-43.45
-33.63
-23.84
-14.81
-6.92
-0.39
4.64
7.91
9.21
8.45
5.88
2.02
-2.38
-6.61
-10.14
-12.73
-14.41
-15.36
-15.81
-15.90
-15.71
-15.29
-14.71
-14.06
-13.47
-13.04
-12.82
-12.78
-12.92
-13.25
-13.93
-15.22
-17.39
-20.67
-25.13
-30.66
-36.90
-43.17
-48.52
-51.83
-52.17
-49.01
-42.47
-33.26
-22.42
-10.99
0.28
10.96
20.81
29.59
36.97
42.55
46.09
47.53
47.11
45.26
42.49
39.33
36.26
33.64
31.65
30.27
29.31
28.50
27.50
26.01
23.77
20.61
16.45
11.48
6.06
0.73
-4.09
-8.25
-11.99
-15.90
-20.61
-26.48
-33.37
-40.64
-47.29
-52.27
-54.72
-54.03
-49.92
-42.41
-31.88
-19.09
-5.10
8.91
21.89
33.14
42.31
49.30
54.18
56.99
57.85
56.95
54.71
51.62
48.23
44.92
41.87
39.09
36.42
33.65
30.63
27.23
23.47
19.44
15.32
11.26
7.31
3.47
-0.35
-4.15
-7.87
-11.45
-14.91
-18.44
-22.41
-27.17
-32.83
-39.01
-44.82
-49.06
-50.57
-48.64
-43.22
-34.92
-24.72
-13.67
-2.64
7.78
17.19
25.27
31.74
36.37
39.11
40.14
39.83
38.64
36.99
35.11
33.07
30.83
28.37
25.71
22.95
20.20
17.51
14.84
12.13
9.34
6.46
3.46
0.29
-3.18
-7.09
-11.49
-16.39
-21.68
-27.30
-33.20
-39.35
-45.60
-51.57
-56.70
-60.31
-61.86
-61.15
-58.29
-53.63
-47.53
-40.22
-31.83
-22.51
-12.67
-2.95
5.76
12.66
17.27
19.57
19.97
19.17
17.85
16.51
15.40
14.56
13.92
13.44
13.12
12.97
12.99
13.04
12.94
12.43
11.33
9.54
7.06
3.94
0.28
-3.78
-8.11
-12.54
-16.95
-21.42
-26.12
-31.29
-37.05
-43.17
-49.06
-53.85
-56.65
-56.77
-53.93
-48.23
-40.11
-30.20
-19.19
-7.75
3.49
13.94
23.11
30.55
35.97
39.30
40.70
40.62
39.62
38.18
36.55
34.73
32.50
29.72
26.43
22.94
19.68
16.90
14.59
12.37
9.76
6.36
2.10
-2.76
-7.71
-12.23
-15.97
-18.97
-21.56
-24.36
-27.98
-32.83
-38.85
-45.48
-51.71
-56.32
-58.19
-56.59
-51.34
-42.82
-31.87
-19.58
-7.04
4.82
15.33
24.20
31.37
37.02
41.40
44.76
47.27
49.03
50.03
50.21
49.52
47.87
45.30
41.97
38.20
34.41
30.99
28.18
25.87
23.73
21.30
18.23
14.41
10.03
5.40
0.82
-3.62
-7.99
-12.49
-17.33
-22.60
-28.23
-33.96
-39.29
-43.55
-46.07
-46.32
-44.05
-39.39
-32.66
-24.31
-14.80
-4.57
5.84
15.78
24.51
31.33
35.81
37.91
37.99
36.67
34.63
32.43
30.35
28.47
26.73
25.02
23.30
21.51
19.55
17.28
14.50
11.14
7.26
3.06
-1.21
-5.43
-9.62
-13.94
-18.49
-23.22
-27.91
-32.27
-36.10
-39.43
-42.49
-45.60
-48.91
-52.19
-54.82
-55.88
-54.54
-50.35
-43.43
-34.42
-24.18
-13.58
-3.19
6.57
15.40
22.95
28.84
32.77
34.74
35.01
34.07
32.45
30.57
28.67
26.86
25.17
23.59
22.08
20.57
19.04
17.47
15.83
14.04
11.93
9.22
5.75
1.52
-3.15
-7.82
-12.09
-15.86
-19.39
-23.10
-27.32
-32.07
-36.95
-41.26
-44.25
-45.30
-44.06
-40.41
-34.44
-26.36
-16.54
-5.50
6.14
17.72
28.74
38.92
48.17
56.49
63.76
69.73
74.02
76.42
77.07
76.59
75.95
76.08
77.51
80.04
82.87
84.80
84.79
82.33
77.53
70.99
63.48
55.49
47.19
38.63
30.08
22.10
15.29
9.50
3.56
-4.80
-18.35
-39.51
-69.71
-109.48
-158.85
-217.62
-284.66
-356.58
-426.59
-485.43
-523.90
-536.44
-523.38
-490.90
-448.22
-403.53
-360.91
-319.42
-275.84
-227.99
-176.74
-125.52
-78.32
-37.27
-1.27
33.44
72.69
121.11
180.59
249.46
323.24
395.28
457.31
501.16
520.54
514.97
488.97
451.14
411.82
380.35
361.87
355.46
355.45
354.21
347.84
335.44
318.22
297.88
276.04
253.70
231.10
209.00
176.09
130.90
81.64
40.57
14.06
0.50
-4.70
-8.72
-14.48
-21.83
-27.17
-28.33
-24.52
-17.91
-11.35
-6.97
-5.81
-7.43
-10.88
-13.54
-13.90
-12.24
-10.50
-10.57
-13.58
-20.08
-29.82
-42.49
-56.65
-71.01
-84.62
-96.83
-106.63
-112.89
-115.15
-113.82
-110.51
-106.86
-104.38
-103.84
-105.20
-107.66
-110.34
-113.28
-117.69
-125.94
-140.70
-164.56
-199.21
-244.89
-299.25
-356.87
-409.73
-448.64
-465.69
-456.74
-423.16
-371.80
-313.01
-257.20
-211.53
-177.88
-153.20
-131.49
-106.75
-75.35
-36.83
7.06
54.24
103.85
156.39
212.07
268.54
319.84
357.64
374.66
368.40
342.70
306.07
267.54
232.83
202.64
173.99
143.24
108.55
71.05
33.83
-0.04
-28.86
-52.75
-71.86
-85.42
-92.21
-92.62
-89.63
-88.80
-96.90
-120.06
-162.05
-221.07
-289.10
-353.32
-400.39
-419.17
-403.90
-356.12
-285.46
-208.70
-142.33
-96.64
-72.04
-62.61
-59.49
-56.08
-51.23
-48.44
-53.41
-66.49
-81.26
-87.41
-79.54
-59.06
-33.62
-12.28
10.78
36.14
61.07
76.42
87.93
100.72
119.13
144.66
178.18
218.56
259.74
293.67
311.89
308.47
278.79
222.86
145.77
57.07
-31.55
-110.01
-169.56
-204.49
-212.99
-199.79
-173.08
-141.48
-111.20
-85.13
-64.24
-47.67
-34.10
-22.13
-11.72
-2.79
5.28
13.55
22.58
31.57
39.16
43.99
45.64
44.38
41.61
39.54
40.38
45.44
54.38
65.59
77.16
87.66
96.67
105.16
115.03
128.52
147.82
175.00
211.73
258.58
313.82
372.51
426.85
467.99
489.07
487.66
466.63
432.68
393.43
354.58
318.61
285.28
252.92
220.03
185.75
149.52
110.67
68.31
21.63
-29.29
-83.12
-137.71
-190.29
-238.53
-280.67
-315.70
-342.71
-360.64
-367.71
-361.29
-338.81
-299.56
-246.67
-187.79
-133.79
-95.90
-81.97
-93.75
-126.04
-168.29
-207.78
-233.50
-239.46
-225.85
-198.22
-164.61
-132.08
-104.38
-81.15
-58.91
-33.62
-2.80
33.49
73.24
113.95
153.32
189.01
217.75
235.41
238.18
224.52
196.87
161.25
125.26
94.67
70.70
49.94
26.74
-3.01
-38.87
-75.59
-106.01
-124.48
-129.07
-121.42
-104.09
-78.25
-43.71
-0.81
46.86
91.74
124.66
139.41
136.60
124.35
114.38
115.58
129.23
148.60
163.49
166.44
156.63
139.07
120.25
103.22
86.57
67.48
45.94
26.73
17.04
20.78
34.50
48.19
50.86
37.60
13.23
-10.99
-24.07
-21.46
-7.00
10.31
21.70
22.45
12.18
-7.25
-33.85
-65.55
-98.44
-125.42
-136.80
-123.76
-82.84
-18.78
56.10
126.24
178.39
205.74
209.21
195.29
172.17
145.78
118.55
89.72
57.09
19.02
-23.64
-66.42
-101.73
-121.51
-121.14
-101.86
-71.44
-41.40
-22.89
-22.32
-39.68
-70.00
-106.97
-147.15
-190.00
-235.79
-282.68
-325.67
-357.38
-370.71
-361.76
-331.20
-285.61
-232.16
-174.62
-112.62
-44.67
28.26
101.13
165.70
213.66
235.46
228.44
199.18
160.46
124.19
96.91
79.84
71.00
67.72
60.39
41.99
12.15
-23.55
-58.95
-90.66
-117.79
-140.84
-161.13
-190.57
-239.33
-309.51
-394.94
-487.71
-582.62
-677.35
-771.13
-802.52
-736.56
-587.78
-409.71
-250.12
-129.24
-46.76
6.59
42.93
74.59
102.38
125.42
145.22
165.41
186.72
206.21
220.85
230.40
237.57
238.13
228.09
207.52
181.51
155.94
134.68
120.39
113.96
114.57
115.20
109.36
94.82
75.06
55.42
40.39
32.80
33.42
41.00
50.22
55.53
53.73
45.66
34.27
23.19
15.82
14.38
19.41
29.06
41.34
51.51
59.08
65.89
75.10
90.10
113.61
147.26
191.26
243.94
301.32
357.66
405.35
436.90
447.17
435.01
403.48
358.28
305.53
249.84
194.18
139.67
86.70
35.91
-11.64
-54.65
-92.19
-124.01
-150.37
-171.57
-187.95
-199.52
-205.68
-205.53
-198.75
-187.04
-175.18
-170.36
-179.48
-205.48
-244.31
-284.91
-313.03
-317.11
-293.63
-248.70
-195.07
-146.08
-109.80
-86.31
-69.21
-50.26
-24.27
8.06
40.46
64.12
71.33
58.75
28.78
-11.22
-51.21
-81.51
-95.05
-88.70
-63.08
-22.21
27.20
75.91
113.00
128.51
117.05
81.25
32.16
-14.39
-44.66
-52.90
-43.29
-27.23
-17.07
-20.26
-37.01
-61.86
-87.25
-106.93
-117.02
-115.51
-101.48
-75.33
-39.79
-0.79
33.63
55.93
61.88
52.27
32.34
9.36
-9.71
-20.44
-21.10
-12.14
5.07
29.41
60.55
98.99
145.31
198.89
256.55
311.87
356.41
382.48
386.94
373.45
351.56
332.63
324.53
327.81
335.95
339.33
330.39
307.10
272.79
233.12
192.34
151.51
109.27
64.07
16.32
-31.30
-74.88
-111.28
-139.36
-160.13
-176.02
-189.93
-204.33
-220.52
-237.87
-253.55
-262.99
-261.68
-247.52
-222.60
-193.13
-166.93
-149.65
-141.56
-137.12
-128.10
-108.22
-76.80
-39.12
-3.09
25.35
45.17
59.70
73.29
87.58
99.81
104.40
96.25
73.62
39.08
-2.17
-45.15
-87.45
-129.62
-173.40
-219.08
-263.61
-300.85
-323.77
-327.91
-313.65
-286.32
-253.88
-223.30
-197.93
-176.99
-157.40
-136.60
-114.44
-93.06
-75.21
-62.27
-53.46
-46.54
-39.34
-31.16
-22.96
-16.85
-14.84
-17.72
-24.71
-33.73
-42.24
-48.29
-51.21
-51.77
-51.61
-52.35
-54.65
-57.80
-59.94
-58.89
-53.11
-42.38
-27.94
-11.67
4.73
20.69
37.09
55.89
79.53
110.44
150.77
202.08
264.52
335.62
409.59
477.84
531.07
562.33
569.54
556.09
529.20
496.78
464.70
435.56
409.36
385.12
362.21
340.55
320.05
299.84
278.36
254.11
226.65
197.03
167.32
139.68
115.21
93.46
72.88
51.79
29.57
7.10
-13.51
-30.08
-41.52
-48.65
-53.92
-60.27
-69.64
-81.95
-95.11
-106.28
-113.44
-116.69
-118.47
-122.31
-131.26
-146.72
-168.53
-195.55
-226.33
-258.56
-287.86
-307.59
-310.57
-292.73
-256.43
-210.71
-167.27
-134.20
-111.28
-90.43
-61.37
-19.13
31.56
77.89
105.76
107.15
83.48
43.24
-4.19
-53.97
-106.72
-165.22
-229.36
-293.57
-348.66
-386.41
-404.09
-405.58
-398.63
-390.06
-382.08
-371.87
-353.91
-324.05
-282.13
-231.96
-179.51
-130.45
-88.61
-55.78
-31.94
-15.17
-1.34
15.31
40.05
74.31
113.26
145.97
159.26
143.74
99.00
34.79
-32.41
-86.03
-115.72
-120.08
-105.08
-79.56
-50.58
-21.13
9.21
41.69
76.14
109.97
139.36
161.03
173.71
178.58
178.18
174.76
169.13
160.46
147.30
129.16
107.59
86.18
69.27
59.90
58.10
60.49
61.44
55.47
39.80
15.77
-11.28
-34.02
-45.98
-43.87
-28.57
-4.35
23.08
48.78
69.85
85.53
96.28
102.77
105.33
104.21
100.08
94.30
88.68
84.67
82.67
81.76
80.18
76.18
68.90
58.52
46.12
33.08
20.58
9.53
0.61
-5.54
-8.42
-7.98
-4.95
-0.98
1.70
0.90
-4.90
-16.01
-31.45
-49.12
-66.31
-80.26
-88.86
-91.01
-86.81
-77.24
-63.76
-47.78
-30.41
-12.42
5.46
22.44
37.55
49.85
58.73
63.97
65.88
65.10
62.43
58.66
54.50
50.49
47.04
44.44
42.90
42.50
43.16
44.46
45.65
45.73
43.75
39.10
31.84
22.65
12.65
3.00
-5.55
-12.93
-19.72
-26.82
-34.98
-44.39
-54.45
-63.88
-71.08
-74.60
-73.49
-67.57
-57.40
-44.08
-28.88
-12.99
2.77
17.90
32.12
45.16
56.58
65.77
72.14
75.35
75.49
73.03
68.65
62.93
56.33
49.21
42.04
35.48
30.31
27.08
25.82
25.83
25.87
24.49
20.59
13.76
4.39
-6.50
-17.59
-27.60
-35.70
-41.70
-46.13
-50.10
-54.89
-61.47
-69.91
-79.21
-87.46
-92.38
-92.13
-85.86
-73.94
-57.67
-38.81
-19.11
-0.00
17.41
32.23
43.76
51.57
55.65
56.56
55.32
53.07
50.72
48.65
46.70
44.42
41.41
37.58
33.27
29.12
25.81
23.71
22.65
21.83
20.10
16.34
9.95
1.11
-9.24
-19.80
-29.38
-37.38
-43.83
-49.29
-54.46
-59.88
-65.79
-71.98
-77.92
-82.71
-85.24
-84.32
-78.99
-68.80
-54.08
-36.00
-16.34
2.92
20.07
33.95
44.08
50.51
53.68
54.19
52.70
49.92
46.67
43.68
41.52
40.36
39.94
39.66
38.84
37.02
34.12
30.35
26.08
21.54
16.77
11.58
5.76
-0.73
-7.78
-15.06
-22.31
-29.42
-36.55
-44.11
-52.55
-62.15
-72.62
-83.03
-91.81
-97.14
-97.50
-92.13
-81.35
-66.42
-49.17
-31.45
-14.65
0.59
14.25
26.66
38.11
48.53
57.47
64.23
68.16
68.94
66.70
62.03
55.82
49.09
42.75
37.59
34.02
32.11
31.48
31.37
30.87
29.12
25.60
20.20
13.21
5.15
-3.36
-11.81
-19.88
-27.56
-35.11
-42.99
-51.62
-61.11
-70.99
-80.13
-86.94
-89.72
-87.22
-78.98
-65.56
-48.33
-29.08
-9.53
9.02
25.82
40.47
52.78
62.50
69.34
73.11
73.88
72.05
68.22
63.04
57.06
50.78
44.73
39.52
35.79
33.92
33.81
34.71
35.41
34.53
31.05
24.54
15.37
4.52
-6.68
-16.90
-25.15
-31.06
-34.95
-37.75
-40.74
-45.09
-51.43
-59.55
-68.34
-75.95
-80.32
-79.72
-73.30
-61.38
-45.35
-27.24
-9.10
7.49
21.71
33.32
42.35
48.81
52.66
53.93
53.04
50.73
47.94
45.35
43.15
40.95
38.14
34.33
29.68
24.98
21.16
18.88
18.00
17.55
16.11
12.35
5.69
-3.47
-13.86
-23.87
-32.14
-38.10
-42.10
-45.20
-48.67
-53.47
-59.87
-67.32
-74.57
-80.03
-82.09
-79.51
-71.72
-58.96
-42.26
-23.30
-4.03
13.69
28.46
39.55
46.83
50.58
51.30
49.58
46.15
41.74
37.20
33.14
29.90
27.38
25.18
22.89
20.29
17.46
14.69
12.14
9.77
7.23
4.01
-0.26
-5.69
-12.03
-18.88
-25.78
-32.41
-38.66
-44.65
-50.64
-56.93
-63.61
-70.38
-76.43
-80.45
-81.02
-76.99
-67.96
-54.47
-37.95
-20.27
-3.16
12.17
25.31
36.43
45.95
54.08
60.70
65.38
67.63
67.22
64.34
59.59
53.82
47.92
42.58
38.23
35.00
32.72
31.02
29.36
27.18
24.01
19.59
13.88
7.16
-0.10
-7.36
-14.12
-20.14
-25.48
-30.54
-35.93
-42.32
-50.01
-58.81
-67.76
-75.37
-79.94
-79.97
-74.66
-64.14
-49.41
-32.04
-13.72
4.08
20.31
34.35
45.82
54.49
60.23
63.10
63.39
61.65
58.56
54.75
50.72
46.75
43.07
39.86
37.35
35.68
34.79
34.32
33.64
32.02
28.83
23.74
16.84
8.67
0.04
-8.11
-15.05
-20.40
-24.34
-27.59
-31.15
-35.96
-42.59
-50.84
-59.69
-67.45
-72.14
-72.06
-66.28
-54.91
-39.16
-20.91
-2.27
14.92
29.37
40.40
47.87
52.00
53.29
52.42
50.15
47.20
44.06
40.98
37.93
34.76
31.34
27.61
23.70
19.84
16.32
13.34
10.84
8.45
5.54
1.41
-4.33
-11.54
-19.46
-26.99
-33.10
-37.33
-40.01
-42.09
-44.80
-49.11
-55.32
-62.92
-70.66
-76.83
-79.73
-78.05
-71.25
-59.68
-44.51
-27.44
-10.28
5.39
18.52
28.56
35.50
39.59
41.31
41.18
39.82
37.85
35.79
33.95
32.37
30.81
28.99
26.67
23.90
20.94
18.14
15.71
13.56
11.28
8.37
4.49
-0.42
-6.03
-11.85
-17.42
-22.56
-27.40
-32.26
-37.55
-43.54
-50.25
-57.32
-64.06
-69.42
-72.18
-71.14
-65.52
-55.28
-41.29
-25.14
-8.71
6.32
19.03
29.18
37.14
43.44
48.43
52.20
54.55
55.21
53.97
50.81
46.02
40.16
34.06
28.70
24.92
23.17
23.29
24.53
25.80
25.96
24.19
20.17
14.14
6.78
-1.01
-8.30
-14.43
-19.23
-23.15
-27.04
-31.96
-38.61
-47.00
-56.27
-64.71
-70.33
-71.32
-66.76
-56.78
-42.66
-26.34
-9.91
5.03
17.66
27.92
36.26
43.21
49.11
54.00
57.62
59.64
59.75
57.78
53.81
48.23
41.75
35.37
30.15
26.99
26.25
27.59
29.91
31.67
31.27
27.58
20.35
10.35
-0.89
-11.52
-20.06
-25.85
-29.30
-31.66
-34.49
-39.11
-46.06
-54.97
-64.61
-73.17
-78.68
-79.52
-74.73
-64.37
-49.55
-32.21
-14.63
1.17
13.87
23.09
29.21
32.95
35.09
36.19
36.58
36.47
35.99
35.20
34.04
32.34
29.94
26.88
23.58
20.74
19.06
18.92
19.99
21.26
21.31
18.92
13.57
5.67
-3.51
-12.43
-19.78
-24.93
-28.12
-30.23
-32.43
-35.72
-40.60
-46.87
-53.61
-59.37
-62.50
-61.54
-55.72
-45.18
-31.10
-15.39
-0.16
12.84
22.65
29.15
32.91
34.67
35.07
34.45
33.01
30.89
28.37
25.77
23.34
21.19
19.25
17.39
15.56
13.85
12.43
11.44
10.81
10.18
9.00
6.71
2.97
-2.15
-8.15
-14.24
-19.69
-24.09
-27.54
-30.70
-34.43
-39.47
-46.00
-53.45
-60.58
-65.76
-67.49
-64.82
-57.63
-46.62
-33.04
-18.38
-3.96
9.23
20.61
29.91
37.06
42.06
45.06
46.30
46.16
45.03
43.24
40.94
38.12
34.78
31.11
27.51
24.55
22.66
21.87
21.73
21.45
20.20
17.40
12.99
7.35
1.17
-4.87
-10.29
-15.03
-19.35
-23.77
-28.83
-34.89
-41.96
-49.53
-56.58
-61.75
-63.62
-61.11
-53.85
-42.36
-27.94
-12.34
2.79
16.18
27.20
35.76
42.06
46.45
49.25
50.72
51.05
50.39
48.79
46.34
43.17
39.52
35.75
32.28
29.46
27.44
26.09
24.97
23.40
20.69
16.31
10.16
2.63
-5.43
-12.96
-19.03
-23.16
-25.53
-26.90
-28.41
-31.19
-35.92
-42.64
-50.58
-58.34
-64.22
-66.61
-64.44
-57.46
-46.29
-32.31
-17.21
-2.69
9.99
20.09
27.42
32.16
34.72
35.53
35.07
33.72
31.83
29.67
27.40
25.13
22.85
20.63
18.58
16.90
15.84
15.52
15.81
16.26
16.14
14.68
11.36
6.11
-0.54
-7.58
-13.91
-18.64
-21.52
-22.94
-23.83
-25.36
-28.44
-33.42
-39.83
-46.52
-51.87
-54.25
-52.48
-46.15
-35.77
-22.58
-8.27
5.49
17.41
26.77
33.41
37.55
39.60
40.01
39.20
37.61
35.70
33.84
32.25
30.87
29.49
27.80
25.71
23.36
21.08
19.20
17.80
16.64
15.17
12.79
9.11
4.10
-1.87
-8.23
-14.40
-20.04
-25.11
-29.83
-34.55
-39.57
-45.03
-50.88
-56.72
-61.85
-65.26
-65.81
-62.58
-55.18
-44.07
-30.42
-15.77
-1.58
11.18
22.13
31.28
38.80
44.70
48.85
51.04
51.19
49.43
46.10
41.72
36.88
32.15
28.07
25.04
23.25
22.58
22.57
22.54
21.71
19.40
15.31
9.54
2.60
-4.74
-11.72
-17.80
-22.79
-26.96
-30.82
-35.02
-40.04
-45.98
-52.43
-58.36
-62.41
-63.17
-59.60
-51.45
-39.39
-24.86
-9.66
4.57
16.80
26.67
34.43
40.51
45.26
48.80
51.06
51.96
51.47
49.75
46.97
43.28
38.85
33.93
29.00
24.73
21.80
20.59
20.95
22.08
22.84
22.13
19.32
14.49
8.33
1.96
-3.52
-7.19
-8.57
-7.57
-4.66
-0.74
3.00
5.53
6.41
6.23
6.51
9.27
16.14
27.56
42.41
58.38
72.76
83.64
90.64
95.00
98.95
104.52
112.52
122.02
130.75
136.02
135.85
129.51
117.48
100.94
81.23
59.45
36.39
12.56
-11.91
-37.16
-63.28
-89.89
-115.64
-138.29
-155.37
-165.05
-166.97
-162.37
-153.76
-144.11
-136.05
-131.16
-129.68
-130.67
-132.42
-133.02
-130.81
-124.57
-113.56
-97.32
-75.74
-49.33
-19.59
10.89
38.79
61.07
75.89
83.11
83.69
78.96
69.75
56.57
40.20
21.88
3.09
-15.32
-33.83
-53.79
-76.04
-99.41
-120.25
-133.89
-137.48
-132.13
-122.84
-115.72
-114.15
-116.35
-116.27
-107.36
-87.10
-59.30
-32.67
-16.62
-16.42
-30.84
-53.03
-74.09
-86.85
-88.06
-78.39
-60.65
-37.83
-12.13
15.21
43.39
71.51
98.46
123.14
145.02
164.48
182.83
201.69
221.97
242.88
261.49
273.62
275.66
266.82
250.48
233.39
223.11
224.65
238.16
258.83
278.90
291.04
290.90
278.18
255.73
227.67
197.48
167.09
137.22
108.33
81.51
58.41
40.33
27.04
16.16
3.74
-13.99
-38.71
-68.92
-100.36
-127.80
-147.23
-157.62
-160.95
-161.39
-163.55
-171.10
-186.14
-209.71
-242.61
-285.58
-338.46
-398.46
-458.88
-509.54
-539.49
-540.95
-512.70
-460.80
-396.13
-329.78
-268.63
-213.27
-159.33
-101.09
-35.60
34.92
103.33
160.24
197.24
209.59
197.08
163.49
115.36
60.55
7.42
-36.26
-64.68
-75.85
-72.78
-63.03
-56.06
-58.97
-72.96
-92.53
-108.29
-111.86
-100.19
-76.52
-47.95
-21.01
1.54
20.95
39.87
59.07
75.71
84.74
82.14
68.23
48.31
30.11
19.69
18.56
23.65
29.95
34.17
36.55
39.97
47.03
57.41
67.61
73.28
72.63
68.27
66.14
71.96
87.58
109.81
132.48
150.20
161.18
167.50
172.83
179.51
187.04
192.66
193.63
189.12
180.53
169.74
156.97
139.79
114.36
78.32
33.51
-13.44
-53.66
-80.23
-91.69
-92.28
-88.84
-86.07
-83.86
-78.20
-65.24
-45.37
-24.21
-9.53
-6.22
-12.89
-22.66
-27.50
-23.25
-11.65
1.55
10.75
13.78
12.21
8.89
5.11
-0.40
-9.80
-23.45
-38.45
-49.71
-52.96
-47.70
-38.03
-30.71
-31.40
-41.29
-56.11
-68.10
-69.81
-57.85
-34.35
-5.73
20.60
39.59
50.23
55.09
58.15
62.38
68.51
75.20
80.47
83.25
83.78
82.99
81.10
76.65
66.61
47.67
17.97
-21.83
-68.63
-118.31
-167.33
-213.69
-256.31
-293.69
-322.93
-340.40
-343.89
-334.52
-317.22
-298.51
-283.14
-271.52
-259.60
-241.26
-211.86
-170.76
-121.70
-71.13
-25.59
10.62
36.48
54.13
67.91
83.08
104.31
134.11
172.06
214.96
258.24
297.86
331.66
359.48
382.00
399.23
409.62
410.71
400.90
381.14
355.43
329.60
308.50
293.43
281.28
265.96
241.54
205.10
158.06
105.18
52.26
3.82
-37.88
-72.14
-98.32
-114.82
-119.67
-112.29
-95.23
-74.45
-57.43
-50.00
-53.57
-64.60
-76.76
-84.58
-86.32
-84.40
-83.36
-86.66
-94.62
-104.71
-113.53
-119.06
-121.49
-122.27
-122.29
-120.85
-115.91
-105.49
-89.19
-68.75
-47.41
-28.56
-14.47
-5.85
-2.23
-2.65
-6.30
-12.59
-20.64
-28.71
-33.99
-33.29
-24.31
-7.11
15.45
38.37
56.37
65.89
66.27
59.50
48.88
37.34
26.47
16.44
6.69
-3.29
-13.51
-23.48
-32.48
-39.85
-45.05
-47.67
-47.54
-44.70
-39.48
-32.39
-24.07
-15.16
-6.19
2.25
9.50
14.82
17.61
17.72
15.60
12.39
9.50
8.09
8.60
10.51
12.69
14.03
14.09
13.30
12.65
13.04
14.67
16.92
18.69
19.05
17.56
14.38
10.00
4.92
-0.53
-6.17
-11.78
-17.08
-21.81
-25.87
-29.33
-32.33
-34.84
-36.56
-36.99
-35.72
-32.61
-27.92
-22.11
-15.60
-8.60
-1.16
6.52
13.95
20.43
25.27
28.25
29.74
30.56
31.46
32.63
33.52
33.21
30.87
26.43
20.69
14.97
10.50
7.91
7.02
7.04
7.04
6.38
4.80
2.45
-0.41
-3.59
-7.11
-11.06
-15.53
-20.52
-25.86
-31.27
-36.36
-40.75
-44.06
-46.00
-46.37
-45.00
-41.79
-36.67
-29.62
-20.76
-10.47
0.63
11.63
21.51
29.37
34.64
37.32
37.95
37.44
36.67
36.21
36.09
36.00
35.46
34.20
32.28
30.01
27.76
25.72
23.77
21.59
18.81
15.22
10.77
5.61
-0.00
-5.78
-11.43
-16.76
-21.81
-26.80
-32.09
-37.91
-44.12
-50.07
-54.83
-57.52
-57.59
-55.04
-50.23
-43.61
-35.43
-25.81
-14.90
-3.21
8.40
18.87
27.33
33.43
37.33
39.49
40.40
40.32
39.39
37.73
35.58
33.31
31.28
29.62
28.25
26.84
25.06
22.65
19.58
15.99
12.19
8.53
5.35
2.82
0.82
-1.06
-3.47
-7.09
-12.43
-19.65
-28.44
-38.05
-47.30
-54.85
-59.43
-60.26
-57.22
-50.81
-41.97
-31.76
-21.02
-10.32
0.00
9.66
18.34
25.71
31.48
35.57
38.05
39.09
38.96
38.01
36.66
35.37
34.46
33.98
33.67
33.05
31.66
29.22
25.72
21.35
16.41
11.21
6.05
1.12
-3.45
-7.72
-11.92
-16.37
-21.33
-26.92
-33.08
-39.57
-46.05
-52.07
-57.06
-60.31
-61.20
-59.32
-54.64
-47.53
-38.58
-28.45
-17.65
-6.68
4.01
13.84
22.21
28.64
32.91
35.23
36.04
35.92
35.37
34.66
33.87
32.90
31.64
29.98
27.85
25.29
22.41
19.34
16.24
13.17
10.04
6.71
3.01
-1.08
-5.44
-9.83
-14.06
-18.11
-22.27
-26.96
-32.53
-38.97
-45.83
-52.27
-57.26
-59.92
-59.76
-56.65
-50.91
-43.06
-33.79
-23.78
-13.63
-3.74
5.63
14.28
22.04
28.61
33.67
36.96
38.51
38.67
38.02
37.13
36.31
35.53
34.52
33.03
30.99
28.53
25.86
23.07
20.07
16.67
12.75
8.44
4.05
-0.10
-3.89
-7.61
-11.79
-16.98
-23.42
-30.88
-38.74
-46.13
-52.24
-56.39
-58.17
-57.36
-54.01
-48.35
-40.82
-31.95
-22.25
-12.14
-1.93
8.08
17.52
25.87
32.62
37.40
40.16
41.24
41.25
40.78
40.22
39.61
38.75
37.40
35.50
33.24
30.91
28.65
26.37
23.74
20.41
16.24
11.43
6.43
1.73
-2.39
-5.99
-9.39
-13.01
-17.21
-22.21
-28.06
-34.56
-41.24
-47.31
-51.83
-53.86
-52.81
-48.62
-41.74
-32.98
-23.22
-13.16
-3.26
6.14
14.69
21.93
27.42
31.00
32.89
33.64
33.91
34.12
34.29
34.12
33.27
31.60
29.35
26.92
24.68
22.73
20.82
18.52
15.49
11.66
7.23
2.62
-1.84
-5.92
-9.60
-12.98
-16.29
-19.82
-23.86
-28.71
-34.49
-40.99
-47.61
-53.43
-57.38
-58.54
-56.51
-51.41
-43.89
-34.84
-25.10
-15.28
-5.77
3.24
11.55
18.83
24.75
29.05
31.71
33.02
33.45
33.42
33.11
32.45
31.21
29.34
26.99
24.60
22.54
20.96
19.62
17.97
15.47
11.83
7.18
2.02
-3.10
-7.77
-11.94
-15.86
-19.96
-24.66
-30.24
-36.70
-43.71
-50.59
-56.44
-60.33
-61.47
-59.50
-54.54
-47.16
-38.10
-28.08
-17.59
-6.89
3.78
14.06
23.40
31.15
36.83
40.24
41.60
41.42
40.35
38.86
37.24
35.52
33.59
31.43
29.18
27.09
25.37
24.05
22.81
21.14
18.56
14.83
10.08
4.72
-0.76
-6.03
-10.99
-15.80
-20.73
-26.05
-31.93
-38.35
-44.90
-50.85
-55.14
-56.72
-54.87
-49.57
-41.50
-31.82
-21.73
-12.06
-3.08
5.40
13.73
22.02
29.99
36.92
42.01
44.71
45.01
43.52
41.18
38.89
37.13
35.85
34.65
33.09
30.99
28.48
25.85
23.30
20.79
18.08
14.89
11.11
6.85
2.38
-2.03
-6.20
-10.14
-14.09
-18.38
-23.41
-29.46
-36.50
-44.02
-51.01
-56.13
-58.13
-56.25
-50.58
-42.01
-31.87
-21.47
-11.67
-2.71
5.52
13.09
19.81
25.15
28.55
29.81
29.32
27.91
26.57
25.91
26.02
26.50
26.78
26.48
25.53
24.14
22.60
21.03
19.40
17.46
14.96
11.76
7.89
3.57
-0.93
-5.39
-9.72
-14.01
-18.49
-23.38
-28.76
-34.56
-40.49
-46.11
-50.82
-53.92
-54.73
-52.71
-47.74
-40.16
-30.75
-20.47
-10.17
-0.42
8.55
16.60
23.56
29.19
33.26
35.69
36.64
36.48
35.60
34.34
32.88
31.29
29.63
28.00
26.46
25.01
23.53
21.79
19.52
16.53
12.83
8.59
4.07
-0.54
-5.14
-9.78
-14.60
-19.69
-25.11
-30.90
-37.06
-43.50
-49.89
-55.55
-59.54
-60.95
-59.21
-54.37
-47.05
-38.13
-28.38
-18.21
-7.80
2.74
13.06
22.57
30.63
36.81
40.98
43.39
44.37
44.30
43.42
41.97
40.12
38.05
35.89
33.69
31.47
29.24
27.00
24.75
22.38
19.64
16.28
12.12
7.28
2.07
-3.03
-7.74
-12.07
-16.37
-21.17
-26.90
-33.62
-40.91
-47.98
-53.77
-57.27
-57.80
-55.14
-49.58
-41.82
-32.75
-23.15
-13.51
-4.07
5.11
13.89
21.94
28.76
33.83
36.88
38.00
37.60
36.33
34.73
33.19
31.88
30.85
30.14
29.76
29.66
29.58
29.19
28.07
25.98
22.92
19.12
14.89
10.54
6.20
1.88
-2.51
-7.04
-11.80
-16.94
-22.67
-29.14
-36.31
-43.71
-50.44
-55.29
-57.13
-55.27
-49.77
-41.45
-31.59
-21.49
-12.02
-3.45
4.39
11.78
18.74
24.88
29.57
32.29
32.90
31.84
29.97
28.17
27.00
26.51
26.27
25.71
24.43
22.41
20.01
17.65
15.59
13.74
11.76
9.28
6.05
2.07
-2.47
-7.33
-12.35
-17.47
-22.64
-27.82
-33.00
-38.19
-43.32
-48.20
-52.32
-54.97
-55.41
-53.12
-48.07
-40.71
-31.83
-22.28
-12.75
-3.71
4.59
11.97
18.31
23.56
27.71
30.80
32.88
33.98
34.12
33.38
31.97
30.18
28.34
26.67
25.21
23.90
22.51
20.82
18.60
15.69
12.10
8.00
3.73
-0.34
-4.03
-7.39
-10.77
-14.62
-19.33
-25.03
-31.62
-38.76
-45.94
-52.44
-57.41
-59.96
-59.39
-55.45
-48.53
-39.43
-29.16
-18.53
-8.03
2.07
11.55
20.06
27.20
32.66
36.39
38.62
39.76
40.24
40.30
40.02
39.32
38.15
36.51
34.54
32.49
30.55
28.75
26.87
24.50
21.21
16.81
11.48
5.75
0.26
-4.49
-8.36
-11.64
-14.86
-18.64
-23.43
-29.42
-36.34
-43.53
-49.94
-54.44
-56.07
-54.35
-49.38
-41.78
-32.46
-22.34
-12.17
-2.46
6.48
14.49
21.43
27.18
31.64
34.72
36.46
37.04
36.81
36.18
35.49
34.84
34.10
32.99
31.29
29.00
26.35
23.62
20.97
18.30
15.38
11.95
8.05
3.97
0.12
-3.17
-5.88
-8.33
-11.11
-14.75
-19.59
-25.67
-32.62
-39.77
-46.27
-51.27
-54.08
-54.28
-51.84
-46.99
-40.18
-31.95
-22.88
-13.68
-5.10
2.08
7.28
10.30
11.38
11.10
10.23
9.71
10.68
14.52
22.55
35.41
52.26
70.44
86.02
95.12
95.43
86.94
71.74
52.84
32.95
13.81
-3.57
-18.44
-29.90
-37.16
-40.30
-40.75
-41.41
-45.75
-56.36
-73.54
-94.51
-113.93
-125.64
-125.04
-111.05
-86.68
-57.72
-30.10
-7.47
9.87
23.92
36.83
49.01
58.74
63.43
61.74
54.89
46.33
40.05
38.38
40.88
44.65
46.13
43.07
35.69
26.47
18.55
14.10
13.25
14.26
14.75
13.17
9.56
5.33
2.17
0.88
0.86
0.50
-2.01
-7.74
-16.61
-27.55
-39.01
-49.45
-57.80
-63.59
-66.88
-68.02
-67.28
-64.67
-59.85
-52.41
-42.21
-29.68
-15.77
-1.67
11.65
23.62
34.03
42.79
49.76
54.78
57.87
59.31
59.45
58.50
56.43
53.02
48.27
42.60
36.72
31.33
26.72
22.57
18.26
13.34
7.82
2.30
-2.49
-6.11
-8.68
-10.93
-13.73
-17.70
-23.04
-29.45
-36.35
-43.07
-49.02
-53.63
-56.37
-56.80
-54.67
-50.17
-43.89
-36.73
-29.56
-22.80
-16.25
-9.31
-1.35
7.81
17.60
26.94
34.68
40.14
43.44
45.33
46.76
48.26
49.71
50.53
50.15
48.41
45.77
43.01
40.71
38.83
36.83
33.98
29.84
24.56
18.72
12.98
7.68
2.72
-2.32
-7.82
-13.99
-20.74
-27.81
-34.93
-41.80
-47.97
-52.77
-55.41
-55.22
-52.02
-46.21
-38.65
-30.30
-21.82
-13.46
-5.22
2.81
10.15
16.09
20.04
21.88
22.16
21.80
21.74
22.43
23.77
25.17
25.98
25.71
24.20
21.62
18.31
14.72
11.16
7.83
4.67
1.47
-2.00
-5.83
-9.95
-14.15
-18.24
-22.22
-26.33
-30.95
-36.38
-42.62
-49.24
-55.34
-59.78
-61.48
-59.83
-54.83
-47.14
-37.81
-27.87
-18.03
-8.57
0.52
9.27
17.57
25.06
31.36
36.22
39.63
41.74
42.79
42.93
42.18
40.58
38.30
35.67
33.13
31.02
29.40
28.02
26.47
24.34
21.47
17.94
14.04
10.06
6.16
2.33
-1.58
-5.75
-10.37
-15.65
-21.80
-28.99
-37.19
-45.94
-54.30
-60.96
-64.69
-64.75
-61.16
-54.61
-46.12
-36.55
-26.36
-15.72
-4.76
6.10
16.13
24.50
30.63
34.39
36.18
36.67
36.53
36.22
35.94
35.65
35.28
34.74
34.06
33.31
32.50
31.47
29.95
27.69
24.59
20.83
16.77
12.73
8.88
5.12
1.21
-3.02
-7.70
-12.91
-18.79
-25.55
-33.24
-41.46
-49.18
-55.02
-57.70
-56.59
-51.93
-44.64
-35.86
-26.50
-17.03
-7.58
1.79
10.88
19.31
26.66
32.58
36.87
39.52
40.63
40.45
39.28
37.56
35.64
33.83
32.24
30.86
29.60
28.31
26.83
25.00
22.66
19.71
16.17
12.19
7.99
3.88
-0.00
-3.62
-7.16
-10.96
-15.37
-20.60
-26.70
-33.47
-40.51
-47.25
-52.97
-56.86
-58.19
-56.54
-51.91
-44.78
-35.96
-26.29
-16.42
-6.69
2.68
11.42
19.07
25.05
28.98
30.94
31.48
31.46
31.57
32.09
32.80
33.24
33.02
32.07
30.61
28.95
27.29
25.55
23.44
20.64
16.99
12.54
7.61
2.60
-2.12
-6.39
-10.33
-14.28
-18.64
-23.64
-29.25
-35.20
-41.12
-46.68
-51.51
-55.10
-56.79
-55.88
-51.97
-45.22
-36.35
-26.37
-16.16
-6.20
3.36
12.52
21.07
28.56
34.53
38.68
41.11
42.12
42.08
41.24
39.73
37.67
35.17
32.42
29.58
26.82
24.22
21.85
19.68
17.54
15.19
12.35
8.87
4.82
0.50
-3.74
-7.72
-11.47
-15.25
-19.44
-24.38
-30.14
-36.51
-42.83
-48.14
-51.38
-51.75
-49.00
-43.49
-36.07
-27.58
-18.62
-9.35
0.19
9.85
19.10
27.07
32.98
36.42
37.59
37.21
36.18
35.20
34.64
34.48
34.47
34.38
34.03
33.33
32.19
30.51
28.11
24.90
20.90
16.31
11.48
6.85
2.74
-0.67
-3.50
-6.11
-9.01
-12.67
-17.39
-23.21
-29.96
-37.26
-44.58
-51.14
-55.97
-58.08
-56.72
-51.71
-43.64
-33.71
-23.27
-13.41
-4.66
2.97
9.71
15.63
20.58
24.26
26.49
27.37
27.32
26.85
26.37
26.02
25.73
25.28
24.49
23.31
21.79
20.06
18.24
16.32
14.17
11.57
8.35
4.53
0.33
-3.90
-7.86
-11.48
-14.94
-18.61
-22.84
-27.85
-33.61
-39.92
-46.32
-52.17
-56.64
-58.84
-58.08
-54.15
-47.44
-38.76
-29.12
-19.31
-9.80
-0.75
7.81
15.71
22.64
28.21
32.15
34.47
35.43
35.52
35.26
34.99
34.82
34.59
34.10
33.17
31.84
30.29
28.66
26.88
24.68
21.68
17.60
12.47
6.61
0.54
-5.28
-10.59
-15.47
-20.20
-25.15
-30.60
-36.67
-43.17
-49.60
-55.21
-59.09
-60.47
-58.87
-54.31
-47.20
-38.23
-28.11
-17.45
-6.70
3.73
13.46
22.06
29.16
34.56
38.26
40.48
41.50
41.63
41.08
39.97
38.41
36.54
34.48
32.42
30.49
28.76
27.14
25.40
23.19
20.27
16.53
12.18
7.54
2.94
-1.48
-5.81
-10.31
-15.32
-21.07
-27.63
-34.83
-42.16
-48.85
-53.97
-56.60
-56.20
-52.71
-46.59
-38.62
-29.55
-19.86
-9.86
0.25
10.11
19.16
26.79
32.55
36.30
38.31
39.08
39.10
38.77
38.22
37.44
36.34
34.85
32.99
30.92
28.82
26.86
25.07
23.30
21.23
18.50
14.86
10.32
5.20
-0.01
-4.81
-8.94
-12.47
-15.79
-19.43
-23.86
-29.27
-35.57
-42.36
-48.96
-54.53
-58.21
-59.19
-57.05
-51.76
-43.84
-34.19
-23.79
-13.52
-3.95
4.60
11.95
17.98
22.56
25.71
27.66
28.78
29.46
29.93
30.24
30.26
29.86
29.07
28.02
26.87
25.62
24.17
22.29
19.81
16.72
13.16
9.38
5.58
1.91
-1.60
-5.08
-8.77
-12.96
-17.91
-23.72
-30.27
-37.19
-43.98
-50.02
-54.70
-57.42
-57.68
-55.19
-49.92
-42.26
-32.88
-22.62
-12.28
-2.57
6.02
13.18
18.86
23.17
26.42
28.88
30.60
31.39
30.89
28.94
25.85
22.40
19.58
18.07
17.88
18.23
17.96
16.10
12.24
6.65
0.07
-6.66
-12.85
-17.88
-21.19
-22.52
-22.44
-22.78
-26.38
-35.80
-51.70
-71.57
-90.09
-101.08
-100.13
-86.32
-62.20
-32.01
0.38
32.80
64.49
95.03
123.33
147.49
165.41
175.58
177.38
170.94
156.88
136.48
111.94
86.21
62.48
43.10
28.82
18.83
11.58
5.89
1.45
-1.44
-2.64
-2.82
-3.51
-6.55
-13.12
-23.10
-34.99
-46.49
-55.49
-60.85
-62.86
-62.96
-63.13
-65.00
-69.26
-75.53
-82.60
-88.94
-93.20
-94.51
-92.54
-87.40
-79.49
-69.42
-57.87
-45.61
-33.46
-22.26
-12.81
-5.70
-1.13
1.06
1.44
0.80
-0.13
-0.80
-1.06
-1.06
-1.23
-2.04
-3.74
-6.11
-8.35
-9.19
-7.29
-1.94
6.51
16.42
25.37
30.91
31.55
27.15
18.85
8.38
-2.70
-13.54
-24.05
-34.64
-45.81
-57.82
-70.55
-83.49
-95.72
-105.87
-112.29
-113.24
-107.42
-94.42
-75.01
-50.93
-24.36
2.76
29.22
54.56
78.70
101.37
121.76
138.64
150.83
157.80
159.92
158.23
153.72
146.79
137.00
123.62
106.45
86.48
65.91
47.43
33.15
23.86
18.88
16.65
15.66
15.03
14.64
14.62
14.85
14.60
12.59
7.61
-1.16
-13.71
-29.22
-46.19
-62.67
-76.55
-85.83
-89.01
-85.40
-75.27
-59.70
-40.11
-17.78
6.51
32.35
59.27
86.26
111.50
132.69
147.55
154.48
152.87
143.22
126.88
105.71
81.83
57.30
33.94
13.12
-4.39
-18.54
-29.81
-39.05
-47.11
-54.61
-61.83
-68.70
-74.93
-80.22
-84.45
-87.81
-90.82
-94.03
-97.85
-102.40
-107.50
-112.77
-117.82
-122.21
-125.49
-127.14
-126.58
-123.34
-117.29
-108.74
-98.41
-87.24
-75.93
-64.73
-53.26
-40.80
-26.75
-11.06
5.53
21.74
36.21
48.09
57.35
64.60
70.68
76.07
80.66
83.80
84.72
82.91
78.37
71.56
63.22
54.13
44.96
36.25
28.41
21.71
16.18
11.61
7.44
2.92
-2.59
-9.44
-17.47
-26.11
-34.54
-41.87
-47.22
-49.85
-49.22
-45.26
-38.47
-29.98
-21.18
-13.16
-6.23
0.14
6.92
14.86
23.96
33.35
41.79
48.28
52.55
55.14
57.03
59.17
62.10
65.86
70.12
74.29
77.68
79.33
78.12
72.82
62.60
47.37
28.05
6.44
-15.24
-34.83
-50.73
-62.16
-69.28
-73.12
-75.39
-77.87
-81.81
-87.32
-93.28
-97.90
-99.71
-98.33
-94.55
-89.64
-84.34
-78.42
-70.87
-60.81
-48.28
-34.30
-20.27
-7.27
4.35
14.63
23.36
29.67
32.34
30.55
24.86
17.47
11.66
10.56
15.74
26.47
39.98
52.61
61.37
64.98
64.05
60.29
55.23
49.41
42.24
32.87
21.11
7.93
-4.76
-15.12
-22.20
-26.36
-28.88
-31.28
-34.55
-38.79
-43.36
-47.19
-49.32
-49.26
-47.13
-43.47
-38.94
-33.81
-27.85
-20.37
-10.79
0.92
13.92
26.76
37.93
46.47
52.19
55.58
57.38
58.18
58.27
57.72
56.64
55.30
54.07
53.30
53.01
52.94
52.58
51.41
49.14
45.71
41.25
36.02
30.27
24.23
18.08
11.99
6.00
0.03
-6.14
-12.82
-20.14
-27.93
-35.56
-42.06
-46.40
-47.81
-46.14
-41.82
-35.65
-28.46
-20.80
-12.85
-4.61
3.78
11.90
19.09
24.69
28.37
30.27
30.90
30.84
30.53
30.14
29.65
28.97
28.07
27.01
25.86
24.61
23.17
21.39
19.11
16.20
12.61
8.33
3.54
-1.52
-6.41
-10.77
-14.43
-17.60
-20.84
-24.84
-30.02
-36.35
-43.27
-49.94
-55.55
-59.57
-61.76
-61.99
-60.14
-56.06
-49.78
-41.64
-32.26
-22.39
-12.66
-3.42
5.12
12.76
19.09
23.69
26.28
27.01
26.52
25.68
25.15
25.08
25.11
24.68
23.47
21.63
19.66
18.10
17.11
16.38
15.24
13.18
10.07
6.21
2.13
-1.74
-5.23
-8.46
-11.63
-15.04
-18.94
-23.63
-29.32
-35.93
-42.92
-49.27
-53.74
-55.38
-53.87
-49.54
-43.20
-35.61
-27.24
-18.31
-8.96
0.48
9.46
17.38
23.81
28.66
32.15
34.60
36.28
37.31
37.69
37.44
36.63
35.46
34.16
32.99
32.11
31.51
31.03
30.33
28.99
26.66
23.20
18.73
13.59
8.21
2.97
-1.92
-6.45
-10.85
-15.42
-20.52
-26.41
-33.10
-40.26
-47.18
-52.86
-56.25
-56.58
-53.61
-47.71
-39.73
-30.64
-21.20
-11.80
-2.55
6.51
15.18
23.05
29.67
34.74
38.32
40.74
42.38
43.49
44.04
43.93
43.07
41.62
39.88
38.15
36.56
34.91
32.85
30.07
26.47
22.23
17.69
13.19
8.86
4.63
0.30
-4.35
-9.44
-14.97
-20.93
-27.37
-34.40
-41.93
-49.44
-55.90
-59.96
-60.49
-57.08
-50.35
-41.64
-32.40
-23.56
-15.22
-6.95
1.67
10.49
18.77
25.52
30.06
32.38
33.11
33.07
32.83
32.50
31.83
30.58
28.81
26.95
25.54
24.86
24.66
24.23
22.66
19.32
14.18
7.83
1.25
-4.66
-9.46
-13.23
-16.54
-20.01
-24.11
-28.99
-34.59
-40.73
-47.15
-53.47
-59.05
-63.06
-64.65
-63.23
-58.70
-51.48
-42.35
-32.15
-21.59
-11.20
-1.44
7.29
14.64
20.41
24.64
27.58
29.49
30.56
30.84
30.32
29.17
27.69
26.28
25.27
24.69
24.38
23.99
23.25
21.99
20.18
17.83
14.95
11.58
7.82
3.87
-0.03
-3.69
-7.12
-10.58
-14.49
-19.32
-25.37
-32.50
-40.03
-46.81
-51.55
-53.29
-51.77
-47.48
-41.31
-34.15
-26.42
-18.12
-9.10
0.58
10.36
19.38
26.78
32.08
35.31
36.83
37.17
36.82
36.15
35.42
34.77
34.25
33.82
33.36
32.79
31.96
30.67
28.67
25.70
21.66
16.77
11.54
6.61
2.43
-0.95
-3.94
-7.14
-11.12
-16.11
-22.07
-28.70
-35.63
-42.39
-48.37
-52.79
-54.88
-54.08
-50.31
-43.95
-35.76
-26.50
-16.73
-6.74
3.27
13.01
21.93
29.43
35.05
38.73
40.80
41.78
42.09
41.90
41.18
39.86
38.04
36.05
34.27
32.94
31.98
30.99
29.52
27.25
24.20
20.59
16.72
12.74
8.66
4.39
-0.13
-4.87
-9.75
-14.72
-19.92
-25.61
-32.06
-39.19
-46.41
-52.62
-56.54
-57.21
-54.43
-48.79
-41.38
-33.23
-24.95
-16.59
-7.97
0.91
9.60
17.29
23.18
26.86
28.48
28.62
28.00
27.16
26.31
25.41
24.30
22.86
21.07
18.99
16.77
14.52
12.30
10.06
7.68
4.95
1.78
-1.81
-5.64
-9.42
-12.86
-15.82
-18.38
-20.84
-23.65
-27.20
-31.70
-37.01
-42.64
-47.83
-51.68
-53.41
-52.57
-49.07
-43.24
-35.66
-27.01
-17.95
-9.00
-0.54
7.11
13.70
19.02
22.91
25.42
26.72
27.04
26.58
25.36
23.21
20.04
16.01
11.71
7.93
5.13
2.95
0.11
-5.16
-14.19
-27.07
-42.32
-57.49
-70.01
-78.35
-82.41
-83.62
-84.45
-87.99
-97.00
-112.98
-135.09
-159.61
-180.42
-190.69
-185.08
-161.45
-121.43
-69.67
-12.33
44.56
96.30
140.22
175.74
203.82
225.93
242.83
253.86
257.07
250.46
233.42
207.80
177.50
147.20
120.56
99.19
82.75
69.83
59.20
50.36
43.49
38.99
36.99
37.04
38.12
38.87
37.88
34.12
27.25
17.76
6.83
-4.06
-13.69
-21.49
-27.62
-32.56
-36.56
-39.21
-39.51
-36.40
-29.35
-18.75
-5.77
8.31
22.54
36.36
49.09
59.45
65.67
66.39
61.69
53.62
45.48
40.18
38.53
38.79
37.62
32.21
22.16
9.95
-0.36
-5.46
-4.83
-0.93
2.18
1.24
-4.60
-13.65
-23.19
-31.33
-37.99
-44.68
-53.14
-63.91
-75.90
-87.07
-95.69
-101.41
-105.40
-109.58
-115.47
-123.22
-131.57
-138.38
-141.61
-140.08
-133.87
-124.07
-112.11
-99.20
-85.90
-72.30
-58.39
-44.45
-31.23
-19.67
-10.49
-3.86
0.78
4.45
8.22
12.75
18.00
23.27
27.48
29.71
29.58
27.46
24.34
21.33
19.06
17.37
15.36
11.96
6.60
-0.27
-7.40
-13.38
-17.44
-19.96
-22.20
-25.66
-31.28
-39.12
-48.51
-58.34
-67.39
-74.45
-78.43
-78.66
-75.13
-68.57
-60.11
-50.58
-40.07
-28.06
-14.12
1.21
16.14
28.26
35.63
37.82
36.10
33.04
31.49
33.71
40.78
52.38
66.75
80.94
91.43
95.17
90.61
78.42
61.45
43.81
29.54
21.31
19.76
23.66
30.66
38.16
44.01
46.72
45.19
38.52
26.07
7.95
-14.37
-37.97
-59.05
-74.04
-80.67
-78.39
-68.10
-51.54
-30.84
-8.49
12.51
28.88
37.84
38.38
31.90
22.17
13.86
10.68
13.92
22.07
31.86
39.81
43.76
43.46
40.21
35.80
31.61
28.20
25.40
22.89
20.62
18.81
17.66
16.96
16.00
13.84
9.86
4.10
-2.63
-9.17
-14.62
-18.76
-22.17
-25.83
-30.57
-36.38
-42.36
-46.94
-48.48
-46.04
-39.60
-30.08
-18.85
-7.32
3.56
13.29
21.71
28.74
34.13
37.58
38.85
38.14
36.12
33.72
31.70
30.29
29.12
27.53
25.11
22.00
18.84
16.22
14.19
12.11
9.02
4.37
-1.60
-7.92
-13.48
-17.74
-21.09
-24.70
-30.01
-38.14
-49.51
-63.77
-79.86
-96.15
-110.69
-121.52
-127.12
-126.89
-121.36
-112.04
-100.92
-89.85
-80.00
-71.75
-64.91
-59.08
-54.08
-50.12
-47.63
-46.93
-47.69
-48.66
-47.72
-42.30
-30.25
-10.74
15.36
45.56
76.43
104.55
127.48
144.23
155.33
162.34
167.05
170.69
173.57
175.30
175.59
174.96
175.05
177.99
185.07
195.45
205.68
210.75
205.89
188.73
160.18
123.88
84.92
48.69
20.46
5.25
7.08
27.16
62.18
103.87
141.28
164.86
170.07
158.44
135.37
106.30
73.97
38.44
-0.58
-41.19
-79.03
-109.42
-130.43
-144.24
-155.84
-170.04
-188.88
-211.03
-233.37
-252.78
-267.31
-275.75
-276.90
-269.69
-254.05
-232.15
-208.58
-189.02
-177.79
-176.15
-181.83
-190.58
-198.33
-202.54
-202.24
-197.05
-186.41
-169.77
-147.61
-122.32
-98.19
-80.03
-71.00
-70.90
-75.82
-79.61
-76.67
-64.85
-46.59
-27.70
-14.16
-8.25
-6.58
-1.11
16.68
50.73
97.23
145.56
183.22
202.45
204.70
200.05
201.91
219.72
253.64
294.14
326.53
337.52
320.49
276.89
214.10
141.78
69.10
4.10
-45.97
-75.06
-80.22
-63.83
-34.50
-4.97
12.58
11.33
-7.93
-38.14
-70.12
-96.77
-115.24
-126.15
-131.11
-130.32
-122.05
-103.75
-74.28
-35.34
8.59
52.04
90.73
122.85
149.02
170.62
187.82
198.52
198.97
185.62
157.32
116.45
68.46
20.26
-21.69
-52.84
-70.96
-76.09
-69.99
-55.57
-36.44
-16.06
2.74
18.13
29.21
35.74
37.81
35.65
29.75
21.04
11.07
1.87
-4.49
-6.43
-3.45
3.67
13.05
22.37
29.68
34.04
35.71
35.69
35.10
34.45
33.48
31.50
27.97
22.92
17.06
11.49
7.15
4.38
2.81
1.64
0.13
-1.98
-4.32
-6.07
-6.47
-5.43
-3.83
-3.31
-5.59
-11.57
-20.75
-31.31
-40.92
-47.71
-51.04
-51.60
-50.95
-50.68
-51.70
-54.02
-56.89
-59.39
-60.80
-60.89
-59.76
-57.56
-54.28
-49.70
-43.60
-35.92
-26.94
-17.29
-7.73
1.09
8.79
15.34
20.90
25.71
29.86
33.18
35.24
35.46
33.49
29.42
23.95
18.24
13.54
10.69
9.79
10.20
10.80
10.55
8.79
5.40
0.68
-4.92
-10.98
-17.19
-23.30
-29.10
-34.45
-39.39
-44.15
-48.95
-53.75
-57.95
-60.46
-60.02
-55.78
-47.78
-37.02
-25.08
-13.47
-3.08
5.95
13.95
21.26
27.79
32.98
36.11
36.69
34.82
31.14
26.61
22.18
18.42
15.46
13.08
11.03
9.21
7.74
6.83
6.51
6.45
5.95
4.29
1.06
-3.53
-8.68
-13.38
-16.90
-19.13
-20.65
-22.39
-25.21
-29.49
-35.06
-41.28
-47.29
-52.10
-54.81
-54.67
-51.25
-44.62
-35.42
-24.74
-13.78
-3.50
5.60
13.41
20.04
25.48
29.63
32.29
33.46
33.39
32.50
31.21
29.74
28.12
26.30
24.32
22.40
20.80
19.67
18.87
17.98
16.49
14.02
10.52
6.23
1.56
-3.13
-7.62
-11.86
-15.90
-19.87
-23.94
-28.34
-33.34
-39.14
-45.64
-52.32
-58.20
-62.03
-62.72
-59.59
-52.73
-42.89
-31.24
-19.12
-7.58
2.74
11.61
19.16
25.53
30.80
34.86
37.50
38.58
38.23
36.83
34.95
33.04
31.34
29.76
28.08
26.14
23.99
21.87
20.06
18.61
17.31
15.70
13.33
10.00
5.83
1.25
-3.31
-7.58
-11.67
-15.96
-20.95
-26.98
-34.07
-41.82
-49.44
-55.90
-60.10
-61.17
-58.58
-52.37
-43.17
-32.02
-20.10
-8.37
2.56
12.44
21.22
28.77
34.78
38.91
41.03
41.41
40.72
39.77
39.13
38.90
38.75
38.19
36.89
34.93
32.68
30.56
28.74
27.03
25.00
22.27
18.75
14.62
10.32
6.16
2.26
-1.59
-5.79
-10.68
-16.41
-22.89
-29.81
-36.78
-43.39
-49.15
-53.46
-55.62
-55.01
-51.30
-44.68
-35.86
-25.83
-15.54
-5.63
3.67
12.34
20.22
26.94
31.93
34.77
35.48
34.64
33.12
31.79
31.11
31.01
31.06
30.74
29.74
28.08
25.99
23.74
21.41
18.91
16.04
12.68
8.88
4.82
0.80
-2.97
-6.41
-9.63
-12.90
-16.56
-20.86
-25.91
-31.57
-37.47
-43.06
-47.61
-50.36
-50.66
-48.08
-42.63
-34.75
-25.23
-15.01
-4.88
4.62
13.24
20.86
27.31
32.32
35.63
37.21
37.30
36.43
35.17
33.88
32.65
31.33
29.77
27.97
26.13
24.53
23.34
22.45
21.50
20.03
17.69
14.38
10.33
5.87
1.39
-2.89
-6.91
-10.77
-14.67
-18.76
-23.28
-28.33
-33.89
-39.65
-44.94
-48.86
-50.41
-48.87
-44.06
-36.40
-26.78
-16.21
-5.57
4.60
14.06
22.67
30.24
36.49
41.11
43.98
45.26
45.35
44.77
43.93
43.00
41.85
40.33
38.30
35.88
33.32
30.87
28.63
26.42
23.91
20.77
16.89
12.41
7.66
3.01
-1.35
-5.44
-9.44
-13.62
-18.19
-23.24
-28.75
-34.55
-40.30
-45.40
-49.04
-50.28
-48.39
-43.09
-34.77
-24.41
-13.26
-2.46
7.32
15.86
23.27
29.64
34.92
38.87
41.35
42.39
42.37
41.77
40.99
40.15
39.09
37.56
35.41
32.73
29.81
26.97
24.41
22.07
19.69
16.95
13.62
9.69
5.37
1.04
-3.03
-6.73
-10.23
-13.90
-18.05
-22.85
-28.18
-33.77
-39.19
-44.04
-47.89
-50.25
-50.61
-48.54
-43.88
-36.85
-28.04
-18.26
-8.28
1.23
9.82
17.17
22.99
27.14
29.60
30.61
30.62
30.11
29.48
28.88
28.22
27.37
26.22
24.82
23.30
21.75
20.15
18.30
15.98
13.04
9.56
5.76
1.92
-1.73
-5.18
-8.49
-11.87
-15.46
-19.39
-23.74
-28.54
-33.79
-39.36
-44.95
-50.02
-53.86
-55.64
-54.68
-50.66
-43.77
-34.65
-24.27
-13.59
-3.37
5.93
14.12
21.09
26.75
30.96
33.73
35.23
35.82
35.88
35.68
35.27
34.49
33.14
31.17
28.73
26.15
23.74
21.69
19.92
18.13
15.93
12.96
9.15
4.64
-0.21
-5.00
-9.46
-13.56
-17.49
-21.56
-26.07
-31.13
-36.64
-42.26
-47.43
-51.39
-53.38
-52.70
-49.04
-42.52
-33.76
-23.66
-13.13
-2.89
6.67
15.39
23.13
29.62
34.56
37.73
39.18
39.30
38.59
37.54
36.33
34.90
33.06
30.76
28.17
25.63
23.48
21.77
20.28
18.51
16.03
12.69
8.63
4.25
-0.04
-4.00
-7.62
-11.13
-14.80
-18.90
-23.58
-28.85
-34.53
-40.27
-45.52
-49.56
-51.68
-51.29
-48.13
-42.35
-34.45
-25.13
-15.09
-4.95
4.83
13.86
21.79
28.33
33.27
36.53
38.23
38.60
37.92
36.44
34.38
31.98
29.46
27.05
24.91
23.09
21.51
19.95
18.20
16.00
13.23
9.86
5.98
1.74
-2.59
-6.80
-10.67
-14.13
-17.26
-20.25
-23.35
-26.80
-30.71
-35.00
-39.36
-43.26
-46.02
-46.94
-45.54
-41.71
-35.70
-28.07
-19.48
-10.47
-1.40
7.42
15.68
22.88
28.49
32.12
33.76
33.80
32.93
31.81
30.79
29.83
28.69
27.12
25.11
22.90
20.84
19.09
17.49
15.61
12.98
9.35
4.91
0.16
-4.29
-8.08
-11.21
-14.02
-16.90
-20.15
-23.78
-27.71
-31.83
-36.15
-40.74
-45.47
-49.86
-53.08
-54.15
-52.31
-47.38
-39.85
-30.65
-20.83
-11.20
-2.22
6.00
13.41
19.90
25.23
29.16
31.60
32.69
32.79
32.30
31.56
30.70
29.74
28.58
27.14
25.37
23.31
21.06
18.74
16.43
14.11
11.65
8.82
5.47
1.57
-2.69
-6.96
-10.93
-14.44
-17.63
-20.86
-24.51
-28.80
-33.62
-38.55
-42.86
-45.75
-46.47
-44.60
-40.09
-33.28
-24.84
-15.54
-6.08
2.97
11.24
18.49
24.55
29.30
32.68
34.72
35.58
35.49
34.73
33.51
31.97
30.18
28.14
25.89
23.51
21.14
18.87
16.75
14.67
12.41
9.72
6.46
2.67
-1.40
-5.44
-9.16
-12.48
-15.50
-18.43
-21.51
-24.91
-28.68
-32.79
-37.06
-41.16
-44.52
-46.46
-46.28
-43.59
-38.39
-31.17
-22.68
-13.70
-4.81
3.59
11.26
17.93
23.27
26.98
28.99
29.50
29.04
28.19
27.42
26.84
26.31
25.53
24.29
22.59
20.63
18.66
16.85
15.13
13.29
11.02
8.16
4.79
1.17
-2.32
-5.40
-8.04
-10.46
-13.03
-16.07
-19.68
-23.71
-27.93
-32.08
-36.00
-39.56
-42.49
-44.36
-44.59
-42.73
-38.63
-32.54
-25.00
-16.68
-8.10
0.36
8.38
15.62
21.69
26.21
29.02
30.27
30.37
29.83
29.06
28.24
27.36
26.31
25.02
23.53
21.96
20.42
18.94
17.42
15.68
13.45
10.56
6.97
2.84
-1.50
-5.72
-9.55
-12.97
-16.15
-19.36
-22.91
-26.92
-31.38
-36.10
-40.69
-44.63
-47.27
-47.96
-46.20
-41.86
-35.20
-26.84
-17.62
-8.30
0.51
8.45
15.28
20.87
25.13
28.03
29.66
30.23
30.04
29.43
28.65
27.83
26.95
25.89
24.52
22.78
20.73
18.56
16.48
14.58
12.77
10.80
8.33
5.17
1.38
-2.69
-6.63
-10.14
-13.22
-16.19
-19.47
-23.44
-28.11
-33.23
-38.23
-42.49
-45.41
-46.55
-45.59
-42.41
-37.07
-29.77
-20.97
-11.25
-1.31
8.17
16.62
23.65
29.07
32.89
35.23
36.26
36.23
35.39
34.02
32.32
30.47
28.51
26.43
24.22
21.91
19.57
17.31
15.10
12.86
10.43
7.66
4.52
1.12
-2.38
-5.79
-9.05
-12.21
-15.38
-18.66
-22.12
-25.75
-29.56
-33.54
-37.64
-41.59
-44.85
-46.67
-46.26
-43.12
-37.28
-29.31
-20.11
-10.60
-1.46
6.96
14.52
21.08
26.41
30.20
32.33
32.88
32.30
31.15
29.93
28.88
27.96
26.92
25.51
23.66
21.48
19.20
17.01
14.99
13.04
10.96
8.55
5.67
2.39
-1.14
-4.73
-8.20
-11.52
-14.74
-17.99
-21.35
-24.86
-28.50
-32.24
-36.05
-39.75
-42.97
-45.11
-45.47
-43.51
-39.08
-32.55
-24.63
-16.11
-7.57
0.67
8.44
15.54
21.59
26.14
28.93
30.04
29.92
29.23
28.49
27.91
27.39
26.71
25.71
24.43
23.06
21.75
20.53
19.19
17.46
15.10
12.03
8.36
4.29
0.07
-4.16
-8.29
-12.31
-16.23
-20.12
-24.05
-28.15
-32.52
-37.16
-41.95
-46.44
-50.00
-51.82
-51.19
-47.71
-41.47
-33.04
-23.30
-13.12
-3.19
6.13
14.67
22.26
28.65
33.47
36.45
37.63
37.32
36.10
34.49
32.78
30.97
28.89
26.39
23.53
20.56
17.78
15.47
13.60
11.97
10.19
7.91
4.98
1.48
-2.30
-6.00
-9.40
-12.49
-15.49
-18.72
-22.45
-26.78
-31.62
-36.71
-41.64
-45.84
-48.61
-49.20
-47.03
-41.94
-34.32
-25.02
-15.05
-5.29
3.79
12.01
19.38
25.83
31.09
34.85
36.89
37.32
36.57
35.24
33.86
32.68
31.67
30.53
29.03
27.07
24.79
22.48
20.29
18.19
15.88
13.04
9.51
5.43
1.21
-2.71
-6.05
-8.91
-11.61
-14.56
-18.06
-22.16
-26.74
-31.57
-36.36
-40.78
-44.33
-46.45
-46.54
-44.25
-39.53
-32.72
-24.39
-15.16
-5.59
3.84
12.66
20.39
26.53
30.78
33.10
33.75
33.28
32.22
30.99
29.74
28.47
27.07
25.48
23.69
21.73
19.64
17.41
15.02
12.43
9.64
6.71
3.69
0.64
-2.43
-5.51
-8.64
-11.83
-15.15
-18.59
-22.17
-25.84
-29.58
-33.36
-37.14
-40.73
-43.77
-45.63
-45.59
-43.07
-37.91
-30.47
-21.51
-11.95
-2.57
6.14
13.95
20.69
26.17
30.15
32.53
33.42
33.24
32.52
31.70
30.95
30.19
29.18
27.70
25.76
23.54
21.32
19.25
17.34
15.32
12.89
9.82
6.07
1.84
-2.54
-6.75
-10.64
-14.21
-17.69
-21.35
-25.46
-30.17
-35.48
-41.14
-46.64
-51.26
-54.16
-54.61
-52.20
-46.97
-39.41
-30.27
-20.32
-10.22
-0.43
8.75
17.06
24.23
29.97
34.11
36.67
37.85
37.97
37.32
36.17
34.67
32.93
31.00
28.93
26.72
24.39
21.96
19.43
16.84
14.15
11.25
7.99
4.25
0.05
-4.39
-8.76
-12.82
-16.53
-20.11
-23.96
-28.45
-33.72
-39.57
-45.44
-50.51
-53.83
-54.57
-52.17
-46.56
-38.19
-27.87
-16.53
-5.03
5.97
16.04
24.82
31.99
37.28
40.55
41.98
41.97
41.08
39.81
38.45
36.98
35.21
32.89
29.96
26.57
23.06
19.82
17.04
14.68
12.47
10.09
7.32
4.15
0.73
-2.77
-6.24
-9.69
-13.22
-16.98
-21.09
-25.63
-30.61
-35.97
-41.46
-46.63
-50.80
-53.19
-53.08
-50.01
-43.99
-35.46
-25.21
-14.15
-3.08
7.35
16.71
24.64
30.82
35.03
37.24
37.67
36.80
35.22
33.45
31.80
30.30
28.80
27.12
25.15
22.93
20.57
18.20
15.87
13.52
11.00
8.15
4.94
1.46
-2.06
-5.38
-8.37
-11.09
-13.78
-16.76
-20.30
-24.51
-29.31
-34.47
-39.62
-44.24
-47.66
-49.19
-48.20
-44.35
-37.76
-29.00
-18.96
-8.60
1.33
10.36
18.22
24.73
29.69
32.96
34.56
34.78
34.13
33.15
32.22
31.42
30.60
29.51
28.08
26.34
24.44
22.48
20.44
18.15
15.45
12.30
8.73
4.89
0.94
-3.01
-6.95
-10.89
-14.89
-19.03
-23.39
-28.05
-33.07
-38.41
-43.87
-49.00
-53.10
-55.29
-54.80
-51.17
-44.52
-35.52
-25.14
-14.40
-4.01
5.64
14.46
22.32
28.98
34.07
37.32
38.69
38.53
37.40
35.89
34.34
32.81
31.15
29.15
26.75
24.10
21.49
19.17
17.14
15.18
12.87
9.83
5.93
1.34
-3.45
-7.96
-11.88
-15.28
-18.52
-22.11
-26.42
-31.53
-37.18
-42.86
-47.88
-51.44
-52.75
-51.15
-46.30
-38.36
-28.03
-16.37
-4.53
6.58
16.41
24.76
31.57
36.78
40.35
42.29
42.80
42.25
41.08
39.68
38.19
36.58
34.70
32.44
29.79
26.87
23.82
20.82
17.93
15.10
12.18
9.04
5.55
1.78
-2.15
-6.04
-9.77
-13.33
-16.87
-20.60
-24.65
-29.07
-33.73
-38.39
-42.74
-46.37
-48.75
-49.31
-47.57
-43.22
-36.35
-27.36
-16.93
-5.82
5.22
15.53
24.56
31.83
37.05
40.19
41.58
41.86
41.74
41.73
41.89
41.84
40.95
38.72
35.16
30.79
26.40
22.74
20.08
18.16
16.25
13.55
9.59
4.45
-1.29
-6.78
-11.36
-14.83
-17.64
-20.67
-24.85
-30.64
-37.68
-44.86
-50.75
-54.21
-54.98
-53.65
-51.40
-49.34
-48.07
-47.38
-46.37
-43.69
-37.90
-27.90
-13.36
4.88
24.57
42.18
53.72
55.91
47.59
30.42
8.61
-12.29
-27.40
-33.98
-32.07
-23.95
-12.80
-1.44
8.52
16.55
22.64
26.67
28.20
26.80
22.56
16.55
10.72
7.41
8.39
14.07
23.11
32.72
39.48
40.36
33.66
19.39
-0.80
-23.95
-46.32
-63.99
-73.51
-72.55
-60.47
-38.42
-9.16
23.58
55.81
84.01
105.79
120.18
127.74
130.33
130.46
130.24
130.54
130.64
128.77
123.15
112.95
98.91
82.93
67.32
53.82
43.10
34.90
28.31
22.55
17.25
12.63
9.26
7.62
7.69
8.82
10.08
10.83
11.39
13.35
19.16
31.28
51.16
78.35
110.29
142.71
170.62
189.68
197.59
195.03
185.54
174.60
167.79
168.75
177.88
192.22
206.79
216.51
217.83
209.57
192.37
167.72
137.06
101.54
62.33
21.02
-20.23
-58.88
-92.74
-120.62
-142.92
-161.73
-180.41
-202.47
-229.97
-262.42
-296.65
-327.86
-351.41
-364.44
-366.67
-360.06
-347.84
-333.29
-319.03
-306.54
-296.18
-287.29
-278.58
-268.72
-256.90
-243.15
-227.86
-211.46
-194.12
-176.25
-159.14
-145.08
-136.78
-135.79
-141.33
-150.09
-157.43
-159.19
-153.24
-140.07
-122.13
-102.58
-83.96
-67.42
-52.57
-38.10
-22.73
-5.95
11.72
29.06
44.96
58.81
70.57
80.32
88.00
93.46
96.80
98.71
100.18
101.68
102.67
101.62
97.03
88.96
79.52
72.22
70.19
74.71
84.76
97.80
111.02
122.42
130.96
136.15
137.47
134.17
125.74
112.65
96.69
80.71
67.72
59.78
57.25
58.82
62.21
65.16
66.34
65.75
64.41
63.75
64.73
67.34
71.01
75.29
80.41
87.42
97.45
110.74
126.02
140.74
151.97
157.76
157.68
152.52
143.24
129.88
111.46
86.76
55.71
20.32
-15.56
-47.42
-71.70
-86.77
-93.00
-92.19
-86.75
-79.18
-71.82
-66.72
-65.44
-68.65
-75.84
-85.51
-95.61
-104.21
-110.02
-112.44
-111.32
-106.67
-98.60
-87.52
-74.43
-61.06
-49.51
-41.44
-37.19
-35.20
-32.43
-25.52
-12.40
6.65
29.01
50.92
69.07
81.67
88.47
89.81
85.60
75.05
57.62
34.22
8.06
-16.11
-33.76
-42.73
-44.18
-41.74
-39.41
-39.43
-41.31
-42.52
-40.41
-34.02
-24.76
-15.64
-9.54
-7.72
-9.36
-12.24
-14.18
-14.12
-12.33
-9.94
-7.98
-6.98
-6.92
-7.71
-9.43
-12.16
-15.68
-19.18
-21.57
-22.06
-20.81
-19.05
-18.54
-20.74
-26.06
-33.73
-42.22
-50.00
-56.19
-60.79
-64.23
-66.87
-68.39
-67.79
-63.77
-55.53
-43.34
-28.71
-13.88
-0.92
9.12
16.55
22.70
28.94
35.79
42.61
47.94
50.45
49.75
46.64
42.65
39.26
37.11
35.87
34.67
32.68
29.57
25.58
21.18
16.71
12.25
7.72
3.05
-1.65
-6.20
-10.55
-14.86
-19.51
-24.88
-31.11
-37.98
-44.96
-51.23
-56.05
-58.75
-58.90
-56.36
-51.20
-43.71
-34.34
-23.68
-12.39
-1.13
9.50
19.09
27.43
34.46
40.29
45.04
48.79
51.42
52.72
52.46
50.61
47.51
43.86
40.51
38.07
36.59
35.49
33.87
30.93
26.45
20.80
14.74
8.87
3.43
-1.82
-7.28
-13.18
-19.42
-25.69
-31.79
-37.83
-44.16
-50.89
-57.56
-62.94
-65.47
-63.93
-58.16
-49.17
-38.70
-28.36
-18.91
-10.08
-1.13
8.40
18.09
26.71
32.89
35.97
36.35
35.29
34.10
33.51
33.40
33.15
32.17
30.37
28.07
25.71
23.51
21.34
18.96
16.24
13.32
10.43
7.61
4.64
1.13
-3.07
-7.67
-12.05
-15.70
-18.78
-22.18
-27.11
-34.35
-43.50
-52.91
-60.25
-63.49
-61.81
-55.82
-47.08
-37.29
-27.54
-18.10
-8.73
0.77
10.29
19.26
27.03
33.08
37.28
39.81
41.10
41.51
41.35
40.70
39.56
37.87
35.69
33.30
31.15
29.70
29.10
28.96
28.46
26.61
22.88
17.41
11.05
4.85
-0.49
-5.00
-9.35
-14.36
-20.47
-27.55
-34.98
-42.04
-48.22
-53.24
-56.84
-58.59
-57.88
-54.22
-47.60
-38.60
-28.25
-17.52
-7.00
3.20
13.06
22.33
30.33
36.17
39.28
39.87
38.96
37.86
37.48
37.87
38.26
37.69
35.67
32.57
29.31
26.74
25.03
23.57
21.36
17.74
12.77
7.20
1.95
-2.46
-6.16
-9.75
-13.90
-18.96
-24.90
-31.42
-38.19
-44.89
-51.07
-56.12
-59.28
-59.90
-57.70
-52.88
-45.93
-37.35
-27.44
-16.37
-4.43
7.71
19.03
28.49
35.47
40.00
42.69
44.27
45.29
45.88
45.94
45.31
44.10
42.58
41.05
39.67
38.38
36.99
35.35
33.37
31.04
28.27
24.89
20.67
15.53
9.65
3.42
-2.67
-8.28
-13.39
-18.25
-23.33
-29.02
-35.50
-42.57
-49.59
-55.53
-59.16
-59.40
-55.83
-48.85
-39.63
-29.59
-19.80
-10.54
-1.49
7.77
17.06
25.51
31.85
35.13
35.39
33.63
31.36
29.81
29.42
29.75
30.03
29.63
28.44
26.83
25.26
23.95
22.69
21.02
18.51
15.05
10.91
6.56
2.44
-1.24
-4.60
-7.91
-11.47
-15.45
-19.93
-24.94
-30.50
-36.58
-42.90
-48.81
-53.30
-55.33
-54.17
-49.82
-42.95
-34.68
-26.01
-17.46
-9.01
-0.38
8.50
17.14
24.65
30.12
33.13
34.04
33.73
33.15
32.81
32.56
31.89
30.41
28.16
25.69
23.67
22.50
21.94
21.31
19.83
17.09
13.23
8.80
4.40
0.34
-3.45
-7.26
-11.30
-15.52
-19.69
-23.66
-27.61
-32.05
-37.47
-43.88
-50.45
-55.76
-58.31
-57.27
-52.79
-45.88
-37.74
-29.14
-20.23
-10.75
-0.65
9.63
19.17
26.98
32.52
35.94
37.89
39.10
39.96
40.36
39.94
38.38
35.79
32.74
29.99
28.15
27.26
26.77
25.83
23.68
20.08
15.35
10.15
5.10
0.46
-3.85
-8.11
-12.52
-17.15
-22.02
-27.22
-32.94
-39.36
-46.37
-53.38
-59.42
-63.39
-64.47
-62.41
-57.52
-50.51
-42.09
-32.85
-23.17
-13.39
-3.86
4.99
12.78
19.26
24.37
28.14
30.64
31.97
32.34
32.06
31.50
30.84
29.98
28.63
26.56
23.88
21.18
19.34
19.08
20.49
22.94
25.22
26.17
25.10
22.16
18.19
14.21
10.88
8.17
5.39
1.63
-3.73
-10.68
-18.51
-26.16
-32.59
-37.03
-39.08
-38.68
-36.01
-31.42
-25.41
-18.48
-11.02
-3.23
4.78
12.73
20.11
26.10
29.98
31.51
31.14
29.89
28.84
28.62
29.14
29.72
29.64
28.50
26.46
24.02
21.75
19.88
18.32
16.73
14.74
12.17
9.00
5.37
1.53
-2.30
-5.95
-9.42
-12.87
-16.55
-20.75
-25.60
-31.04
-36.82
-42.52
-47.62
-51.47
-53.43
-52.94
-49.73
-43.93
-36.11
-27.11
-17.78
-8.79
-0.46
7.12
13.95
19.98
25.04
28.88
31.33
32.32
32.04
30.89
29.39
28.04
27.14
26.72
26.46
25.99
24.94
23.25
21.15
18.87
16.51
13.88
10.53
6.14
0.79
-5.01
-10.44
-14.86
-18.16
-20.87
-23.93
-28.14
-33.71
-40.12
-46.25
-50.86
-53.05
-52.46
-49.20
-43.69
-36.39
-27.73
-18.15
-8.19
1.59
10.59
18.41
24.86
29.95
33.76
36.35
37.74
37.99
37.28
35.94
34.35
32.82
31.54
30.55
29.75
28.94
27.93
26.47
24.41
21.71
18.48
14.92
11.22
7.50
3.73
-0.15
-4.22
-8.45
-12.73
-16.99
-21.27
-25.77
-30.72
-36.14
-41.62
-46.34
-49.24
-49.46
-46.60
-40.97
-33.39
-24.91
-16.43
-8.43
-0.99
6.04
12.83
19.26
24.91
29.23
31.80
32.61
32.15
31.15
30.21
29.52
28.76
27.49
25.46
22.93
20.51
18.72
17.60
16.67
15.15
12.51
8.71
4.23
-0.28
-4.34
-7.79
-10.81
-13.69
-16.78
-20.33
-24.49
-29.27
-34.52
-39.87
-44.81
-48.73
-51.00
-51.09
-48.67
-43.62
-36.28
-27.29
-17.53
-7.89
1.09
9.12
16.12
21.92
26.29
28.94
29.87
29.42
28.32
27.22
26.43
25.77
24.84
23.35
21.43
19.63
18.48
18.18
18.32
18.11
16.77
14.00
10.10
5.80
1.89
-1.27
-3.90
-6.65
-10.26
-15.07
-20.95
-27.30
-33.45
-38.94
-43.61
-47.45
-50.29
-51.69
-51.04
-47.91
-42.31
-34.75
-25.98
-16.74
-7.48
1.46
9.79
17.12
23.11
27.62
30.86
33.20
34.97
36.20
36.64
36.08
34.55
32.47
30.44
28.92
27.96
27.23
26.26
24.65
22.29
19.27
15.76
11.86
7.65
3.24
-1.23
-5.60
-9.79
-13.92
-18.29
-23.24
-28.99
-35.42
-41.95
-47.63
-51.40
-52.49
-50.67
-46.29
-40.12
-32.86
-24.99
-16.64
-7.84
1.25
10.17
18.25
24.85
29.60
32.55
34.03
34.53
34.51
34.25
33.81
33.11
31.94
30.21
27.99
25.52
23.05
20.67
18.26
15.60
12.56
9.26
5.98
2.94
0.19
-2.41
-4.98
-7.49
-9.77
-11.81
-13.92
-16.81
-21.14
-27.03
-33.73
-39.77
-43.61
-44.25
-41.66
-36.63
-30.24
-23.29
-16.07
-8.44
-0.31
7.98
15.63
21.62
25.24
26.48
26.08
25.15
24.70
25.07
26.00
26.80
26.86
26.00
24.55
23.05
21.92
21.21
20.59
19.53
17.64
14.80
11.23
7.28
3.29
-0.50
-4.08
-7.53
-11.03
-14.78
-18.98
-23.78
-29.21
-35.13
-41.11
-46.51
-50.51
-52.35
-51.62
-48.32
-42.86
-35.80
-27.69
-18.95
-9.88
-0.80
7.80
15.37
21.44
25.78
28.57
30.21
31.14
31.65
31.79
31.46
30.59
29.27
27.69
26.08
24.55
23.08
21.52
19.70
17.47
14.75
11.50
7.76
3.63
-0.73
-5.13
-9.43
-13.61
-17.77
-22.14
-27.03
-32.71
-39.17
-45.97
-52.19
-56.61
-58.16
-56.32
-51.36
-44.15
-35.73
-26.85
-17.79
-8.50
1.02
10.50
19.38
27.08
33.20
37.60
40.42
41.79
41.93
41.09
39.67
38.07
36.54
35.09
33.51
31.60
29.41
27.16
25.11
23.21
21.13
18.37
14.66
10.14
5.37
0.96
-2.82
-6.15
-9.62
-13.85
-19.23
-25.73
-32.95
-40.25
-46.84
-51.90
-54.63
-54.46
-51.21
-45.17
-37.03
-27.62
-17.68
-7.67
2.12
11.43
19.90
27.11
32.68
36.48
38.62
39.39
39.17
38.30
37.11
35.86
34.71
33.68
32.60
31.21
29.34
26.99
24.36
21.65
18.90
15.98
12.75
9.14
5.29
1.45
-2.20
-5.72
-9.35
-13.39
-18.04
-23.31
-29.10
-35.23
-41.38
-46.99
-51.30
-53.43
-52.82
-49.40
-43.63
-36.25
-27.92
-19.06
-9.86
-0.55
8.40
16.26
22.32
26.15
27.88
28.12
27.72
27.36
27.38
27.63
27.74
27.38
26.49
25.26
24.07
23.15
22.45
21.61
20.12
17.63
14.05
9.65
4.84
0.09
-4.31
-8.24
-11.78
-15.21
-18.97
-23.51
-29.09
-35.61
-42.53
-48.91
-53.66
-55.85
-54.93
-50.92
-44.32
-35.95
-26.65
-17.07
-7.59
1.62
10.35
18.32
25.05
30.13
33.38
35.04
35.60
35.58
35.30
34.77
33.90
32.63
31.18
29.86
28.93
28.35
27.73
26.50
24.21
20.72
16.26
11.32
6.41
1.85
-2.33
-6.39
-10.69
-15.60
-21.26
-27.62
-34.47
-41.53
-48.38
-54.44
-58.93
-61.03
-60.09
-55.99
-49.15
-40.43
-30.77
-20.84
-11.00
-1.36
7.94
16.58
24.18
30.45
35.38
39.18
42.05
44.04
44.98
44.72
43.34
41.28
39.08
37.17
35.63
34.16
32.31
29.74
26.39
22.45
18.20
13.80
9.27
4.48
-0.66
-6.09
-11.65
-17.14
-22.54
-28.05
-34.01
-40.67
-47.86
-54.80
-60.22
-62.75
-61.49
-56.44
-48.49
-39.03
-29.32
-20.00
-11.04
-2.08
7.03
15.87
23.60
29.32
32.64
33.85
33.74
33.13
32.47
31.73
30.62
28.96
26.88
24.78
23.04
21.80
20.84
19.73
18.04
15.52
12.13
8.01
3.46
-1.20
-5.59
-9.48
-12.89
-16.24
-20.15
-25.23
-31.69
-39.09
-46.39
-52.21
-55.38
-55.28
-52.05
-46.38
-39.16
-31.06
-22.37
-13.04
-3.03
7.42
17.60
26.52
33.27
37.40
39.10
39.08
38.21
37.14
36.14
35.19
34.11
32.83
31.51
30.33
29.43
28.65
27.58
25.73
22.70
18.42
13.19
7.56
2.07
-2.90
-7.31
-11.44
-15.73
-20.66
-26.50
-33.31
-40.84
-48.51
-55.51
-60.89
-63.78
-63.64
-60.37
-54.31
-46.08
-36.36
-25.72
-14.58
-3.29
7.80
18.20
27.38
34.82
40.20
43.48
44.93
45.01
44.23
43.02
41.64
40.22
38.81
37.43
36.04
34.55
32.73
30.34
27.20
23.29
18.82
14.09
9.40
4.85
0.40
-4.10
-8.86
-14.04
-19.77
-26.12
-33.09
-40.44
-47.68
-54.02
-58.47
-60.17
-58.62
-53.88
-46.53
-37.42
-27.40
-17.02
-6.55
3.86
14.03
23.59
32.03
38.88
43.87
46.99
48.44
48.53
47.63
46.04
44.09
42.08
40.24
38.64
37.17
35.61
33.69
31.26
28.26
24.70
20.62
16.02
10.95
5.59
0.22
-4.82
-9.33
-13.39
-17.38
-21.84
-27.27
-33.87
-41.38
-49.01
-55.63
-59.96
-61.02
-58.51
-52.88
-45.16
-36.41
-27.25
-17.76
-7.70
2.96
13.59
23.04
30.12
34.22
35.64
35.40
34.60
33.96
33.55
33.04
32.12
30.73
29.06
27.39
25.87
24.47
23.01
21.34
19.28
16.67
13.37
9.32
4.67
-0.23
-4.91
-9.06
-12.76
-16.42
-20.65
-25.90
-32.26
-39.37
-46.52
-52.85
-57.55
-59.91
-59.49
-56.14
-50.10
-41.90
-32.34
-22.12
-11.79
-1.61
8.30
17.71
26.22
33.17
37.98
40.37
40.63
39.48
37.85
36.44
35.51
34.80
33.89
32.49
30.67
28.72
26.91
25.24
23.33
20.72
17.12
12.68
7.91
3.38
-0.55
-4.07
-7.71
-12.05
-17.45
-23.85
-30.93
-38.27
-45.55
-52.37
-58.18
-62.13
-63.27
-60.93
-55.10
-46.49
-36.27
-25.52
-14.86
-4.34
6.19
16.60
26.33
34.50
40.42
43.98
45.70
46.45
46.84
47.04
46.74
45.63
43.69
41.33
39.09
37.27
35.66
33.66
30.67
26.44
21.28
15.79
10.51
5.62
0.96
-3.77
-8.76
-13.93
-19.10
-24.23
-29.52
-35.32
-41.82
-48.72
-55.06
-59.52
-60.93
-58.71
-53.16
-45.29
-36.27
-27.00
-17.80
-8.57
0.84
10.20
18.80
25.65
30.00
31.76
31.56
30.49
29.55
29.20
29.29
29.28
28.64
27.29
25.52
23.84
22.56
21.60
20.47
18.62
15.67
11.67
6.96
2.06
-2.68
-7.09
-11.24
-15.29
-19.42
-23.77
-28.46
-33.63
-39.31
-45.32
-51.09
-55.67
-57.95
-57.06
-52.77
-45.57
-36.43
-26.39
-16.19
-6.12
3.74
13.19
21.76
28.79
33.76
36.53
37.49
37.29
36.58
35.76
34.90
33.89
32.60
31.02
29.26
27.45
25.70
24.03
22.29
20.26
17.72
14.53
10.71
6.44
2.01
-2.31
-6.39
-10.27
-14.13
-18.25
-22.88
-28.26
-34.46
-41.32
-48.32
-54.55
-58.89
-60.34
-58.41
-53.21
-45.49
-36.24
-26.35
-16.35
-6.45
3.27
12.63
21.23
28.51
34.03
37.64
39.50
40.02
39.58
38.46
36.76
34.57
32.07
29.61
27.58
26.21
25.33
24.42
22.83
20.16
16.47
12.29
8.28
4.84
1.91
-1.01
-4.47
-8.78
-13.88
-19.53
-25.54
-31.97
-38.89
-46.02
-52.51
-57.05
-58.42
-56.06
-50.38
-42.52
-33.75
-24.87
-16.00
-6.84
2.81
12.65
21.87
29.52
34.95
38.10
39.41
39.56
39.10
38.34
37.38
36.25
34.99
33.64
32.17
30.51
28.56
26.33
23.91
21.48
19.08
16.56
13.63
10.06
5.84
1.28
-3.24
-7.50
-11.57
-15.86
-20.79
-26.53
-32.90
-39.35
-45.13
-49.49
-51.76
-51.50
-48.61
-43.36
-36.35
-28.29
-19.78
-11.11
-2.40
6.16
14.06
20.53
24.82
26.72
26.74
25.88
25.13
24.90
24.93
24.62
23.54
21.78
19.90
18.53
17.86
17.52
16.78
15.04
12.16
8.49
4.61
0.96
-2.34
-5.48
-8.76
-12.42
-16.51
-20.93
-25.62
-30.57
-35.80
-41.17
-46.28
-50.40
-52.70
-52.47
-49.48
-44.03
-36.84
-28.71
-20.19
-11.56
-2.87
5.69
13.70
20.48
25.49
28.56
30.07
30.70
31.07
31.40
31.51
31.07
29.97
28.45
26.98
25.92
25.22
24.42
22.97
20.50
17.06
12.97
8.59
4.14
-0.30
-4.64
-8.74
-12.41
-15.63
-18.75
-22.43
-27.33
-33.70
-41.07
-48.25
-53.76
-56.32
-55.38
-51.22
-44.69
-36.80
-28.31
-19.57
-10.64
-1.58
7.38
15.78
23.12
29.07
33.51
36.55
38.34
39.03
38.75
37.64
35.90
33.81
31.65
29.63
27.89
26.44
25.15
23.80
22.10
19.82
16.85
13.25
9.25
5.12
1.05
-2.91
-6.82
-10.86
-15.29
-20.35
-26.26
-33.03
-40.25
-47.14
-52.62
-55.62
-55.48
-52.09
-45.95
-37.87
-28.69
-19.09
-9.49
-0.17
8.63
16.61
23.43
28.81
32.57
34.72
35.44
35.06
34.06
32.90
31.89
31.12
30.41
29.48
28.13
26.41
24.50
22.65
20.86
18.80
16.01
12.15
7.30
2.04
-2.89
-6.88
-9.84
-12.23
-14.74
-17.99
-22.27
-27.53
-33.43
-39.51
-45.16
-49.64
-52.07
-51.75
-48.36
-42.24
-34.22
-25.29
-16.17
-7.15
1.74
10.35
18.15
24.33
28.15
29.50
28.99
27.73
26.76
26.53
26.76
26.80
26.08
24.51
22.54
20.71
19.33
18.24
16.90
14.80
11.75
8.04
4.20
0.73
-2.19
-4.77
-7.43
-10.55
-14.34
-18.73
-23.60
-28.86
-34.49
-40.39
-46.15
-50.97
-53.81
-53.85
-50.85
-45.26
-37.99
-29.90
-21.50
-12.82
-3.76
5.56
14.59
22.51
28.62
32.68
34.98
36.15
36.71
36.84
36.43
35.24
33.27
30.88
28.57
26.79
25.56
24.50
23.00
20.63
17.32
13.37
9.22
5.15
1.20
-2.72
-6.67
-10.58
-14.35
-18.03
-21.96
-26.60
-32.30
-38.89
-45.58
-51.13
-54.31
-54.32
-51.08
-45.10
-37.20
-28.20
-18.68
-8.95
0.78
10.23
19.05
26.77
32.97
37.39
40.05
41.18
41.18
40.47
39.38
38.07
36.52
34.65
32.42
29.94
27.44
25.14
23.08
21.03
18.61
15.50
11.67
7.41
3.10
-0.90
-4.50
-7.83
-11.14
-14.66
-18.57
-23.04
-28.23
-34.07
-40.15
-45.58
-49.23
-50.13
-47.90
-42.93
-36.09
-28.30
-20.15
-11.78
-3.26
5.14
12.76
18.78
22.62
24.33
24.60
24.35
24.27
24.49
24.63
24.21
23.06
21.47
20.05
19.31
19.29
19.52
19.27
18.03
15.68
12.54
9.14
5.81
2.60
-0.65
-4.15
-7.89
-11.74
-15.53
-19.27
-23.21
-27.73
-33.05
-38.91
-44.49
-48.62
-50.18
-48.61
-44.04
-37.24
-29.20
-20.71
-12.19
-3.75
4.47
12.11
18.57
23.26
26.01
27.14
27.34
27.30
27.37
27.41
27.01
25.87
24.10
22.15
20.64
19.95
19.96
20.06
19.48
17.65
14.45
10.29
5.81
1.58
-2.19
-5.66
-9.24
-13.26
-17.85
-22.94
-28.40
-34.15
-40.09
-45.86
-50.73
-53.65
-53.67
-50.41
-44.30
-36.40
-27.85
-19.36
-11.00
-2.50
6.27
14.94
22.71
28.77
32.79
35.01
36.09
36.62
36.80
36.50
35.53
33.90
31.98
30.24
28.97
28.03
26.98
25.33
22.86
19.68
16.12
12.50
8.87
5.12
1.16
-2.99
-7.13
-11.10
-15.03
-19.38
-24.69
-31.19
-38.44
-45.32
-50.41
-52.58
-51.40
-47.23
-40.90
-33.26
-24.83
-15.80
-6.26
3.47
12.84
21.13
27.83
32.77
36.11
38.13
39.08
39.11
38.31
36.89
35.18
33.50
32.05
30.78
29.45
27.79
25.67
23.10
20.16
16.90
13.26
9.14
4.56
-0.26
-4.94
-9.14
-12.69
-15.84
-19.03
-22.77
-27.37
-32.78
-38.55
-43.94
-48.08
-50.18
-49.72
-46.53
-40.82
-33.13
-24.17
-14.69
-5.37
3.29
10.94
17.30
22.22
25.59
27.45
28.02
27.70
26.97
26.23
25.74
25.51
25.37
25.05
24.40
23.41
22.15
20.70
19.03
16.99
14.39
11.13
7.28
3.08
-1.16
-5.21
-8.97
-12.54
-16.14
-20.00
-24.36
-29.37
-35.01
-40.97
-46.59
-50.98
-53.21
-52.67
-49.34
-43.68
-36.43
-28.27
-19.55
-10.43
-1.10
8.03
16.28
23.02
27.92
31.07
32.97
34.14
34.91
35.31
35.14
34.23
32.58
30.43
28.17
26.15
24.53
23.22
21.92
20.26
17.96
14.88
11.10
6.82
2.25
-2.41
-7.01
-11.46
-15.70
-19.82
-24.09
-28.89
-34.53
-40.90
-47.34
-52.69
-55.67
-55.43
-51.86
-45.58
-37.55
-28.64
-19.31
-9.67
0.16
9.78
18.49
25.50
30.39
33.27
34.72
35.44
35.87
36.08
35.93
35.31
34.33
33.26
32.32
31.58
30.82
29.73
28.07
25.74
22.80
19.40
15.66
11.68
7.54
3.32
-0.93
-5.23
-9.69
-14.47
-19.76
-25.67
-32.23
-39.16
-45.81
-51.21
-54.29
-54.25
-50.91
-44.83
-37.00
-28.45
-19.79
-11.20
-2.63
5.85
13.78
20.49
25.40
28.39
29.79
30.22
30.25
30.16
29.97
29.58
28.93
28.01
26.90
25.63
24.25
22.77
21.20
19.50
17.56
15.18
12.17
8.52
4.42
0.20
-3.77
-7.36
-10.71
-14.20
-18.22
-23.05
-28.74
-35.02
-41.31
-46.83
-50.67
-52.08
-50.64
-46.46
-40.09
-32.31
-23.81
-15.03
-6.12
2.75
11.27
18.80
24.68
28.47
30.34
30.88
30.91
31.02
31.30
31.43
31.00
29.83
28.11
26.34
24.91
23.85
22.77
21.13
18.53
14.92
10.63
6.05
1.53
-2.79
-6.88
-10.76
-14.44
-18.03
-21.76
-26.07
-31.30
-37.50
-44.17
-50.29
-54.61
-56.11
-54.36
-49.62
-42.65
-34.27
-25.17
-15.76
-6.32
2.81
11.23
18.56
24.62
29.45
33.18
35.87
37.43
37.68
36.64
34.68
32.41
30.38
28.81
27.51
26.05
24.16
21.88
19.45
17.09
14.66
11.79
8.10
3.57
-1.36
-5.99
-9.81
-12.87
-15.75
-19.26
-24.03
-30.09
-36.93
-43.61
-49.10
-52.51
-53.24
-51.07
-46.19
-39.17
-30.77
-21.76
-12.63
-3.58
5.31
13.92
21.83
28.49
33.47
36.72
38.62
39.71
40.41
40.76
40.53
39.56
37.91
36.04
34.39
33.18
32.21
31.02
29.18
26.52
23.12
19.20
14.90
10.27
5.34
0.29
-4.58
-9.05
-13.10
-17.04
-21.35
-26.46
-32.46
-39.03
-45.41
-50.61
-53.68
-53.97
