1721841665.00
64.000000
-0.00
-0.00
-0.00
-0.00
-0.00
-0.00
-0.00
-0.00
-0.00
-0.00
0.00
0.01
0.01
-0.00
-0.03
-0.05
-0.05
0.00
0.13
0.36
0.66
1.01
1.37
1.72
2.06
2.40
2.79
3.24
3.80
4.42
5.06
5.66
6.20
6.68
7.15
7.68
8.31
9.14
10.09
11.04
11.88
12.56
13.14
13.76
14.65
15.96
17.91
20.32
22.90
25.38
27.58
29.57
31.68
34.32
37.81
42.54
48.15
54.10
59.83
64.97
69.58
74.14
79.34
85.71
93.76
103.00
112.62
121.73
129.77
136.75
143.30
150.75
157.77
166.64
177.95
191.79
206.97
220.57
228.25
225.36
208.53
176.87
132.76
80.05
23.07
-34.94
-92.44
-149.16
-205.23
-260.37
-313.74
-363.87
-409.83
-450.91
-486.50
-515.74
-537.23
-549.22
-549.96
-538.37
-514.21
-478.67
-433.88
-382.45
-327.02
-269.84
-212.63
-156.66
-102.95
-52.37
-5.90
35.58
71.43
101.35
125.50
144.38
158.69
169.15
176.37
180.75
182.57
182.07
179.51
175.23
169.65
163.18
156.15
148.81
141.30
133.69
126.02
118.33
110.69
103.16
95.80
88.68
81.83
75.25
68.95
62.95
57.25
51.86
46.78
42.03
37.59
33.45
29.61
26.07
22.81
19.83
17.11
14.67
12.48
10.54
8.83
7.35
6.07
4.97
4.05
3.27
2.62
2.09
1.65
1.30
1.01
0.79
0.61
0.47
0.37
0.29
0.23
0.18
0.16
0.14
0.14
0.14
0.16
0.18
0.20
0.23
0.27
0.31
0.35
0.39
0.44
0.48
0.53
0.58
0.63
0.69
0.75
0.81
0.88
0.95
1.04
1.13
1.23
1.35
1.48
1.62
1.78
1.96
2.16
2.39
2.63
2.90
3.21
3.54
3.90
4.29
4.73
5.19
5.69
6.24
6.82
7.44
8.10
8.81
9.56
10.36
11.20
12.08
13.01
13.99
15.04
16.14
17.31
18.53
19.79
21.05
22.24
23.29
24.10
24.53
24.47
23.81
22.45
20.38
17.58
14.14
10.15
5.80
1.29
-3.18
-7.37
-11.12
-14.27
-16.71
-18.42
-19.40
-19.68
-19.35
-18.53
-17.31
-15.84
-14.21
-12.52
-10.82
-9.12
-7.39
-5.66
-3.91
-2.14
-0.36
1.40
3.13
4.84
6.58
8.46
10.45
12.54
14.74
17.02
19.34
21.66
23.99
26.44
29.19
32.18
35.40
38.83
42.36
45.87
49.22
52.42
55.62
59.24
63.18
67.51
72.14
76.81
81.16
84.83
87.66
89.82
91.85
93.70
95.42
96.81
97.25
95.78
91.25
82.43
67.80
50.59
32.04
13.04
-5.99
-25.05
-44.43
-64.57
-86.02
-109.30
-134.54
-161.79
-189.54
-214.89
-234.14
-244.05
-243.06
-231.96
-213.58
-191.53
-169.45
-149.47
-132.21
-117.40
-104.60
-93.54
-84.16
-76.35
-69.83
-64.63
-60.86
-58.89
-59.13
-61.78
-66.36
-71.49
-75.02
-74.41
-67.66
-53.68
-32.79
-6.75
21.67
49.36
73.66
92.83
106.18
113.86
116.55
115.18
110.74
104.23
96.60
88.74
81.28
74.53
68.37
62.36
55.99
48.94
41.34
33.70
26.72
20.93
16.34
12.27
7.40
0.25
-10.36
-24.55
-41.04
-57.14
-69.42
-74.74
-71.28
-59.18
-40.41
-18.05
4.71
25.32
42.25
54.82
62.87
66.51
66.14
62.52
56.87
50.53
44.68
39.89
36.05
32.56
28.68
23.89
18.09
11.57
4.90
-1.29
-6.58
-10.97
-15.09
-20.07
-27.23
-37.46
-50.50
-64.72
-77.32
-85.17
-85.94
-78.84
-64.78
-46.01
-25.23
-4.89
13.25
28.13
39.14
45.95
48.44
46.79
41.70
34.39
26.32
18.87
12.79
8.10
4.13
-0.08
-5.28
-11.72
-19.13
-26.86
-34.37
-41.46
-48.55
-56.60
-67.03
-81.08
-99.21
-120.35
-141.67
-159.07
-168.33
-166.69
-153.82
-131.76
-103.81
-72.91
-40.53
-6.36
30.67
71.32
115.39
161.95
210.12
259.50
309.90
360.44
408.68
450.36
480.27
493.83
488.55
465.02
426.46
377.54
322.76
265.61
208.92
155.81
110.28
76.61
57.49
52.00
55.25
60.30
61.64
58.17
53.83
54.79
65.02
83.21
102.58
114.21
111.47
93.26
64.18
31.81
3.04
-18.58
-33.39
-44.40
-55.22
-68.30
-84.47
-103.21
-123.55
-144.73
-166.52
-189.06
-212.51
-236.57
-260.41
-282.90
-303.15
-321.03
-337.58
-354.70
-374.03
-395.62
-416.72
-431.91
-434.85
-420.69
-388.14
-340.04
-281.93
-219.77
-158.06
-99.31
-45.35
1.14
35.94
54.33
53.16
32.71
-3.17
-48.45
-97.05
-144.21
-186.58
-221.25
-244.92
-253.76
-244.51
-216.08
-170.89
-115.15
-57.78
-8.34
25.53
40.00
36.16
19.58
-1.35
-17.85
-23.00
-13.14
11.99
49.99
96.74
147.27
196.29
238.66
270.00
287.51
290.59
280.89
261.79
237.47
211.79
187.40
165.37
145.25
125.69
105.33
83.61
61.12
39.50
20.68
6.07
-4.17
-11.06
-16.53
-22.69
-31.09
-42.27
-55.40
-68.38
-78.46
-83.00
-80.43
-70.88
-56.04
-38.48
-20.54
-3.54
12.41
27.90
43.25
57.78
69.75
76.93
77.59
71.24
58.79
41.98
22.79
2.88
-16.55
-34.61
-50.47
-63.32
-72.52
-77.85
-79.72
-79.20
-77.85
-77.41
-79.32
-84.39
-92.53
-102.64
-112.79
-120.79
-124.76
-123.73
-117.73
-107.47
-93.84
-77.41
-58.44
-37.26
-14.75
7.44
27.21
42.69
52.97
58.42
60.36
60.21
58.77
55.88
50.70
42.52
31.50
18.94
6.90
-2.57
-8.30
-10.69
-11.46
-13.05
-17.49
-25.55
-36.29
-47.43
-56.26
-60.74
-60.26
-55.66
-48.58
-40.57
-32.30
-23.53
-13.62
-2.17
10.41
23.14
34.80
44.58
52.08
57.14
59.41
58.23
52.88
42.95
28.73
11.39
-7.36
-25.42
-40.44
-50.02
-51.89
-44.64
-28.35
-4.96
21.95
47.96
68.87
81.64
84.99
79.67
68.42
55.45
45.68
43.52
51.70
70.27
96.53
125.94
153.53
175.48
189.98
197.08
197.90
193.81
186.05
175.65
163.67
151.13
138.69
126.35
113.44
99.08
82.95
65.74
48.99
34.28
22.25
11.98
1.55
-10.85
-25.54
-40.67
-52.58
-57.11
-51.20
-34.21
-8.36
21.80
51.07
75.54
94.11
108.71
123.21
141.31
164.52
191.31
217.49
237.71
247.38
243.89
226.82
197.70
159.49
116.35
73.37
35.71
7.47
-9.61
-16.93
-18.79
-20.71
-27.13
-39.13
-53.52
-63.97
-64.01
-50.51
-25.69
3.17
26.79
37.72
33.16
15.23
-11.29
-42.21
-76.14
-114.22
-157.47
-203.97
-247.98
-281.37
-296.90
-291.40
-267.00
-230.50
-190.81
-156.34
-132.81
-122.44
-124.39
-136.02
-154.41
-177.15
-202.49
-228.64
-253.29
-273.42
-286.13
-289.44
-283.24
-269.19
-249.53
-225.88
-198.82
-168.49
-135.43
-101.24
-68.17
-38.38
-13.61
5.68
19.84
29.43
34.70
35.85
33.57
29.45
25.69
23.60
24.25
28.07
34.57
42.32
49.50
54.74
57.84
59.33
58.45
54.71
47.72
37.18
22.72
4.37
-17.00
-39.44
-60.71
-80.48
-97.86
-111.17
-118.48
-118.92
-113.09
-102.95
-91.08
-68.39
-33.45
8.07
47.08
77.76
99.85
116.52
129.91
143.26
157.21
169.11
177.38
183.12
189.95
200.99
218.76
244.65
279.03
320.53
364.61
405.60
437.40
454.31
452.11
429.69
389.48
336.88
277.90
216.28
153.76
91.03
29.45
-27.64
-75.02
-107.75
-123.93
-126.92
-124.75
-126.25
-137.29
-158.94
-188.17
-220.19
-250.72
-276.75
-296.29
-307.74
-309.89
-302.90
-288.80
-271.10
-252.99
-235.46
-217.16
-196.32
-173.28
-151.22
-134.63
-125.64
-121.35
-114.66
-98.48
-70.80
-37.04
-7.84
6.68
2.88
-13.86
-31.72
-38.57
-28.08
-2.46
29.56
57.83
75.90
83.35
84.35
84.14
85.75
88.82
90.69
88.74
82.30
73.13
64.47
59.11
57.78
58.77
58.88
55.05
45.72
31.39
14.12
-3.65
-19.97
-33.89
-45.23
-54.14
-60.55
-64.06
-64.01
-59.78
-51.11
-38.25
-22.01
-3.71
14.92
31.94
45.53
54.50
58.53
58.25
54.97
50.17
45.08
40.48
36.55
33.10
29.69
25.83
21.17
15.64
9.57
3.52
-2.07
-7.35
-13.20
-20.98
-31.85
-46.01
-62.29
-78.37
-91.53
-99.66
-101.86
-98.49
-90.68
-79.57
-65.84
-49.75
-31.67
-12.63
5.48
20.42
30.44
35.18
35.99
35.41
36.06
39.54
45.82
53.52
60.70
65.78
68.05
67.64
65.00
60.52
54.34
46.43
36.89
26.00
14.14
1.65
-11.15
-23.64
-34.73
-42.80
-46.13
-43.53
-34.89
-21.23
-4.31
13.99
32.07
48.80
63.28
74.62
82.07
85.38
85.08
82.48
79.20
76.59
75.22
74.87
74.81
74.23
72.62
69.70
65.47
59.98
53.39
45.96
38.00
29.74
21.16
11.90
1.38
-10.85
-24.75
-39.49
-53.51
-64.81
-71.48
-72.16
-66.46
-54.99
-39.21
-21.05
-2.43
15.05
30.23
42.33
50.87
55.68
56.97
55.39
52.01
48.04
44.46
41.69
39.46
37.06
33.76
29.14
23.39
17.09
10.96
5.49
0.74
-3.68
-8.53
-14.73
-23.18
-34.39
-48.24
-63.69
-78.79
-91.04
-98.01
-97.96
-90.33
-75.79
-55.98
-33.04
-9.12
13.88
34.37
51.12
63.31
70.64
73.43
72.58
69.37
65.16
61.01
57.53
54.68
51.92
48.46
43.55
36.91
28.88
20.33
12.20
5.01
-1.44
-8.05
-16.03
-26.22
-38.68
-52.54
-66.22
-77.83
-85.65
-88.37
-85.26
-76.26
-62.00
-43.75
-23.20
-2.12
17.91
35.78
50.77
62.47
70.63
75.14
76.14
74.16
70.13
65.18
60.23
55.74
51.56
47.13
41.87
35.54
28.39
20.99
13.93
7.53
1.65
-4.20
-10.73
-18.61
-28.35
-40.06
-53.34
-67.15
-79.81
-89.32
-93.74
-91.77
-83.12
-68.60
-49.87
-28.94
-7.70
12.40
30.39
45.67
57.80
66.41
71.29
72.52
70.59
66.44
61.21
55.89
51.06
46.69
42.35
37.44
31.63
24.98
17.92
11.03
4.70
-1.05
-6.54
-12.25
-18.67
-26.12
-34.85
-44.95
-56.35
-68.54
-80.45
-90.33
-96.18
-96.16
-89.28
-75.84
-57.27
-35.82
-13.79
7.00
25.45
41.07
53.65
63.00
68.82
70.93
69.54
65.44
59.88
54.25
49.57
46.13
43.49
40.78
37.15
32.21
26.16
19.60
13.21
7.33
1.94
-3.38
-9.26
-16.31
-25.00
-35.54
-47.73
-60.81
-73.38
-83.50
-89.04
-88.28
-80.49
-66.16
-47.03
-25.44
-3.79
16.12
33.26
47.32
58.32
66.30
71.15
72.70
71.09
66.87
61.10
54.98
49.50
45.04
41.30
37.60
33.21
27.80
21.49
14.77
8.16
1.96
-3.90
-9.81
-16.30
-23.94
-33.20
-44.32
-57.17
-70.97
-84.26
-95.02
-101.00
-100.47
-92.68
-78.19
-58.65
-36.34
-13.51
8.05
27.20
43.29
55.95
64.96
70.21
71.87
70.47
66.85
62.05
57.00
52.40
48.46
45.01
41.56
37.63
32.85
27.21
20.91
14.27
7.56
0.84
-6.06
-13.46
-21.76
-31.34
-42.40
-54.90
-68.36
-81.78
-93.54
-101.67
-104.24
-99.94
-88.56
-71.13
-49.66
-26.61
-4.24
15.77
32.50
45.62
55.11
61.06
63.61
63.01
59.84
54.94
49.34
43.95
39.36
35.66
32.49
29.28
25.47
20.80
15.40
9.68
4.11
-1.03
-5.80
-10.60
-16.07
-22.81
-31.21
-41.30
-52.65
-64.34
-75.01
-82.99
-86.55
-84.28
-75.52
-60.63
-40.98
-18.61
4.23
25.64
44.19
59.01
69.59
75.74
77.58
75.63
70.85
64.49
57.85
51.90
47.05
43.09
39.40
35.26
30.13
23.90
16.88
9.61
2.65
-3.76
-9.73
-15.77
-22.59
-30.81
-40.83
-52.52
-65.18
-77.51
-87.72
-93.91
-94.44
-88.41
-75.93
-58.17
-37.07
-14.85
6.46
25.41
41.14
53.31
61.83
66.75
68.27
66.75
62.82
57.31
51.13
45.06
39.53
34.61
30.08
25.57
20.82
15.71
10.32
4.81
-0.66
-6.07
-11.63
-17.67
-24.69
-33.09
-43.06
-54.39
-66.38
-77.84
-87.17
-92.72
-93.06
-87.46
-76.11
-60.11
-41.24
-21.46
-2.53
14.35
28.48
39.53
47.25
51.42
51.99
49.31
44.23
37.96
31.74
26.40
22.17
18.72
15.50
12.05
8.23
4.21
0.25
-3.39
-6.63
-9.53
-12.39
-15.75
-20.37
-27.06
-36.38
-48.25
-61.73
-75.00
-85.78
-91.81
-91.47
-84.16
-70.41
-51.70
-30.11
-7.86
13.06
31.07
45.17
54.89
60.21
61.48
59.34
54.74
48.83
42.77
37.48
33.42
30.45
27.96
25.17
21.54
16.98
11.87
6.78
2.13
-2.08
-6.27
-11.15
-17.37
-25.38
-35.25
-46.59
-58.47
-69.45
-77.67
-81.27
-78.94
-70.32
-56.18
-38.27
-18.68
0.65
18.38
33.75
46.41
56.13
62.65
65.70
65.28
61.81
56.18
49.57
43.04
37.30
32.44
28.11
23.69
18.72
13.05
6.89
0.62
-5.45
-11.25
-16.97
-23.04
-29.94
-38.12
-47.80
-58.80
-70.43
-81.36
-89.82
-93.94
-92.31
-84.37
-70.67
-52.70
-32.41
-11.75
7.74
25.04
39.54
50.81
58.57
62.65
63.21
60.73
56.10
50.35
44.45
39.10
34.55
30.66
27.11
23.46
19.40
14.77
9.55
3.79
-2.39
-8.97
-16.03
-23.79
-32.61
-42.84
-54.56
-67.33
-80.00
-90.81
-97.74
-99.05
-93.89
-82.53
-66.25
-46.93
-26.52
-6.65
11.49
27.15
39.76
48.87
54.17
55.66
53.80
49.53
44.10
38.77
34.38
31.22
28.97
26.94
24.34
20.61
15.61
9.64
3.24
-2.99
-8.71
-13.97
-19.21
-25.10
-32.28
-41.09
-51.34
-62.21
-72.35
-79.99
-83.38
-81.16
-72.77
-58.71
-40.39
-19.81
0.97
20.28
37.02
50.61
60.72
67.19
69.95
69.15
65.39
59.73
53.44
47.74
43.32
40.23
37.92
35.62
32.63
28.67
23.89
18.66
13.31
7.89
2.18
-4.26
-11.92
-21.23
-32.39
-45.21
-58.96
-72.27
-83.26
-89.90
-90.56
-84.48
-72.03
-54.58
-34.07
-12.58
8.15
26.83
42.67
55.17
64.11
69.46
71.37
70.24
66.70
61.60
55.84
50.21
45.18
40.81
36.79
32.61
27.87
22.43
16.48
10.39
4.44
-1.30
-7.09
-13.44
-20.98
-30.23
-41.43
-54.35
-68.20
-81.56
-92.54
-99.11
-99.61
-93.18
-80.07
-61.58
-39.71
-16.63
5.75
26.05
43.40
57.32
67.56
73.99
76.72
76.12
72.90
67.95
62.20
56.38
50.89
45.81
40.95
36.07
30.96
25.54
19.84
13.96
7.90
1.62
-5.02
-12.22
-20.13
-28.92
-38.74
-49.74
-61.89
-74.79
-87.37
-97.83
-103.91
-103.55
-95.59
-80.26
-59.31
-35.44
-11.56
9.95
27.70
41.23
50.73
56.72
59.78
60.50
59.53
57.50
55.00
52.49
50.21
48.21
46.37
44.50
42.45
40.07
37.18
33.46
28.60
22.37
14.85
6.46
-2.23
-10.84
-19.46
-28.72
-39.33
-51.54
-64.65
-76.98
-86.16
-89.74
-85.67
-72.76
-51.10
-22.35
10.24
42.53
70.52
91.53
104.80
111.20
112.31
109.38
102.84
92.70
79.34
64.10
49.18
36.74
28.01
22.62
18.99
15.17
9.75
2.46
-6.01
-14.49
-22.05
-28.45
-34.21
-40.38
-47.90
-57.23
-68.16
-79.67
-90.19
-97.84
-100.91
-98.22
-89.53
-75.53
-57.72
-37.90
-17.73
1.58
19.24
34.73
47.55
57.15
63.14
65.42
64.39
60.86
55.89
50.54
45.52
41.16
37.43
33.99
30.41
26.36
21.68
16.43
10.76
4.86
-1.20
-7.49
-14.29
-21.99
-31.01
-41.65
-53.83
-66.90
-79.53
-89.79
-95.67
-95.54
-88.73
-75.74
-58.05
-37.70
-16.75
3.15
20.86
35.63
46.97
54.52
58.13
58.00
54.87
49.90
44.42
39.59
36.01
33.59
31.70
29.49
26.33
22.06
17.00
11.68
6.59
1.95
-2.40
-6.93
-12.26
-19.00
-27.60
-38.04
-49.64
-61.01
-70.12
-74.84
-73.53
-65.55
-51.52
-33.11
-12.56
7.96
26.73
42.66
55.19
64.06
69.20
70.73
69.07
64.90
59.19
52.92
46.87
41.40
36.48
31.71
26.62
20.90
14.54
7.85
1.27
-4.86
-10.56
-16.15
-22.28
-29.65
-38.76
-49.65
-61.78
-73.97
-84.54
-91.57
-93.35
-88.87
-78.17
-62.35
-43.28
-23.00
-3.24
14.85
30.60
43.61
53.50
59.94
62.81
62.31
59.11
54.10
48.21
42.16
36.30
30.74
25.45
20.40
15.62
11.16
7.04
3.14
-0.84
-5.28
-10.67
-17.43
-25.87
-36.01
-47.45
-59.21
-69.76
-77.27
-79.97
-76.75
-67.45
-52.96
-34.91
-15.20
4.40
22.51
38.19
50.76
59.79
65.11
66.86
65.55
62.04
57.33
52.27
47.39
42.82
38.32
33.62
28.50
23.06
17.54
12.20
7.11
2.05
-3.43
-9.95
-18.05
-27.96
-39.48
-51.73
-63.25
-72.18
-76.68
-75.43
-68.05
-55.24
-38.55
-19.92
-1.25
15.93
30.65
42.30
50.59
55.43
56.93
55.49
51.83
46.88
41.53
36.43
31.74
27.23
22.47
17.14
11.26
5.17
-0.67
-5.91
-10.58
-15.09
-20.17
-26.62
-34.99
-45.23
-56.54
-67.28
-75.34
-78.68
-75.97
-67.01
-52.79
-35.12
-16.10
2.40
18.99
32.77
43.15
49.76
52.50
51.62
47.84
42.23
35.94
29.94
24.70
20.20
16.08
11.90
7.42
2.63
-2.25
-7.00
-11.57
-16.21
-21.44
-27.88
-36.04
-45.93
-56.96
-67.85
-76.78
-81.83
-81.43
-74.86
-62.44
-45.50
-25.96
-5.96
12.58
28.24
40.14
47.97
51.83
52.19
49.77
45.45
40.06
34.35
28.77
23.60
18.90
14.65
10.80
7.25
3.91
0.64
-2.76
-6.58
-11.23
-17.22
-24.96
-34.52
-45.32
-56.00
-64.52
-68.69
-66.77
-58.18
-43.70
-25.27
-5.39
13.59
30.06
43.16
52.65
58.60
61.16
60.55
57.20
51.83
45.35
38.66
32.44
26.97
22.21
17.88
13.69
9.41
4.95
0.22
-4.94
-10.89
-18.11
-27.09
-37.97
-50.27
-62.68
-73.18
-79.54
-79.94
-73.59
-60.97
-43.64
-23.80
-3.66
14.96
30.87
43.42
52.34
57.64
59.59
58.71
55.79
51.72
47.20
42.57
37.68
32.14
25.59
18.03
9.86
1.76
-5.66
-12.31
-18.66
-25.74
-34.63
-45.89
-59.06
-72.49
-83.54
-89.26
-87.27
-76.50
-57.68
-33.21
-6.57
18.63
39.53
54.68
64.11
69.01
71.09
71.89
72.37
72.83
73.00
72.40
70.44
66.58
60.39
51.68
40.71
28.30
15.70
4.16
-5.58
-13.58
-20.74
-28.35
-37.55
-48.81
-61.76
-75.07
-86.83
-94.83
-97.09
-92.39
-80.63
-62.96
-41.56
-19.01
2.30
20.68
35.15
45.35
51.24
53.07
51.35
46.99
41.13
34.92
29.22
24.37
20.24
16.42
12.50
8.26
3.71
-0.97
-5.57
-10.08
-14.74
-20.12
-26.89
-35.50
-45.79
-56.74
-66.56
-73.08
-74.42
-69.50
-58.35
-42.11
-22.69
-2.26
17.13
33.86
46.87
55.67
60.29
61.19
59.14
55.06
49.83
44.16
38.51
33.07
27.85
22.75
17.73
12.74
7.83
2.95
-2.01
-7.38
-13.64
-21.37
-31.04
-42.62
-55.30
-67.40
-76.64
-80.74
-78.15
-68.55
-52.97
-33.45
-12.42
7.97
26.14
41.10
52.26
59.38
62.44
61.83
58.33
53.01
46.97
41.05
35.65
30.76
26.14
21.54
16.80
11.86
6.73
1.33
-4.48
-10.98
-18.53
-27.53
-38.25
-50.54
-63.55
-75.60
-84.46
-87.87
-84.33
-73.61
-56.88
-36.28
-14.19
7.33
26.91
43.75
57.35
67.31
73.34
75.44
74.05
70.11
64.79
59.13
53.73
48.68
43.61
38.12
31.94
25.19
18.26
11.60
5.51
-0.11
-5.75
-12.21
-20.31
-30.63
-43.20
-57.23
-71.15
-82.71
-89.51
-89.65
-82.30
-68.02
-48.55
-26.32
-3.71
17.43
35.95
51.20
62.72
70.16
73.35
72.48
68.33
62.13
55.29
48.92
43.59
39.22
35.33
31.33
26.82
21.69
16.11
10.28
4.30
-1.93
-8.86
-17.03
-27.03
-39.14
-53.10
-67.93
-81.89
-92.75
-98.21
-96.64
-87.48
-71.54
-50.66
-27.22
-3.51
18.71
38.27
54.38
66.45
74.03
76.98
75.66
71.03
64.52
57.62
51.50
46.68
42.93
39.60
35.90
31.37
26.03
20.32
14.83
9.94
5.55
1.09
-4.39
-11.86
-21.96
-34.65
-49.00
-63.16
-74.74
-81.28
-80.97
-73.14
-58.41
-38.54
-15.86
7.25
28.69
46.86
60.67
69.57
73.55
73.16
69.45
63.71
57.20
50.90
45.28
40.31
35.54
30.38
24.40
17.55
10.24
3.20
-2.86
-7.61
-11.35
-14.96
-19.63
-26.43
-35.90
-47.72
-60.64
-72.70
-81.57
-85.10
-81.86
-71.56
-55.11
-34.42
-11.80
10.59
31.06
48.58
62.52
72.48
78.17
79.54
77.02
71.57
64.66
57.81
52.13
47.93
44.67
41.30
36.75
30.44
22.50
13.66
4.86
-3.20
-10.33
-16.96
-23.94
-32.24
-42.55
-55.11
-69.37
-84.01
-97.08
-106.26
-109.52
-105.55
-94.25
-76.74
-55.07
-31.63
-8.67
12.09
29.54
43.02
52.22
57.10
57.94
55.34
50.33
44.15
38.01
32.75
28.59
25.22
21.96
18.22
13.73
8.75
3.80
-0.60
-4.30
-7.67
-11.49
-16.70
-24.06
-33.85
-45.68
-58.47
-70.44
-79.53
-83.81
-81.98
-73.75
-59.82
-41.71
-21.23
-0.15
20.02
38.05
52.89
63.67
69.84
71.34
68.75
63.21
56.19
49.07
42.74
37.38
32.53
27.37
21.22
13.93
6.00
-1.63
-8.04
-12.96
-17.09
-22.05
-29.76
-41.58
-57.55
-76.01
-93.89
-107.69
-114.67
-113.81
-106.05
-93.86
-80.08
-66.87
-55.20
-44.78
-34.85
-25.00
-15.67
-8.06
-3.32
-1.48
-0.74
2.30
12.02
32.33
65.29
109.78
160.60
208.65
242.36
250.83
227.98
175.87
105.46
34.10
-19.86
-43.17
-32.04
7.07
60.29
111.32
146.60
158.78
147.55
118.46
80.12
41.44
9.48
-11.61
-20.34
-16.89
-2.24
22.15
53.90
88.71
120.21
140.99
144.75
128.93
96.21
54.45
14.10
-15.56
-29.99
-30.80
-24.34
-18.20
-17.28
-21.76
-27.96
-31.30
-29.55
-24.45
-20.78
-23.58
-35.34
-54.56
-76.59
-95.99
-108.86
-114.04
-112.91
-107.80
-100.52
-91.59
-80.40
-66.13
-48.61
-28.95
-9.25
7.92
20.44
27.20
28.41
25.39
20.07
14.30
9.33
5.51
2.33
-1.08
-5.48
-10.94
-16.89
-22.30
-26.33
-28.76
-30.23
-32.15
-36.23
-43.91
-55.82
-71.47
-89.16
-106.40
-120.43
-128.91
-130.47
-124.98
-113.44
-97.50
-78.96
-59.54
-40.71
-23.86
-10.25
-0.76
4.44
6.05
5.48
4.20
3.13
2.34
1.28
-0.57
-3.21
-6.08
-8.45
-10.02
-11.13
-12.56
-14.95
-18.52
-23.15
-28.80
-35.89
-45.17
-57.14
-71.28
-85.73
-97.62
-104.04
-103.13
-94.65
-79.86
-60.85
-39.75
-18.29
2.30
21.11
37.31
50.24
59.41
64.77
66.72
65.93
63.26
59.52
55.29
50.88
46.29
41.32
35.74
29.50
22.82
16.10
9.74
3.82
-2.03
-8.55
-16.63
-26.98
-39.83
-54.70
-70.38
-85.00
-96.28
-102.00
-100.54
-91.33
-75.13
-53.81
-29.94
-6.08
15.72
34.17
48.70
59.24
65.96
69.14
69.17
66.64
62.37
57.24
52.00
47.02
42.28
37.49
32.37
26.89
21.20
15.56
9.97
4.07
-2.89
-11.78
-23.27
-37.42
-53.38
-69.37
-82.94
-91.53
-93.12
-86.81
-73.06
-53.57
-30.73
-7.11
15.16
34.56
50.19
61.58
68.64
71.54
70.81
67.33
62.20
56.43
50.76
45.52
40.65
35.94
31.13
26.10
20.80
15.24
9.37
3.09
-3.88
-12.02
-21.88
-33.85
-47.74
-62.44
-75.85
-85.26
-88.13
-82.96
-69.76
-50.10
-26.50
-1.71
21.90
42.66
59.55
71.98
79.63
82.55
81.17
76.40
69.54
61.99
54.84
48.57
43.05
37.64
31.66
24.71
16.85
8.50
0.16
-7.94
-16.15
-25.28
-36.35
-50.08
-66.41
-84.14
-100.97
-113.91
-120.11
-117.63
-106.11
-86.91
-62.62
-36.30
-10.67
12.42
31.99
47.62
59.16
66.58
70.20
70.75
69.36
67.26
65.32
63.75
62.11
59.70
56.01
50.96
44.94
38.53
32.20
26.09
19.93
13.17
5.03
-5.25
-18.24
-33.95
-51.51
-69.01
-83.68
-92.51
-93.16
-84.70
-67.88
-44.87
-18.41
8.80
34.55
57.00
74.56
85.88
90.22
87.96
80.84
71.48
62.47
55.40
50.43
46.61
42.77
38.22
33.04
27.80
22.98
18.60
14.13
8.88
2.23
-6.23
-16.76
-29.53
-44.51
-61.13
-77.95
-92.61
-102.28
-104.41
-97.64
-82.21
-60.04
-34.03
-7.28
17.72
39.37
56.89
70.03
78.68
82.84
82.78
79.22
73.28
66.37
59.69
53.97
49.26
45.08
40.75
35.75
29.97
23.65
17.20
10.88
4.57
-2.26
-10.49
-20.91
-33.92
-48.98
-64.53
-78.15
-87.13
-89.23
-83.29
-69.56
-49.57
-25.53
0.19
25.55
48.96
69.10
84.84
95.17
99.46
97.76
91.00
80.89
69.47
58.50
48.98
40.96
33.87
27.01
19.94
12.75
5.80
-0.55
-6.33
-12.02
-18.50
-26.72
-37.44
-50.85
-66.27
-82.08
-95.86
-104.81
-106.64
-100.12
-85.53
-64.47
-39.26
-12.28
14.45
39.39
61.26
78.86
91.11
97.30
97.42
92.35
83.75
73.56
63.51
54.64
47.19
40.70
34.46
27.86
20.71
13.27
5.97
-0.84
-7.15
-13.43
-20.52
-29.40
-40.83
-54.94
-70.95
-87.00
-100.45
-108.49
-108.93
-100.90
-85.08
-63.45
-38.57
-12.88
11.80
34.15
53.18
67.90
77.38
81.01
78.98
72.42
63.26
53.64
45.22
38.66
33.59
28.99
23.82
17.54
10.32
2.82
-4.26
-10.56
-16.30
-22.10
-28.81
-37.14
-47.60
-60.33
-74.95
-90.42
-104.91
-115.98
-121.11
-118.46
-107.42
-88.95
-65.20
-38.83
-12.37
12.33
34.08
52.24
66.38
76.18
81.49
82.50
79.90
74.82
68.55
62.13
56.01
50.01
43.53
36.01
27.27
17.69
8.00
-1.05
-9.13
-16.48
-23.94
-32.64
-43.67
-57.61
-74.12
-91.79
-108.21
-120.55
-126.33
-124.08
-113.64
-95.97
-72.66
-45.54
-16.50
12.46
39.15
61.32
77.13
85.67
87.21
83.15
75.46
66.12
56.59
47.72
39.84
33.09
27.52
23.18
19.96
17.51
15.28
12.50
8.40
2.24
-6.40
-17.85
-32.01
-48.26
-65.34
-81.19
-93.22
-98.89
-96.35
-85.09
-66.08
-41.52
-14.30
12.69
37.14
57.58
73.35
84.32
90.58
92.27
89.76
83.81
75.75
67.43
60.75
57.06
56.59
58.35
60.63
61.75
60.75
57.54
52.56
46.02
37.62
26.56
12.03
-6.21
-27.53
-50.43
-72.79
-92.26
-106.51
-113.49
-111.81
-101.10
-82.42
-58.20
-31.81
-6.60
14.87
31.30
42.57
49.20
51.74
50.62
46.19
39.14
30.57
21.90
14.39
8.69
4.62
1.46
-1.62
-5.08
-8.92
-12.82
-16.60
-20.42
-24.87
-30.78
-38.89
-49.49
-62.05
-75.10
-86.38
-93.28
-93.52
-85.85
-70.47
-48.95
-23.85
2.08
26.39
47.35
63.93
75.63
82.37
84.45
82.56
77.73
71.14
63.96
57.02
50.73
45.01
39.50
33.80
27.65
21.11
14.34
7.50
0.48
-7.19
-16.22
-27.37
-41.03
-56.78
-73.15
-87.73
-97.65
-100.31
-94.30
-79.80
-58.54
-33.32
-7.10
17.67
39.32
56.95
70.11
78.61
82.57
82.42
79.05
73.61
67.29
60.92
54.81
48.79
42.45
35.49
27.92
20.14
12.63
5.69
-0.81
-7.54
-15.49
-25.61
-38.40
-53.57
-69.84
-85.05
-96.54
-101.72
-98.78
-87.25
-68.21
-43.98
-17.45
8.61
32.13
51.86
67.13
77.62
83.18
83.93
80.45
73.85
65.62
57.26
49.81
43.59
38.17
32.77
26.67
19.66
12.05
4.45
-2.61
-9.05
-15.38
-22.52
-31.47
-42.91
-56.88
-72.54
-88.11
-101.17
-109.04
-109.53
-101.60
-85.70
-63.63
-38.01
-11.56
13.52
35.63
53.78
67.24
75.52
78.48
76.55
70.89
63.18
55.22
48.36
43.15
39.29
35.91
32.12
27.40
21.78
15.66
9.52
3.57
-2.30
-8.64
-16.20
-25.71
-37.57
-51.53
-66.43
-80.13
-89.93
-93.24
-88.38
-75.22
-55.21
-30.96
-5.38
18.94
40.19
57.34
69.83
77.44
80.20
78.55
73.43
66.23
58.44
51.27
45.23
40.13
35.24
29.76
23.21
15.68
7.72
0.03
-6.97
-13.34
-19.75
-27.22
-36.83
-49.26
-64.47
-81.43
-98.09
-111.61
-119.04
-118.05
-107.71
-88.81
-63.65
-35.36
-6.93
19.36
42.17
60.82
74.89
84.01
87.90
86.79
81.57
73.80
65.29
57.56
51.36
46.55
42.38
37.91
32.53
26.14
19.09
11.92
5.02
-1.66
-8.58
-16.57
-26.52
-39.09
-54.47
-71.98
-90.02
-106.04
-117.05
-120.32
-114.23
-98.87
-76.00
-48.60
-19.96
7.17
31.00
50.70
65.99
76.77
82.89
84.28
81.27
74.83
66.49
57.99
50.76
45.38
41.48
38.03
33.82
28.10
20.86
12.77
4.71
-2.72
-9.48
-16.15
-23.60
-32.64
-43.80
-57.17
-72.36
-88.35
-103.42
-115.20
-121.09
-118.93
-107.78
-88.28
-62.56
-33.64
-4.58
22.21
45.18
63.52
76.83
84.85
87.55
85.30
79.10
70.51
61.41
53.40
47.36
43.24
40.19
37.02
32.75
27.01
20.06
12.57
5.23
-1.65
-8.21
-15.04
-22.96
-32.79
-45.07
-59.82
-76.23
-92.53
-106.18
-114.23
-114.17
-104.67
-86.05
-60.25
-30.23
0.82
30.29
56.45
78.46
95.90
108.56
116.21
118.77
116.55
110.48
102.03
92.92
84.65
78.02
73.03
68.97
64.95
60.29
54.97
49.54
44.93
41.96
40.91
41.36
42.25
42.09
39.49
33.68
24.86
14.49
5.02
-0.56
0.50
10.15
29.05
56.41
89.87
125.59
158.55
183.16
194.30
188.40
164.50
124.51
72.79
15.02
-42.82
-94.98
-136.25
-162.41
-171.48
-164.98
-148.56
-130.99
-121.56
-126.43
-146.13
-175.57
-206.62
-231.71
-246.99
-253.35
-255.26
-258.38
-266.79
-281.21
-298.93
-314.68
-322.49
-317.52
-297.62
-263.70
-219.40
-169.10
-116.28
-62.79
-9.12
45.05
100.20
156.68
214.53
272.34
327.66
377.03
415.99
439.84
445.00
430.74
400.05
359.02
313.28
268.35
228.76
197.19
173.69
155.91
140.09
122.40
99.83
68.29
26.72
-21.99
-72.42
-119.31
-159.71
-193.66
-222.92
-250.00
-280.47
-317.12
-357.68
-395.30
-421.47
-428.91
-414.63
-380.25
-311.31
-210.27
-96.29
5.93
83.03
137.17
177.68
210.48
236.66
254.46
259.43
251.35
235.68
219.32
207.14
200.30
195.08
186.85
172.03
146.59
109.64
63.34
10.78
-47.13
-99.14
-138.35
-161.49
-170.02
-170.18
-167.60
-164.58
-160.28
-152.62
-139.89
-123.52
-105.92
-89.76
-78.22
-73.44
-76.17
-85.37
-97.55
-107.08
-108.26
-95.99
-68.11
-27.24
19.73
63.38
94.48
107.52
101.83
80.84
51.25
20.65
-4.41
-20.17
-26.33
-25.99
-23.97
-25.78
-35.54
-53.68
-76.73
-98.81
-114.10
-119.18
-115.91
-105.54
-90.71
-73.50
-54.21
-31.96
-6.22
21.93
50.51
75.86
96.25
111.53
123.15
133.12
142.35
150.41
155.93
157.68
155.23
149.74
142.95
136.57
131.65
127.74
123.34
116.95
108.12
97.81
88.25
81.38
76.93
73.12
67.02
55.98
38.97
16.87
-8.34
-34.18
-58.94
-81.78
-101.69
-117.53
-127.88
-131.75
-129.48
-122.71
-113.74
-104.49
-96.52
-88.46
-78.79
-66.36
-51.03
-33.76
-16.25
-0.45
12.21
20.96
26.20
28.97
30.82
33.13
36.34
39.50
40.44
36.83
27.09
11.79
-6.66
-24.58
-38.39
-45.48
-44.78
-37.17
-24.97
-11.94
-2.22
0.66
-4.38
-14.75
-24.56
-26.57
-15.33
11.40
49.56
91.45
129.06
156.75
172.46
176.72
172.43
159.92
139.93
113.97
85.04
56.91
32.96
14.84
2.20
-7.48
-17.44
-29.44
-43.54
-58.05
-70.57
-79.27
-83.52
-84.08
-82.49
-80.46
-78.98
-78.54
-79.07
-80.13
-81.21
-81.90
-82.00
-81.59
-80.94
-80.13
-79.27
-78.33
-77.23
-75.91
-74.19
-72.04
-69.37
-66.15
-62.23
-57.49
-51.84
-45.30
-38.32
-30.64
-22.25
-13.30
-4.04
5.27
14.28
22.65
30.01
36.08
40.81
44.15
46.22
47.21
47.30
46.65
45.36
43.46
40.93
37.79
33.96
29.36
23.97
17.85
11.13
4.02
-3.28
-10.52
-17.47
-23.99
-29.93
-35.27
-40.04
-44.20
-47.80
-50.98
-53.88
-56.69
-59.62
-62.88
-66.64
-71.06
-76.01
-81.40
-87.13
-93.09
-99.19
-105.32
-111.41
-117.43
-123.42
-129.09
-134.24
-138.70
-142.29
-144.78
-145.84
-144.98
-141.48
-136.65
-130.92
-124.56
-117.75
-110.59
-103.21
-95.70
-88.20
-80.88
-73.96
-67.34
-61.03
-55.08
-49.56
-44.57
-40.21
-36.61
-33.91
-32.26
-31.56
-31.74
-32.72
-34.44
-36.77
-39.60
-42.80
-46.25
-49.83
-53.29
-56.46
-59.23
-61.51
-63.23
-64.34
-64.78
-64.50
-63.50
-61.81
-59.54
-56.92
-54.20
-51.61
-49.31
-47.39
-45.86
-44.73
-44.02
-43.49
-43.00
-42.56
-42.28
-42.35
-42.81
-43.53
-44.31
-44.99
-45.32
-45.30
-45.16
-45.26
-45.82
-46.79
-47.81
-48.42
-48.49
-47.50
-45.53
-43.00
-40.43
-37.92
-34.78
-29.60
-20.82
-7.61
11.89
38.05
69.74
104.78
140.98
177.25
214.06
252.54
293.15
339.20
391.80
449.33
507.82
562.64
610.38
650.81
686.46
721.42
766.78
830.37
912.75
1004.83
1090.09
1150.91
1177.15
1170.70
1144.92
1128.78
1148.58
1218.43
1334.84
1479.07
1624.56
1747.12
1830.80
1810.58
1648.42
1338.32
914.49
439.91
-19.54
-418.27
-736.14
-972.82
-1138.53
-1237.61
-1275.98
-1262.80
-1212.26
-1139.00
-1060.77
-990.38
-934.79
-896.93
-870.87
-851.26
-834.90
-823.75
-815.96
-807.49
-792.53
-767.02
-731.52
-686.98
-637.44
-587.52
-540.88
-499.36
-464.54
-437.18
-417.77
-406.70
-400.86
-396.09
-388.15
-374.47
-354.65
-331.12
-307.10
-285.39
-267.38
-252.26
-238.54
-224.50
-209.50
-194.06
-179.98
-169.22
-162.87
-160.49
-160.11
-160.98
-161.29
-159.54
-155.05
-148.38
-140.90
-134.24
-129.79
-128.29
-129.68
-132.87
-136.44
-138.76
-138.37
-134.03
-124.92
-110.67
-91.39
-67.75
-40.78
-12.09
16.36
42.65
65.15
82.64
94.69
101.65
104.64
105.23
104.91
104.75
105.28
106.48
107.78
108.61
108.92
109.40
111.47
116.88
127.28
143.72
166.37
194.37
226.06
259.38
292.24
322.88
349.97
372.82
391.51
406.73
419.14
428.74
434.23
433.24
423.23
402.59
371.38
331.57
286.38
239.03
191.94
146.19
102.05
59.79
20.28
-15.27
-45.65
-70.12
-88.84
-102.55
-112.07
-117.89
-119.89
-117.45
-110.02
-97.58
-80.75
-60.67
-38.87
-16.65
4.88
24.98
43.21
59.33
73.01
83.73
90.91
94.02
92.98
88.20
80.80
72.44
64.98
59.99
58.30
59.84
63.71
68.42
72.21
73.66
71.91
66.59
57.69
45.46
30.40
13.46
-3.85
-19.90
-33.60
-44.59
-53.28
-59.95
-63.94
-63.54
-56.89
-43.10
-23.65
-2.39
15.88
27.29
30.57
27.26
20.58
13.58
8.05
4.21
1.39
-0.89
-2.39
-2.34
-0.32
3.02
5.72
5.49
0.83
-8.18
-19.91
-32.08
-42.77
-50.84
-55.99
-58.22
-57.34
-53.07
-45.58
-36.10
-26.95
-20.82
-19.74
-24.37
-33.77
-45.63
-57.04
-65.03
-67.42
-63.53
-54.26
-41.73
-28.55
-16.82
-7.67
-1.29
2.72
4.95
5.98
6.54
7.54
9.93
14.34
20.61
27.71
33.89
37.24
36.25
30.25
19.78
6.67
-6.67
-17.82
-25.19
-28.67
-29.60
-30.34
-33.43
-40.52
-51.59
-64.97
-77.88
-87.28
-90.78
-87.10
-76.36
-59.93
-40.12
-19.61
-0.85
14.33
24.93
30.69
32.18
30.60
27.40
23.95
21.15
19.30
18.18
17.10
15.25
12.34
8.69
5.27
3.31
3.69
6.81
12.22
18.78
24.78
28.52
28.87
25.65
19.99
13.77
8.93
6.34
5.43
4.39
1.45
-4.33
-12.47
-21.25
-28.95
-34.45
-37.40
-37.92
-36.29
-32.74
-28.00
-23.12
-19.21
-16.95
-16.25
-16.35
-16.27
-15.38
-13.71
-11.84
-10.45
-9.73
-9.38
-8.94
-8.19
-7.63
-8.19
-10.71
-15.60
-22.41
-29.79
-36.04
-39.58
-39.65
-36.67
-31.96
-27.06
-22.99
-19.97
-17.58
-15.43
-13.36
-11.53
-10.00
-8.64
-6.96
-4.41
-1.01
2.52
4.96
5.76
5.72
7.18
12.96
24.91
42.66
63.33
82.59
96.15
101.55
98.42
88.21
73.09
54.91
34.88
13.76
-7.41
-27.06
-43.24
-54.37
-59.69
-59.60
-55.36
-48.52
-40.55
-32.18
-23.84
-15.60
-7.63
-0.31
5.75
9.84
11.49
10.66
7.86
3.90
-0.34
-4.20
-7.27
-9.48
-10.99
-11.95
-12.45
-12.41
-11.51
-9.50
-6.22
-1.83
3.43
9.11
14.78
19.85
23.75
26.03
26.35
24.51
20.41
14.34
6.82
-1.29
-9.05
-15.51
-19.87
-21.63
-20.56
-16.86
-11.06
-3.88
3.91
11.64
18.84
25.19
30.57
35.12
38.91
41.89
43.89
44.54
43.47
40.30
34.77
26.88
16.97
5.68
-6.11
-17.40
-27.27
-35.04
-40.36
-43.24
-44.04
-43.41
-42.08
-40.79
-40.00
-39.93
-40.53
-41.50
-42.43
-42.83
-42.32
-40.73
-38.09
-34.60
-30.59
-26.39
-22.33
-18.65
-15.45
-12.66
-10.20
-7.98
-5.88
-3.84
-1.82
0.08
1.74
3.07
4.08
4.79
5.21
5.43
5.62
5.91
6.37
7.03
7.94
9.08
10.41
11.93
13.57
15.36
17.29
19.23
21.08
22.67
23.90
24.64
24.82
24.51
23.93
23.57
24.03
25.88
29.60
35.59
43.93
54.35
66.03
77.78
88.18
95.73
98.94
96.70
88.31
73.77
53.75
29.43
2.48
-25.12
-51.37
-74.49
-93.11
-106.39
-114.05
-116.34
-113.97
-108.01
-99.59
-89.81
-79.56
-69.53
-60.22
-51.87
-44.43
-37.71
-31.48
-25.47
-19.58
-13.76
-7.98
-2.41
2.81
7.53
11.51
14.68
17.02
18.61
19.56
20.09
20.42
20.81
21.57
22.87
24.79
27.32
30.39
33.71
36.90
39.29
40.22
39.13
35.53
29.19
20.19
8.97
-3.71
-16.85
-29.46
-40.49
-49.11
-54.77
-57.25
-56.75
-53.77
-48.98
-43.07
-36.69
-30.32
-24.28
-18.75
-13.69
-9.00
-4.68
-0.68
2.96
6.19
8.89
11.01
12.48
13.44
14.03
14.41
14.76
15.21
15.79
16.40
16.98
17.35
17.30
16.66
15.40
13.55
11.23
8.58
5.76
3.03
0.54
-1.72
-3.81
-5.72
-7.40
-8.78
-9.82
-10.47
-10.59
-10.08
-8.92
-7.18
-5.00
-2.56
0.00
2.50
4.70
6.54
7.95
9.01
9.84
10.53
11.10
11.63
12.12
12.46
12.57
12.32
11.70
10.75
9.46
7.88
6.17
4.42
2.70
1.06
-0.51
-1.97
-3.25
-4.41
-5.49
-6.45
-7.25
-7.92
-8.49
-9.14
-9.96
-11.00
-12.39
-14.25
-16.50
-19.02
-21.53
-23.77
-25.48
-26.39
-26.26
-24.97
-22.59
-19.23
-15.13
-10.53
-5.71
-0.97
3.43
7.34
10.65
13.32
15.33
16.71
17.49
17.86
17.78
17.38
16.72
15.97
15.27
14.67
14.22
13.92
13.88
13.96
14.06
14.02
13.75
13.19
12.27
10.97
9.26
7.31
5.20
3.09
1.04
-0.80
-2.41
-3.64
-4.39
-4.71
-4.50
-3.82
-2.68
-1.28
0.19
1.60
2.85
3.95
4.76
5.30
5.64
5.79
5.67
5.15
4.16
2.78
1.13
-0.74
-2.72
-4.73
-6.66
-8.48
-10.22
-11.81
-13.03
-13.50
-12.88
-10.85
-7.49
-3.12
1.62
5.94
8.99
10.15
9.25
6.54
2.79
-1.02
-4.02
-5.59
-5.92
-5.95
-6.85
-9.50
-13.94
-19.26
-23.99
-26.44
-25.12
-19.13
-8.45
5.80
21.58
36.15
46.93
52.17
51.57
46.12
37.58
27.63
17.20
6.61
-4.15
-14.67
-24.03
-31.16
-35.30
-36.43
-35.14
-32.32
-28.80
-24.92
-20.68
-15.82
-10.20
-3.96
2.41
8.38
13.49
17.47
19.85
19.85
16.93
11.11
3.77
-2.64
-5.41
-2.91
4.69
15.29
25.83
33.68
37.16
35.80
30.04
21.08
10.73
1.44
-4.48
-5.63
-2.37
3.10
7.74
9.11
6.27
-0.27
-9.28
-19.69
-30.78
-41.70
-51.10
-56.96
-57.44
-51.94
-41.60
-29.02
-17.25
-8.85
-4.96
-5.32
-8.39
-12.09
-14.50
-14.47
-11.78
-7.21
-2.13
2.27
5.10
6.31
6.34
5.88
5.43
5.21
5.12
4.99
4.91
5.14
6.07
7.87
10.28
12.56
13.64
12.68
9.32
4.03
-1.94
-6.85
-9.11
-7.92
-3.67
2.21
7.73
11.03
11.20
8.37
3.73
-1.32
-5.72
-8.93
-10.85
-11.37
-10.26
-7.33
-2.75
2.82
8.41
13.01
15.89
16.72
15.64
13.16
10.02
6.82
4.07
2.20
1.52
2.09
3.46
4.73
4.82
3.05
-0.59
-5.21
-9.48
-12.13
-12.46
-10.75
-7.83
-4.81
-2.36
-0.48
1.05
2.48
3.95
5.78
8.60
13.15
19.71
27.69
35.67
41.85
44.65
43.46
39.00
32.96
27.52
24.40
24.31
26.73
30.20
33.02
33.82
31.94
27.53
21.48
14.76
8.16
1.96
-4.23
-11.62
-22.07
-37.44
-58.15
-82.32
-105.79
-123.49
-131.24
-127.41
-113.08
-91.08
-64.61
-36.42
-9.03
14.68
31.51
38.94
36.53
26.90
14.98
5.81
2.43
4.76
10.28
15.83
19.13
19.47
17.70
15.25
13.32
12.25
11.80
11.41
10.56
9.00
6.57
3.35
-0.53
-4.69
-8.65
-11.62
-12.72
-11.47
-8.18
-4.05
-0.61
0.90
0.20
-1.82
-3.77
-4.49
-3.58
-1.59
0.45
1.67
1.73
0.94
0.06
-0.16
0.69
2.28
3.84
4.26
2.77
-0.54
-4.88
-8.99
-11.84
-13.07
-12.96
-11.82
-9.98
-7.54
-4.73
-2.17
-0.65
-0.86
-2.76
-5.50
-7.64
-7.93
-5.87
-1.97
2.63
6.84
9.85
11.42
11.51
10.26
7.98
5.18
2.78
1.73
2.85
6.15
10.88
15.63
18.91
19.88
18.41
15.17
11.07
7.07
3.67
1.13
-0.64
-1.97
-3.20
-4.62
-6.09
-7.24
-7.42
-6.21
-3.65
-0.47
2.15
3.15
2.02
-0.74
-4.06
-6.79
-8.16
-8.23
-7.53
-6.74
-6.22
-6.05
-5.94
-5.69
-5.32
-4.97
-4.84
-4.85
-4.63
-3.54
-1.27
2.02
5.45
7.83
8.27
6.65
3.94
1.73
1.53
3.92
8.13
12.30
14.32
13.02
8.64
2.68
-2.85
-6.42
-7.63
-7.17
-6.19
-5.82
-6.43
-7.85
-9.52
-10.88
-11.61
-11.47
-10.20
-7.59
-3.83
0.28
3.37
4.18
2.12
-2.09
-6.42
-8.46
-6.43
-0.18
8.63
17.22
22.86
23.98
20.70
14.59
7.96
2.85
0.43
0.68
2.67
4.96
6.39
6.36
4.89
2.50
-0.18
-2.57
-4.41
-5.74
-6.76
-7.64
-8.26
-8.44
-8.03
-7.00
-5.69
-4.66
-4.34
-4.82
-5.71
-6.26
-5.89
-4.42
-2.16
0.30
2.42
3.96
4.99
5.68
6.15
6.24
5.69
4.33
2.40
0.58
-0.30
0.19
1.82
3.85
5.33
5.50
4.10
1.41
-1.83
-4.82
-7.02
-8.25
-8.70
-8.54
-7.86
-6.76
-5.47
-4.28
-3.52
-3.31
-3.53
-3.77
-3.36
-1.80
1.05
4.58
7.71
9.49
9.55
8.36
6.94
6.20
6.52
7.53
8.22
7.72
5.72
2.76
-0.09
-1.94
-2.44
-1.92
-1.04
-0.31
-0.08
-0.42
-1.30
-2.77
-4.82
-7.44
-10.37
-13.21
-15.55
-17.15
-17.89
-17.91
-17.27
-16.03
-14.41
-12.72
-11.25
-10.04
-8.75
-7.01
-4.70
-2.18
-0.09
1.09
1.36
1.46
2.44
4.98
8.95
13.31
16.57
17.70
16.41
13.37
9.80
6.88
5.18
4.71
4.90
5.19
5.16
4.75
4.16
3.67
3.39
3.15
2.64
1.55
-0.14
-2.17
-4.14
-5.73
-6.77
-7.32
-7.71
-8.31
-9.50
-11.37
-13.43
-14.99
-15.26
-13.89
-11.12
-7.59
-4.03
-0.90
1.84
4.55
7.59
10.97
14.26
16.92
18.54
19.20
19.34
19.43
19.70
19.86
19.33
17.50
14.04
9.26
4.18
-0.05
-2.62
-3.57
-3.69
-4.07
-5.62
-8.68
-12.72
-16.63
-19.09
-19.30
-17.38
-14.28
-11.47
-10.22
-10.99
-13.16
-15.24
-15.62
-13.41
-9.00
-3.78
0.56
3.03
3.82
4.04
4.74
6.20
7.84
8.58
7.74
5.53
3.03
1.70
2.49
5.15
8.44
10.70
10.76
8.52
4.78
0.93
-1.63
-2.18
-0.88
1.33
3.06
3.04
0.76
-3.44
-8.56
-13.27
-16.53
-17.87
-17.18
-14.89
-11.59
-7.73
-3.77
-0.10
2.96
5.16
6.52
7.43
8.36
9.63
11.19
12.46
12.73
11.37
8.26
3.97
-0.41
-3.76
-5.43
-5.43
-4.36
-2.93
-1.65
-0.84
-0.63
-0.90
-1.58
-2.54
-3.67
-5.03
-6.57
-8.05
-9.00
-8.96
-7.61
-5.22
-2.60
-0.97
-1.52
-4.56
-9.14
-13.17
-14.45
-11.67
-5.18
3.26
11.22
16.47
17.97
16.00
12.03
7.82
4.59
2.62
1.46
0.55
-0.43
-1.22
-1.57
-1.32
-0.90
-1.02
-2.49
-5.53
-9.53
-13.19
-15.27
-15.38
-14.12
-12.84
-12.76
-14.47
-17.69
-21.54
-25.05
-27.48
-28.56
-28.40
-27.30
-25.75
-24.28
-23.53
-24.01
-25.97
-29.13
-32.89
-36.41
-39.18
-41.14
-42.47
-43.59
-44.57
-45.23
-45.20
-44.04
-41.26
-36.47
-29.42
-20.17
-9.27
2.45
14.45
26.84
40.65
57.21
77.20
99.42
120.59
136.14
141.95
136.22
120.05
96.82
70.67
45.03
22.03
2.72
-12.51
-23.31
-29.39
-30.91
-28.80
-24.72
-20.56
-17.81
-17.09
-18.18
-20.29
-22.44
-23.86
-24.30
-23.92
-23.14
-22.29
-21.44
-20.16
-17.74
-13.23
-5.54
6.42
23.75
47.16
76.70
111.39
149.21
187.22
222.07
250.54
269.91
278.01
273.27
254.79
222.64
178.00
123.17
61.47
-3.27
-67.33
-127.54
-181.59
-228.07
-266.17
-295.68
-316.78
-329.66
-334.43
-331.36
-320.79
-303.25
-279.46
-250.35
-217.02
-180.79
-143.03
-104.87
-67.42
-31.28
3.48
37.18
70.44
104.00
138.31
173.23
207.87
240.51
268.78
289.92
301.19
300.39
286.42
259.44
220.83
173.16
119.89
64.95
12.00
-36.10
-77.40
-111.11
-137.51
-157.64
-172.93
-184.79
-194.10
-201.07
-205.36
-205.97
-201.75
-191.74
-175.41
-153.10
-125.99
-96.04
-65.69
-37.44
-13.53
4.54
16.15
21.71
22.44
20.13
16.77
14.29
14.14
17.14
23.43
32.40
43.06
54.13
64.38
72.76
78.61
81.55
81.67
79.26
74.75
68.67
61.57
53.99
46.43
39.38
33.24
28.39
25.09
23.44
23.35
24.65
27.00
30.01
33.26
36.30
38.70
39.94
39.58
37.25
32.86
26.63
19.19
11.37
4.14
-1.79
-6.10
-8.82
-10.35
-11.01
-10.95
-9.92
-7.41
-2.92
3.64
11.80
20.37
27.85
32.95
34.88
33.70
29.96
24.51
18.15
11.46
5.01
-0.74
-5.53
-9.57
-13.69
-19.04
-26.20
-34.52
-42.02
-46.15
-45.25
-39.51
-31.11
-23.11
-17.82
-15.80
-15.73
-15.64
-14.18
-11.41
-8.46
-6.56
-6.21
-6.89
-7.49
-6.90
-4.58
-0.61
4.40
9.56
14.05
17.27
19.03
19.72
20.13
21.00
22.61
24.28
24.64
22.26
16.48
8.01
-1.34
-9.45
-15.08
-18.21
-19.76
-20.80
-21.55
-21.18
-18.23
-11.75
-2.10
8.77
18.11
23.51
23.89
19.78
12.97
5.64
-0.40
-4.23
-5.88
-6.06
-5.80
-6.09
-7.51
-10.12
-13.59
-17.30
-20.39
-22.13
-21.93
-19.52
-15.07
-8.94
-1.87
5.20
11.39
16.06
19.02
20.64
21.63
22.57
23.65
24.44
24.22
22.30
18.52
13.19
7.09
1.08
-4.31
-8.76
-12.18
-14.56
-15.79
-15.82
-14.86
-13.24
-11.57
-10.46
-10.23
-10.86
-11.90
-12.59
-12.15
-9.99
-6.02
-0.82
4.53
8.77
10.85
10.36
7.79
4.38
1.52
0.26
0.95
3.11
5.86
8.20
9.32
9.03
7.55
5.51
3.72
2.78
2.95
4.01
5.32
6.17
6.21
5.34
3.73
1.33
-2.17
-7.04
-12.87
-18.20
-21.04
-19.57
-13.43
-4.08
5.81
13.39
16.82
15.94
12.03
6.98
2.53
-0.24
-0.96
0.33
3.20
7.13
11.54
15.66
18.74
20.00
19.01
15.92
11.63
7.68
5.55
6.01
8.36
10.74
10.91
7.46
0.65
-7.70
-15.01
-19.08
-18.96
-15.53
-10.80
-6.92
-5.46
-6.68
-9.63
-12.81
-14.79
-14.88
-13.17
-10.38
-7.22
-4.15
-1.38
1.00
2.78
3.66
3.49
2.55
1.25
0.13
-0.68
-1.42
-2.48
-4.08
-5.92
-7.45
-7.96
-7.10
-5.04
-2.36
0.20
2.19
3.52
4.52
5.53
6.78
8.13
9.16
9.30
8.15
5.73
2.37
-1.46
-5.27
-8.75
-11.76
-14.10
-15.51
-15.71
-14.53
-12.12
-9.05
-6.06
-3.75
-2.41
-1.73
-1.05
0.17
2.08
4.27
6.06
7.01
7.23
7.31
7.95
9.41
11.26
12.61
12.69
11.43
9.38
7.39
5.97
5.01
3.79
1.69
-1.48
-5.30
-8.90
-11.57
-12.88
-12.99
-12.32
-11.35
-10.41
-9.52
-8.53
-7.24
-5.50
-3.27
-0.72
1.82
4.02
5.67
6.68
7.11
7.08
6.63
5.87
4.85
3.59
2.11
0.57
-0.80
-1.64
-1.62
-0.58
1.49
4.36
7.62
10.77
13.26
14.60
14.42
12.49
8.82
3.72
-2.34
-8.68
-14.74
-20.20
-24.99
-29.09
-32.38
-34.53
-34.91
-32.98
-28.41
-21.37
-12.82
-4.16
3.21
8.33
10.99
11.70
11.22
10.22
9.00
7.49
5.49
3.15
0.97
-0.31
-0.02
2.04
5.40
9.13
12.17
13.69
13.49
11.75
9.07
6.15
3.46
1.30
-0.32
-1.49
-2.44
-3.31
-4.39
-5.81
-7.68
-9.85
-11.79
-12.78
-12.08
-9.57
-5.70
-1.50
2.00
4.24
5.39
6.24
7.64
9.96
12.68
14.85
15.44
14.06
11.23
7.98
5.41
3.85
2.88
1.45
-1.36
-5.76
-11.16
-16.40
-20.42
-22.74
-23.61
-23.54
-23.00
-22.14
-20.60
-17.94
-13.75
-8.05
-1.37
5.40
11.27
15.48
17.55
17.55
15.96
13.53
10.97
8.91
7.62
6.97
6.56
5.76
4.13
1.58
-1.55
-4.72
-7.54
-9.94
-12.13
-14.31
-16.45
-18.15
-18.91
-18.42
-16.64
-14.03
-11.08
-8.22
-5.65
-3.46
-1.50
0.53
2.90
5.96
9.66
13.56
16.98
19.28
20.05
19.41
17.75
15.49
12.96
10.25
7.31
4.21
1.26
-1.08
-2.45
-2.76
-2.36
-1.74
-1.41
-1.71
-2.60
-3.84
-5.01
-5.86
-6.32
-6.48
-6.37
-6.11
-5.78
-5.41
-5.22
-5.15
-5.05
-4.55
-3.23
-0.83
2.47
6.16
9.57
11.97
13.02
12.68
11.35
9.63
8.10
7.16
6.82
6.75
6.28
5.00
2.83
0.20
-2.16
-3.63
-3.93
-3.32
-2.36
-1.77
-1.89
-2.72
-3.98
-5.19
-6.00
-6.01
-5.03
-3.03
-0.18
3.05
6.08
8.33
9.55
9.81
9.58
9.27
9.14
8.95
8.04
5.76
1.89
-2.84
-7.11
-9.41
-9.03
-6.35
-2.68
0.57
2.61
3.63
4.44
5.65
7.34
8.72
8.93
7.55
4.92
1.87
-0.96
-3.41
-5.82
-8.53
-11.54
-14.28
-15.96
-15.91
-13.99
-10.82
-7.46
-5.07
-4.34
-5.17
-6.81
-8.21
-8.66
-8.05
-6.66
-4.92
-2.99
-0.69
2.15
5.35
8.31
10.22
10.66
9.86
8.66
7.90
8.01
8.70
9.00
7.93
5.04
0.75
-3.66
-6.52
-6.63
-3.67
1.40
6.58
9.66
8.99
4.32
-3.08
-10.83
-16.47
-18.25
-15.81
-10.03
-2.65
4.38
9.60
12.34
12.80
11.65
9.81
8.02
6.65
5.73
5.12
4.53
3.87
3.16
2.42
1.80
1.21
0.52
-0.34
-1.29
-2.22
-3.01
-3.68
-4.26
-4.82
-5.33
-5.70
-5.89
-5.77
-5.39
-4.79
-4.00
-3.00
-1.83
-0.61
0.38
0.89
0.97
0.88
1.20
2.34
4.25
6.38
7.89
8.11
6.98
5.19
3.75
3.51
4.68
6.58
8.10
8.39
7.23
5.12
2.97
1.38
0.34
-0.61
-2.08
-4.23
-6.57
-8.17
-8.30
-6.93
-4.83
-3.21
-3.10
-4.71
-7.36
-9.72
-10.61
-9.58
-7.10
-4.21
-1.84
-0.13
1.67
4.73
9.82
16.43
22.86
26.77
26.40
21.49
13.44
4.59
-2.76
-7.38
-9.31
-9.52
-9.17
-8.99
-9.09
-9.05
-8.38
-7.03
-5.40
-4.20
-4.03
-5.04
-6.83
-8.53
-9.24
-8.50
-6.56
-4.18
-2.28
-1.32
-1.09
-0.88
0.12
2.10
4.70
7.04
8.32
8.48
8.16
8.38
9.92
12.66
15.56
17.23
16.73
14.18
10.68
7.62
5.94
5.66
6.05
6.27
5.88
5.09
4.33
3.92
3.71
3.17
1.89
-0.20
-2.72
-5.07
-6.93
-8.39
-9.82
-11.66
-14.10
-16.91
-19.63
-21.59
-22.20
-21.15
-18.39
-14.32
-9.54
-4.83
-0.79
2.21
4.19
5.53
6.73
8.15
9.67
10.82
10.94
9.72
7.27
4.24
1.54
-0.19
-0.56
0.15
1.35
2.43
2.99
3.00
2.67
2.39
2.42
2.85
3.51
4.04
4.05
3.32
2.04
0.57
-0.60
-1.22
-1.47
-1.71
-2.54
-4.26
-6.74
-9.31
-11.07
-11.23
-9.67
-6.92
-3.91
-1.58
-0.25
0.24
0.55
1.25
2.57
4.22
5.47
5.67
4.36
1.70
-1.69
-4.91
-7.11
-7.69
-6.66
-4.52
-2.01
0.07
1.20
1.29
0.43
-1.14
-3.20
-5.50
-7.70
-9.36
-10.07
-9.71
-8.54
-7.15
-6.31
-6.52
-7.73
-9.38
-10.54
-10.42
-8.62
-5.32
-1.13
3.10
6.65
8.92
9.58
8.63
6.32
3.24
0.19
-2.04
-2.99
-2.65
-1.54
-0.41
0.17
0.15
-0.22
-0.61
-0.89
-1.10
-1.30
-1.28
-0.63
1.06
3.85
7.27
10.34
11.99
11.64
9.50
6.48
3.71
1.84
0.90
0.41
-0.21
-1.07
-1.96
-2.38
-2.15
-1.47
-0.82
-0.59
-0.66
-0.51
0.60
2.98
6.30
9.61
11.78
12.11
10.62
8.08
5.50
3.77
3.21
3.52
3.96
3.72
2.38
0.03
-2.69
-5.01
-6.27
-6.39
-5.70
-4.80
-4.27
-4.19
-4.45
-4.62
-4.55
-4.46
-4.94
-6.46
-8.88
-11.45
-13.04
-12.97
-11.24
-8.70
-6.49
-5.45
-5.56
-6.05
-5.87
-4.23
-1.17
2.58
5.87
7.69
7.56
5.71
2.87
0.11
-1.57
-1.63
-0.06
2.52
5.13
6.88
7.17
5.98
3.86
1.65
0.11
-0.30
0.41
1.83
3.41
4.55
4.72
3.47
0.54
-4.06
-9.79
-15.61
-20.31
-22.83
-22.79
-20.61
-17.32
-14.03
-11.33
-8.94
-5.94
-1.47
4.65
11.44
17.01
19.47
17.77
12.35
4.99
-1.90
-6.43
-7.95
-7.19
-5.62
-4.46
-4.04
-3.77
-2.65
-0.18
3.16
6.19
7.59
6.73
4.19
1.33
-0.42
-0.37
1.01
2.47
2.82
1.58
-0.81
-3.30
-5.07
-5.85
-6.02
-6.14
-6.42
-6.48
-5.65
-3.54
-0.41
2.77
4.85
5.07
3.58
1.30
-0.50
-0.93
0.10
2.01
3.74
4.45
3.83
2.30
0.74
-0.11
0.05
0.98
2.16
2.97
3.10
2.52
1.54
0.49
-0.44
-1.15
-1.68
-2.08
-2.33
-2.34
-1.92
-0.99
0.35
1.74
2.77
3.03
2.47
1.38
0.41
0.28
1.27
3.20
5.32
6.81
7.09
6.13
4.50
2.94
2.10
2.10
2.50
2.61
1.86
0.11
-2.12
-3.91
-4.33
-2.84
0.29
4.02
6.88
7.46
5.24
0.64
-4.99
-10.05
-13.36
-14.57
-14.05
-12.52
-10.63
-8.59
-6.47
-4.13
-1.60
0.98
3.43
5.64
7.45
8.58
8.75
7.88
6.24
4.56
3.66
4.08
5.76
7.96
9.62
9.97
8.85
6.75
4.54
2.99
2.45
2.67
3.00
2.72
1.40
-0.89
-3.73
-6.47
-8.48
-9.33
-8.97
-7.76
-6.43
-5.86
-6.61
-8.55
-10.74
-11.89
-10.93
-7.60
-2.68
2.47
6.44
8.54
9.03
8.70
8.25
7.82
7.05
5.58
3.53
1.55
0.62
1.39
3.78
6.81
9.02
9.31
7.47
4.43
1.65
0.25
0.48
1.54
2.18
1.59
-0.11
-1.98
-2.83
-2.04
-0.01
2.25
3.65
3.87
3.42
3.16
3.73
4.97
6.11
6.32
5.33
3.66
2.39
2.39
3.79
5.90
7.64
8.28
7.80
6.80
6.10
6.15
6.82
7.43
7.31
6.07
3.85
1.10
-1.79
-4.57
-7.18
-9.62
-11.82
-13.80
-15.67
-17.52
-19.33
-20.92
-21.80
-21.64
-20.45
-18.67
-17.10
-16.25
-16.02
-15.73
-14.47
-11.67
-7.50
-2.84
1.21
3.85
4.98
5.28
5.78
7.30
10.12
13.72
17.17
19.62
20.65
20.53
20.00
19.73
20.07
20.76
21.04
20.23
17.92
14.14
9.46
4.68
0.54
-2.33
-3.72
-3.96
-3.66
-3.62
-4.50
-6.55
-9.53
-12.91
-15.86
-17.45
-17.13
-14.92
-11.87
-9.90
-11.26
-17.35
-27.68
-39.45
-48.50
-51.07
-45.39
-32.91
-17.55
-4.16
3.54
4.43
0.04
-6.73
-13.23
-18.01
-21.16
-23.48
-25.44
-26.68
-26.09
-22.64
-16.08
-7.39
2.03
10.95
19.02
27.02
35.91
46.17
57.06
66.78
73.17
74.74
71.17
63.71
54.65
46.39
40.65
37.68
36.58
35.64
33.35
29.04
23.01
16.28
9.84
4.37
0.06
-3.14
-5.38
-6.66
-7.09
-6.84
-6.26
-5.91
-6.30
-7.71
-10.04
-12.99
-15.88
-17.98
-18.72
-17.92
-16.05
-13.99
-12.57
-12.03
-12.17
-12.29
-11.81
-10.66
-9.22
-8.12
-7.72
-7.85
-7.91
-7.42
-6.21
-4.60
-3.17
-2.24
-1.75
-1.07
0.41
2.94
6.12
9.08
10.87
10.86
9.32
7.02
5.05
4.12
4.37
5.30
6.27
6.73
6.33
5.22
3.64
1.91
0.24
-1.18
-2.14
-2.35
-1.58
0.13
2.44
4.86
6.85
8.15
8.65
8.46
7.77
6.92
6.29
6.30
7.35
9.46
12.51
15.96
19.15
21.66
23.45
24.81
26.26
28.13
30.36
32.63
34.47
35.54
35.91
35.89
35.88
36.08
36.22
35.37
32.51
26.98
18.85
9.00
-1.74
-13.01
-25.28
-39.33
-55.52
-72.80
-88.81
-100.81
-106.69
-106.21
-100.61
-91.86
-81.53
-70.31
-58.17
-45.15
-32.01
-19.88
-9.97
-2.76
2.20
5.81
9.01
12.32
15.70
18.79
21.41
23.29
24.30
24.23
22.90
20.37
17.07
13.76
11.07
9.38
8.48
7.76
6.68
4.84
2.32
-0.49
-2.97
-4.67
-5.33
-5.03
-4.23
-3.47
-3.33
-3.95
-5.08
-6.14
-6.69
-6.58
-6.27
-6.35
-7.20
-8.68
-10.04
-10.51
-9.69
-7.91
-5.86
-4.24
-3.30
-2.67
-1.80
-0.45
1.13
2.46
3.16
3.38
3.82
5.18
7.85
11.30
14.21
15.20
13.43
9.30
4.21
-0.06
-2.22
-2.16
-0.89
0.03
-0.48
-2.52
-5.17
-7.12
-7.39
-6.04
-4.05
-2.68
-2.95
-4.79
-7.26
-9.08
-9.06
-6.81
-2.90
1.47
5.18
7.52
8.48
8.56
8.39
8.26
8.09
7.51
6.12
4.05
1.84
0.34
0.25
1.62
3.84
5.86
6.68
5.85
3.61
0.71
-1.95
-3.75
-4.64
-4.94
-5.26
-6.00
-7.32
-8.99
-10.61
-11.91
-12.61
-12.73
-12.35
-11.57
-10.39
-8.91
-7.09
-5.05
-3.01
-1.10
0.65
2.49
4.66
7.43
10.71
14.13
17.15
19.23
20.17
20.09
19.34
18.32
17.44
16.89
16.75
16.89
16.84
16.15
14.26
10.86
6.09
0.41
-5.51
-11.08
-16.04
-20.51
-24.69
-28.84
-32.93
-36.79
-40.21
-43.07
-45.49
-47.61
-49.53
-51.12
-52.25
-52.87
-53.22
-53.66
-54.45
-55.29
-55.20
-52.94
-47.51
-38.78
-27.57
-15.26
-3.24
7.62
17.21
25.95
34.42
42.90
51.35
59.25
65.73
69.89
71.01
68.93
64.29
58.16
51.69
45.61
39.96
34.35
28.41
22.08
15.75
9.94
4.96
0.79
-2.77
-5.78
-8.18
-9.70
-10.28
-10.12
-9.63
-9.23
-9.12
-9.26
-9.33
-8.98
-7.85
-5.87
-3.14
-0.04
2.94
5.47
7.42
8.84
9.76
10.09
9.52
7.85
5.25
2.36
0.24
-0.34
0.73
2.61
4.03
3.84
1.59
-2.16
-6.30
-9.63
-11.42
-11.60
-10.78
-9.72
-9.05
-9.08
-9.71
-10.69
-11.51
-11.70
-10.71
-8.32
-4.72
-0.68
2.61
4.07
3.21
0.56
-2.51
-4.45
-4.15
-1.47
2.79
7.31
10.95
12.90
13.10
12.22
11.47
12.47
16.45
23.44
31.75
38.35
39.90
34.47
22.63
7.49
-6.65
-16.24
-19.95
-18.95
-15.74
-12.74
-11.02
-10.14
-9.19
-7.77
-6.43
-6.60
-9.41
-15.00
-22.10
-28.43
-31.71
-30.85
-26.33
-19.94
-13.81
-9.39
-6.91
-5.48
-3.73
-0.72
3.54
8.19
12.02
14.08
14.14
12.81
11.06
9.74
9.09
8.77
8.20
7.10
5.63
4.51
4.36
5.38
7.21
9.03
10.14
10.37
10.06
9.91
10.40
11.44
12.29
11.91
9.48
4.79
-1.60
-8.68
-15.25
-20.45
-23.91
-25.83
-26.58
-26.45
-25.44
-23.22
-19.53
-14.38
-8.36
-2.41
2.53
5.90
7.87
9.13
10.66
13.04
16.29
19.70
22.21
22.86
21.22
17.61
12.90
8.13
4.04
1.03
-0.81
-1.31
-0.28
2.41
6.50
11.21
15.30
17.38
16.57
12.65
6.36
-0.99
-7.94
-13.22
-16.13
-16.61
-15.13
-12.50
-9.55
-6.86
-4.68
-3.08
-1.97
-1.40
-1.39
-1.97
-2.88
-3.67
-3.80
-2.78
-0.57
2.61
6.13
9.41
11.95
13.55
14.24
14.35
14.31
14.36
14.61
14.67
14.02
12.24
9.13
4.93
0.12
-4.74
-9.20
-12.93
-15.73
-17.32
-17.40
-15.79
-12.66
-8.59
-4.64
-2.07
-1.78
-3.86
-7.44
-10.81
-12.17
-10.44
-5.65
0.86
7.15
11.37
12.55
10.90
7.54
4.07
1.98
2.22
4.83
9.02
13.29
16.04
16.20
13.56
8.87
3.40
-1.54
-5.17
-7.18
-7.82
-7.61
-7.17
-7.11
-7.87
-9.63
-12.00
-14.18
-15.23
-14.46
-11.76
-7.61
-2.88
1.68
5.40
7.85
8.85
8.35
6.74
4.73
3.29
3.15
4.59
7.04
9.45
10.59
9.83
7.35
3.91
0.56
-1.89
-3.03
-2.91
-1.72
0.28
2.65
4.70
5.53
4.40
1.18
-3.30
-7.56
-10.07
-10.00
-7.78
-4.76
-2.57
-2.30
-3.94
-6.52
-8.67
-9.29
-8.15
-5.96
-3.86
-2.85
-3.19
-4.46
-5.79
-6.34
-5.79
-4.32
-2.40
-0.52
1.04
2.25
3.17
3.98
4.74
5.51
6.34
7.19
8.09
8.96
9.80
10.68
11.70
12.80
13.62
13.61
12.15
8.99
4.38
-0.81
-5.53
-8.91
-10.67
-11.17
-10.98
-10.63
-10.22
-9.51
-8.20
-6.24
-4.06
-2.30
-1.36
-1.20
-1.27
-0.94
0.15
1.76
3.25
3.80
2.88
0.61
-2.30
-4.88
-6.29
-6.22
-4.97
-3.29
-1.89
-1.11
-0.79
-0.33
0.70
2.34
4.08
5.12
4.88
3.41
1.37
-0.30
-0.99
-0.62
0.31
1.07
1.13
0.40
-0.63
-1.38
-1.52
-1.23
-0.95
-1.01
-1.42
-1.81
-1.72
-0.82
0.69
2.30
3.50
4.03
4.15
4.21
4.57
5.30
6.19
6.90
7.23
7.13
6.70
6.04
5.10
3.82
2.13
0.14
-1.99
-3.99
-5.70
-7.13
-8.36
-9.47
-10.48
-11.33
-11.95
-12.35
-12.57
-12.54
-12.08
-10.92
-8.85
-5.97
-2.61
0.76
3.80
6.34
8.38
9.84
10.58
10.40
9.26
7.35
5.22
3.51
2.66
2.69
3.10
3.19
2.42
0.69
-1.46
-3.20
-3.79
-3.06
-1.54
-0.18
0.15
-0.79
-2.50
-4.07
-4.67
-4.09
-2.80
-1.60
-1.06
-1.17
-1.38
-1.00
0.34
2.45
4.64
6.20
6.67
6.13
5.16
4.33
4.03
4.20
4.50
4.48
3.90
2.82
1.72
1.12
1.40
2.55
4.06
5.15
5.21
4.08
2.21
0.42
-0.68
-0.94
-0.81
-1.00
-2.01
-3.80
-5.79
-7.34
-8.02
-7.99
-7.72
-7.67
-7.90
-8.12
-7.80
-6.65
-4.80
-2.72
-0.91
0.45
1.53
2.70
4.13
5.53
6.23
5.69
3.76
1.07
-1.29
-2.34
-1.68
0.25
2.40
3.69
3.61
2.33
0.55
-0.93
-1.63
-1.64
-1.39
-1.32
-1.59
-2.02
-2.32
-2.29
-2.03
-1.90
-2.16
-2.86
-3.67
-4.12
-3.91
-2.99
-1.51
0.24
1.98
3.68
5.36
6.98
8.37
9.16
9.01
7.82
5.82
3.53
1.74
1.03
1.55
2.95
4.45
5.21
4.72
3.00
0.55
-1.85
-3.72
-4.93
-5.64
-6.10
-6.39
-6.36
-5.92
-5.19
-4.61
-4.69
-5.65
-7.25
-8.81
-9.56
-9.00
-7.12
-4.34
-1.29
1.55
3.92
5.76
7.03
7.73
7.79
7.23
6.18
4.95
3.82
3.07
2.70
2.56
2.42
2.03
1.28
0.28
-0.66
-1.27
-1.41
-1.22
-0.93
-0.89
-1.25
-1.85
-2.47
-2.89
-3.12
-3.36
-3.75
-4.20
-4.49
-4.29
-3.44
-2.10
-0.62
0.72
1.93
3.25
5.04
7.41
10.06
12.37
13.54
13.12
11.16
8.14
4.73
1.55
-1.05
-3.01
-4.45
-5.68
-6.79
-7.77
-8.49
-8.73
-8.31
-7.28
-5.91
-4.69
-4.18
-4.58
-5.78
-7.18
-8.05
-7.79
-6.37
-4.29
-2.29
-1.12
-1.03
-1.78
-2.97
-4.06
-4.81
-5.07
-4.64
-3.31
-1.06
1.89
4.81
6.86
7.63
7.30
6.68
6.79
8.18
10.54
12.94
14.21
13.56
11.11
7.73
4.65
3.03
3.26
4.79
6.37
6.51
4.16
-0.68
-7.04
-13.35
-17.92
-19.81
-19.06
-16.50
-13.48
-11.10
-9.98
-10.16
-11.20
-12.38
-13.12
-13.10
-12.20
-10.61
-8.58
-6.48
-4.57
-3.05
-1.93
-1.26
-0.96
-0.86
-0.77
-0.50
0.07
1.04
2.45
4.48
7.26
11.00
15.78
21.37
27.38
33.35
38.88
43.64
47.30
49.59
50.11
48.61
44.91
39.08
31.51
22.69
13.21
3.85
-4.36
-10.42
-13.62
-14.13
-13.08
-12.16
-12.85
-15.60
-19.58
-23.13
-24.87
-24.17
-21.50
-17.97
-14.60
-11.93
-9.92
-8.30
-6.81
-5.52
-4.52
-3.93
-3.82
-4.17
-5.07
-6.46
-8.18
-9.77
-10.59
-9.96
-7.46
-3.10
2.72
9.11
14.93
18.98
20.40
18.87
14.90
9.70
4.74
1.41
0.41
1.55
3.89
6.19
7.38
7.07
5.50
3.35
1.46
0.37
0.16
0.52
0.88
0.80
0.14
-0.90
-1.97
-2.85
-3.59
-4.57
-6.18
-8.48
-11.19
-13.67
-15.32
-15.95
-15.78
-15.41
-15.38
-15.79
-16.24
-16.07
-14.77
-12.37
-9.47
-6.96
-5.53
-5.35
-5.90
-6.34
-5.91
-4.12
-1.06
2.82
6.80
10.28
12.89
14.74
16.15
17.35
18.37
18.74
17.73
14.80
10.16
4.75
0.02
-2.93
-3.87
-3.49
-3.03
-3.45
-4.90
-6.66
-7.83
-7.96
-7.36
-6.94
-7.45
-8.93
-10.54
-11.14
-9.98
-7.21
-3.85
-1.05
0.46
0.84
0.80
1.14
2.23
3.80
5.20
5.89
5.71
4.89
3.85
3.05
2.62
2.46
2.31
1.84
0.89
-0.43
-1.79
-2.73
-2.91
-2.27
-1.16
-0.21
-0.09
-1.16
-3.21
-5.65
-7.62
-8.50
-8.10
-6.80
-5.37
-4.55
-4.64
-5.32
-5.76
-5.02
-2.53
1.53
6.29
10.48
12.90
13.01
11.00
7.78
4.70
2.91
3.07
4.97
7.63
9.69
9.98
8.03
4.31
-0.03
-3.78
-6.24
-7.38
-7.83
-8.32
-9.12
-9.86
-9.86
-8.61
-6.30
-3.83
-2.20
-2.07
-3.32
-5.10
-6.38
-6.65
-5.97
-5.00
-4.24
-3.75
-3.12
-1.75
0.57
3.43
5.90
7.22
7.05
5.84
4.46
3.70
3.81
4.44
4.80
4.24
2.80
0.99
-0.42
-0.94
-0.89
-1.03
-2.05
-4.07
-6.38
-7.92
-8.00
-6.70
-4.85
-3.53
-3.32
-4.01
-4.81
-4.92
-4.04
-2.47
-0.81
0.59
1.75
3.10
4.98
7.41
9.85
11.48
11.63
10.14
7.60
5.07
3.71
4.04
5.68
7.48
8.06
6.65
3.41
-0.60
-4.19
-6.67
-8.36
-10.06
-12.50
-15.55
-18.19
-19.14
-17.58
-13.76
-8.97
-4.78
-2.44
-2.29
-3.81
-6.06
-8.13
-9.47
-9.82
-9.27
-7.97
-6.05
-3.66
-1.03
1.51
3.58
4.97
5.92
6.94
8.79
12.15
17.29
23.77
30.40
35.35
36.94
34.23
27.49
18.13
8.35
0.06
-5.60
-8.67
-9.87
-10.07
-9.59
-8.15
-5.36
-1.26
3.15
6.28
6.70
4.06
-0.77
-5.95
-9.55
-10.45
-8.69
-5.45
-2.25
-0.23
0.35
0.07
-0.12
0.51
2.08
4.00
5.17
4.62
2.01
-2.11
-6.37
-9.33
-10.10
-8.82
-6.43
-4.21
-3.09
-3.27
-4.38
-5.67
-6.59
-6.88
-6.56
-5.66
-4.21
-2.34
-0.38
1.03
1.24
-0.04
-2.22
-4.22
-4.72
-3.05
0.55
4.91
8.51
10.33
10.22
9.14
8.21
8.16
8.77
9.24
8.54
6.24
2.84
-0.56
-2.57
-2.50
-0.46
2.57
5.30
6.51
5.79
3.55
0.84
-1.09
-1.60
-0.74
0.62
1.36
0.75
-1.19
-3.72
-5.88
-7.03
-7.04
-6.24
-5.05
-3.74
-2.28
-0.58
1.34
3.08
4.32
4.74
4.40
3.66
2.94
2.74
3.18
4.20
5.41
6.39
6.61
5.83
4.08
1.74
-0.46
-1.86
-1.99
-0.97
0.61
1.76
1.74
0.23
-2.51
-5.77
-8.72
-10.71
-11.52
-11.31
-10.43
-9.22
-7.81
-6.11
-4.02
-1.57
1.10
3.61
5.54
6.77
7.31
7.47
7.62
8.03
8.76
9.69
10.54
10.96
10.67
9.45
7.40
4.82
2.31
0.44
-0.51
-0.66
-0.56
-0.93
-2.36
-5.03
-8.57
-12.13
-14.76
-15.88
-15.47
-14.04
-12.31
-10.89
-9.83
-8.77
-7.08
-4.18
-0.01
5.04
10.18
14.44
16.99
17.36
15.47
11.84
7.49
3.55
0.99
0.21
0.90
2.25
3.28
3.34
2.12
-0.05
-2.56
-4.73
-6.08
-6.42
-5.89
-4.93
-4.07
-3.78
-4.15
-5.04
-5.97
-6.55
-6.68
-6.47
-6.24
-6.26
-6.54
-6.77
-6.53
-5.39
-3.11
0.24
4.28
8.40
11.83
13.98
14.68
14.18
13.03
11.89
11.04
10.38
9.59
8.29
6.31
3.80
1.10
-1.40
-3.46
-5.04
-6.13
-6.80
-7.03
-6.80
-6.16
-5.22
-4.24
-3.55
-3.42
-3.97
-5.00
-6.16
-7.09
-7.48
-7.18
-6.17
-4.55
-2.56
-0.55
1.15
2.35
3.14
3.82
4.69
5.87
7.07
7.76
7.46
6.03
3.93
1.96
0.85
0.92
1.96
3.35
4.41
4.65
4.10
2.99
1.68
0.34
-0.97
-2.31
-3.62
-4.69
-5.23
-5.01
-4.16
-3.06
-2.39
-2.71
-4.23
-6.63
-9.10
-10.77
-11.06
-10.07
-8.37
-6.82
-5.92
-5.69
-5.61
-4.97
-3.37
-0.86
1.93
4.24
5.48
5.50
4.69
3.69
3.19
3.59
4.89
6.71
8.51
9.81
10.46
10.60
10.65
10.97
11.57
12.18
12.31
11.63
10.20
8.41
6.88
5.95
5.53
5.07
3.85
1.34
-2.42
-6.78
-10.89
-13.89
-15.43
-15.60
-14.66
-12.78
-9.94
-6.11
-1.55
2.94
6.22
7.28
5.81
2.44
-1.37
-4.12
-4.70
-2.95
0.51
4.64
8.36
10.86
11.64
10.52
7.62
3.62
-0.57
-4.02
-6.04
-6.63
-6.26
-5.75
-5.65
-6.10
-6.76
-7.16
-7.18
-6.94
-6.79
-7.04
-7.80
-8.94
-10.28
-11.62
-12.84
-13.83
-14.28
-13.95
-12.75
-11.01
-9.33
-8.34
-8.33
-9.11
-10.12
-10.72
-10.57
-9.63
-8.28
-7.10
-6.68
-7.54
-9.97
-13.87
-18.39
-22.06
-23.14
-20.51
-14.70
-7.93
-3.22
-2.92
-7.48
-14.88
-21.71
-24.62
-21.78
-13.57
-1.62
12.51
28.58
47.13
68.39
90.65
109.62
119.54
115.54
96.11
64.38
27.48
-6.10
-29.08
-37.86
-32.74
-16.99
4.50
26.61
44.56
54.52
54.08
42.69
21.94
-4.09
-29.02
-45.61
-47.55
-31.68
0.41
42.44
85.07
118.76
136.51
135.94
119.10
90.84
56.82
21.83
-10.99
-40.02
-64.75
-85.44
-102.47
-116.17
-126.52
-133.28
-136.36
-135.84
-131.74
-123.44
-109.82
-89.71
-62.96
-31.35
1.23
29.68
49.39
57.78
55.11
44.02
28.26
11.16
-5.10
-19.23
-30.23
-36.63
-36.47
-28.27
-12.08
9.75
33.00
52.85
65.70
70.16
67.22
59.35
49.32
39.19
30.24
23.20
18.48
16.38
16.74
18.87
21.60
23.54
23.61
21.36
17.12
11.83
6.60
2.30
-0.62
-2.29
-3.35
-4.57
-6.71
-10.14
-14.72
-19.85
-24.57
-27.98
-29.52
-29.25
-27.83
-26.22
-25.35
-25.76
-27.35
-29.58
-31.67
-32.86
-32.74
-31.09
-28.03
-23.72
-18.44
-12.49
-6.42
-0.81
3.67
6.62
8.00
8.13
7.75
7.59
8.18
9.53
11.19
12.47
12.73
11.78
10.04
8.25
7.16
7.07
7.67
8.22
8.01
6.77
4.78
2.75
1.28
0.61
0.42
0.13
-0.80
-2.49
-4.55
-6.38
-7.37
-7.28
-6.26
-4.75
-3.24
-2.07
-1.34
-0.92
-0.54
0.06
0.98
2.28
3.93
5.79
7.62
9.02
9.58
9.05
7.50
5.38
3.42
2.34
2.50
3.74
5.32
6.47
6.56
5.39
3.26
0.68
-1.66
-3.30
-3.93
-3.69
-2.93
-2.14
-1.82
-2.18
-3.20
-4.59
-5.95
-6.86
-7.13
-6.64
-5.42
-3.74
-1.87
-0.23
0.88
1.48
1.88
2.55
3.78
5.49
7.03
7.67
6.88
4.77
2.04
-0.33
-1.62
-1.65
-0.86
0.02
0.49
0.42
0.03
-0.38
-0.82
-1.51
-2.81
-4.81
-7.26
-9.56
-11.20
-11.83
-11.56
-10.76
-9.85
-9.22
-8.98
-9.12
-9.34
-9.31
-8.68
-7.28
-5.18
-2.73
-0.50
1.16
2.12
2.73
3.45
4.65
6.36
8.20
9.64
10.06
9.27
7.48
5.15
2.88
1.12
0.00
-0.56
-0.82
-1.13
-1.62
-2.32
-3.17
-4.00
-4.68
-5.13
-5.23
-4.89
-4.09
-2.92
-1.68
-0.70
-0.10
0.29
1.02
2.72
5.72
9.74
13.91
17.08
18.25
17.27
14.65
11.43
8.73
7.14
6.65
6.82
6.93
6.42
5.05
2.94
0.41
-2.14
-4.49
-6.55
-8.27
-9.62
-10.40
-10.46
-9.76
-8.57
-7.44
-6.90
-7.20
-8.15
-9.33
-10.24
-10.62
-10.56
-10.15
-9.35
-7.96
-5.69
-2.64
0.65
3.40
4.89
4.88
3.81
2.50
1.69
1.75
2.45
3.23
3.53
3.13
2.25
1.34
0.92
1.23
2.23
3.57
4.72
5.21
4.66
3.01
0.43
-2.72
-6.01
-9.03
-11.63
-13.71
-15.11
-15.65
-15.05
-13.11
-10.04
-6.32
-2.67
0.36
2.56
4.20
5.61
7.06
8.45
9.44
9.61
8.78
7.10
4.97
2.92
1.38
0.57
0.53
1.05
1.81
2.53
3.01
3.16
3.02
2.69
2.32
2.00
1.76
1.56
1.47
1.43
1.35
1.06
0.31
-1.14
-3.23
-5.67
-7.86
-9.07
-8.94
-7.58
-5.51
-3.45
-1.87
-0.78
0.14
1.23
2.47
3.48
3.72
3.01
1.64
0.36
-0.04
0.94
3.18
6.03
8.71
10.55
11.32
11.06
10.12
8.99
8.11
7.73
7.82
8.12
8.27
8.00
7.08
5.46
3.24
0.52
-2.42
-5.24
-7.48
-8.85
-9.29
-9.11
-8.91
-9.09
-9.75
-10.45
-10.52
-9.32
-6.80
-3.29
0.56
4.02
6.72
8.61
9.88
10.87
11.81
12.71
13.41
13.66
13.20
12.05
10.31
8.21
6.03
3.84
1.49
-1.14
-4.10
-7.19
-9.93
-11.92
-12.98
-13.13
-12.71
-12.10
-11.49
-10.93
-10.43
-9.94
-9.53
-9.17
-8.64
-7.65
-5.88
-3.21
0.13
3.57
6.64
9.00
10.61
11.69
12.34
12.54
12.30
11.57
10.48
9.47
8.94
9.07
9.77
10.62
11.14
11.12
10.53
9.62
8.65
7.72
6.68
5.26
3.21
0.62
-2.17
-4.60
-6.18
-6.75
-6.64
-6.49
-6.94
-8.29
-10.26
-12.12
-13.19
-13.16
-12.14
-10.76
-9.44
-8.24
-6.77
-4.50
-1.19
2.83
6.73
9.70
11.24
11.43
10.80
10.00
9.48
9.35
9.48
9.57
9.43
9.03
8.41
7.77
7.24
6.79
6.34
5.72
4.73
3.24
1.30
-0.83
-2.89
-4.60
-5.85
-6.63
-7.01
-7.12
-7.05
-6.77
-6.19
-5.15
-3.56
-1.52
0.77
2.99
4.78
6.02
6.73
6.95
6.76
6.15
5.04
3.54
1.85
0.31
-0.71
-0.96
-0.42
0.69
2.11
3.39
4.23
4.43
3.86
2.59
0.81
-1.14
-2.93
-4.23
-4.94
-5.10
-4.85
-4.48
-4.15
-4.05
-4.25
-4.84
-5.89
-7.30
-8.90
-10.24
-10.91
-10.55
-9.05
-6.53
-3.33
0.14
3.42
6.08
7.90
8.80
8.96
8.62
8.03
7.28
6.32
5.08
3.57
2.06
0.88
0.33
0.42
1.07
2.03
3.07
4.05
4.76
5.21
5.31
5.06
4.54
3.91
3.25
2.53
1.63
0.45
-0.98
-2.57
-4.15
-5.55
-6.73
-7.59
-7.93
-7.52
-6.28
-4.33
-2.12
-0.27
0.85
1.16
1.02
1.00
1.53
2.56
3.72
4.43
4.29
3.20
1.45
-0.47
-2.03
-2.88
-2.99
-2.53
-1.86
-1.29
-1.02
-0.94
-0.80
-0.39
0.30
1.00
1.33
0.88
-0.49
-2.52
-4.71
-6.57
-7.85
-8.58
-9.01
-9.25
-9.39
-9.26
-8.65
-7.44
-5.77
-4.04
-2.57
-1.62
-1.05
-0.53
0.40
1.88
3.70
5.31
6.13
5.90
4.77
3.27
1.96
1.22
1.05
1.08
0.99
0.60
-0.10
-0.88
-1.48
-1.76
-1.74
-1.69
-2.00
-2.94
-4.50
-6.37
-8.06
-9.08
-9.23
-8.67
-7.81
-7.19
-7.04
-7.32
-7.64
-7.51
-6.54
-4.66
-2.08
0.71
3.28
5.41
7.02
8.19
9.06
9.61
9.69
9.25
8.32
7.22
6.24
5.56
5.13
4.79
4.43
3.92
3.35
2.79
2.23
1.54
0.52
-1.01
-3.00
-5.31
-7.77
-10.18
-12.36
-14.09
-15.12
-15.29
-14.54
-13.13
-11.54
-10.15
-9.22
-8.68
-8.22
-7.46
-6.26
-4.67
-3.10
-1.88
-1.20
-0.92
-0.76
-0.47
0.14
0.96
1.75
2.31
2.58
2.77
3.06
3.46
3.72
3.51
2.66
1.31
-0.12
-1.26
-1.92
-2.50
-3.52
-5.41
-8.12
-11.00
-13.27
-14.36
-14.19
-13.12
-11.86
-10.89
-10.36
-10.11
-9.55
-8.02
-4.92
-0.06
6.22
12.98
19.13
23.70
26.18
26.80
26.10
24.61
22.56
19.88
16.41
12.33
8.02
4.06
0.84
-1.58
-3.46
-5.10
-6.76
-8.32
-9.44
-9.83
-9.27
-7.79
-5.74
-3.60
-1.79
-0.70
-0.34
-0.42
-0.51
-0.18
0.67
1.64
2.14
1.62
-0.15
-2.83
-5.74
-8.17
-9.52
-9.58
-8.44
-6.33
-3.68
-0.97
1.25
2.60
2.88
2.38
1.60
1.15
1.41
2.20
3.06
3.33
2.70
1.26
-0.38
-1.50
-1.65
-0.94
-0.06
0.21
-0.74
-2.89
-5.70
-8.29
-9.97
-10.41
-9.85
-8.81
-7.72
-6.82
-5.97
-4.85
-3.23
-1.22
0.85
2.56
3.67
4.27
4.67
5.25
6.20
7.36
8.28
8.45
7.67
6.14
4.48
3.31
2.93
3.17
3.34
2.76
1.10
-1.28
-3.53
-4.66
-4.14
-2.06
0.98
4.03
6.42
7.74
8.00
7.34
6.20
4.89
3.68
2.67
1.79
0.85
-0.24
-1.44
-2.59
-3.44
-3.94
-4.13
-4.10
-3.92
-3.48
-2.68
-1.58
-0.39
0.59
1.11
1.24
1.29
1.53
2.12
2.95
3.77
4.43
4.84
5.04
5.04
4.88
4.54
4.18
4.05
4.40
5.29
6.51
7.46
7.60
6.67
4.78
2.45
0.21
-1.61
-3.00
-4.13
-5.25
-6.38
-7.35
-7.86
-7.67
-6.86
-5.68
-4.45
-3.41
-2.56
-1.80
-0.92
0.17
1.39
2.57
3.56
4.35
5.09
5.89
6.81
7.72
8.40
8.71
8.57
8.07
7.35
6.46
5.30
3.71
1.56
-1.01
-3.64
-5.86
-7.36
-8.22
-8.81
-9.73
-11.43
-13.97
-16.96
-19.72
-21.57
-22.17
-21.69
-20.56
-19.16
-17.52
-15.38
-12.37
-8.47
-4.11
0.04
3.32
5.47
6.69
7.45
8.17
9.04
10.02
10.97
11.92
12.90
14.05
15.27
16.50
17.58
18.46
19.12
19.54
19.70
19.44
18.58
17.00
14.69
11.67
8.11
4.09
-0.30
-4.89
-9.48
-13.70
-17.09
-19.20
-19.67
-18.31
-15.20
-10.85
-5.87
-0.99
3.22
6.54
9.05
10.91
12.35
13.54
14.42
14.93
15.05
14.82
14.42
13.87
13.02
11.80
10.19
8.30
6.41
4.74
3.31
1.88
0.04
-2.53
-5.81
-9.58
-13.46
-17.14
-20.44
-23.31
-25.64
-27.28
-28.01
-27.63
-26.22
-24.02
-21.28
-18.30
-15.23
-12.09
-8.91
-5.79
-2.96
-0.81
0.31
0.30
-0.85
-2.85
-5.24
-7.58
-9.42
-10.45
-10.47
-9.39
-7.24
-4.32
-0.91
2.67
6.11
9.27
12.14
14.76
17.15
19.39
21.53
23.74
26.16
28.73
31.20
33.06
33.71
32.58
29.45
24.45
18.17
11.47
5.13
-0.21
-4.37
-7.43
-9.60
-10.95
-11.40
-10.81
-9.05
-6.37
-3.29
-0.45
1.67
3.04
4.07
5.28
7.03
9.26
11.45
12.90
12.98
11.54
8.90
5.77
2.91
0.73
-0.70
-1.73
-2.75
-4.11
-5.81
-7.57
-8.94
-9.56
-9.34
-8.42
-7.22
-6.09
-5.29
-4.90
-4.77
-4.72
-4.64
-4.54
-4.39
-4.15
-3.63
-2.46
-0.43
2.41
5.63
8.50
10.23
10.44
9.21
7.04
4.76
3.00
2.05
1.86
2.18
2.67
3.15
3.55
3.85
4.06
4.11
3.96
3.57
2.98
2.18
1.10
-0.28
-1.96
-3.79
-5.52
-6.93
-7.81
-8.19
-8.12
-7.72
-7.09
-6.28
-5.31
-4.24
-3.13
-2.02
-0.86
0.45
2.02
3.81
5.59
6.92
7.47
7.01
5.67
3.85
2.07
0.78
0.11
-0.07
-0.15
-0.38
-0.91
-1.64
-2.37
-2.94
-3.28
-3.47
-3.50
-3.42
-3.13
-2.57
-1.75
-0.90
-0.38
-0.48
-1.19
-2.21
-2.99
-3.01
-2.12
-0.57
1.21
2.73
3.81
4.59
5.27
6.10
6.97
7.67
7.98
7.92
7.73
7.73
8.11
8.71
9.26
9.34
8.70
7.26
5.25
2.98
0.75
-1.22
-2.98
-4.65
-6.48
-8.59
-10.90
-13.05
-14.48
-14.77
-13.71
-11.51
-8.62
-5.53
-2.50
0.41
3.18
5.77
7.87
9.24
9.71
9.34
8.41
7.18
5.67
3.59
0.57
-3.54
-8.40
-13.25
-17.13
-19.29
-19.50
-18.01
-15.48
-12.51
-9.68
-7.19
-5.05
-3.30
-1.89
-0.90
-0.38
-0.34
-0.64
-1.14
-1.66
-2.08
-2.46
-2.90
-3.49
-4.07
-4.25
-3.52
-1.51
1.67
5.35
8.58
10.48
10.64
9.42
7.65
6.28
5.88
6.46
7.54
8.40
8.71
8.39
7.66
6.78
5.87
4.80
3.40
1.63
-0.38
-2.25
-3.60
-4.30
-4.52
-4.69
-5.30
-6.57
-8.33
-10.14
-11.39
-11.74
-11.21
-10.31
-9.65
-9.69
-10.44
-11.46
-12.21
-12.14
-11.13
-9.40
-7.42
-5.64
-4.34
-3.49
-2.91
-2.34
-1.52
-0.36
1.17
2.85
4.42
5.60
6.27
6.61
6.92
7.63
8.93
10.87
13.18
15.45
17.32
18.61
19.25
19.25
18.58
17.07
14.70
11.52
7.72
3.64
-0.34
-3.90
-6.77
-8.70
-9.54
-9.26
-8.02
-6.22
-4.41
-3.13
-2.61
-2.77
-3.19
-3.35
-2.91
-1.86
-0.59
0.50
1.01
0.89
0.41
-0.04
-0.08
0.48
1.56
2.90
4.24
5.28
5.90
5.99
5.49
4.32
2.49
0.14
-2.55
-5.38
-8.13
-10.70
-13.01
-14.97
-16.48
-17.44
-17.64
-16.93
-15.29
-12.82
-9.79
-6.59
-3.60
-1.05
0.93
2.50
3.93
5.33
6.61
7.52
7.74
7.17
6.02
4.69
3.63
3.05
2.89
2.92
2.86
2.61
2.36
2.20
2.23
2.33
2.22
1.67
0.66
-0.60
-1.79
-2.55
-2.82
-2.78
-2.75
-3.05
-3.80
-4.89
-6.10
-7.24
-8.12
-8.68
-8.93
-8.85
-8.43
-7.68
-6.62
-5.32
-3.76
-1.95
0.06
2.13
4.06
5.65
6.71
7.21
7.27
7.01
6.48
5.65
4.46
3.03
1.51
0.14
-0.85
-1.31
-1.34
-1.16
-1.09
-1.40
-2.18
-3.45
-5.00
-6.59
-8.02
-9.20
-10.20
-11.11
-11.96
-12.59
-12.64
-11.79
-9.94
-7.32
-4.49
-2.02
-0.24
0.88
1.74
2.80
4.32
6.17
7.84
8.76
8.56
7.29
5.45
3.72
2.76
2.88
4.00
5.69
7.38
8.62
9.27
9.45
9.48
9.78
10.50
11.59
12.67
13.15
12.54
10.54
7.24
3.18
-0.90
-4.28
-6.62
-8.00
-8.72
-9.21
-9.65
-10.02
-10.16
-10.01
-9.61
-9.10
-8.49
-7.63
-6.22
-4.07
-1.35
1.46
3.66
4.80
4.81
4.18
3.60
3.71
4.67
6.21
7.64
8.31
7.87
6.39
4.33
2.28
0.71
-0.22
-0.68
-1.00
-1.34
-1.84
-2.49
-3.30
-4.30
-5.55
-6.96
-8.29
-9.16
-9.20
-8.38
-6.96
-5.47
-4.34
-3.72
-3.38
-2.79
-1.56
0.41
2.75
4.92
6.42
7.04
6.98
6.69
6.57
6.78
7.17
7.42
7.27
6.65
5.66
4.62
3.71
3.00
2.32
1.49
0.47
-0.74
-1.95
-3.01
-3.67
-3.88
-3.57
-2.97
-2.31
-1.85
-1.87
-2.42
-3.42
-4.55
-5.60
-6.28
-6.52
-6.23
-5.37
-3.99
-2.20
-0.27
1.45
2.60
2.98
2.54
1.48
0.12
-1.19
-2.08
-2.32
-1.92
-0.89
0.52
2.01
3.30
4.21
4.61
4.52
3.97
2.94
1.46
-0.36
-2.28
-4.00
-5.22
-5.85
-6.05
-6.12
-6.43
-6.91
-7.25
-6.85
-5.27
-2.49
1.02
4.51
7.23
8.77
9.31
9.25
9.08
9.08
9.17
9.11
8.76
8.06
7.18
6.43
6.00
5.92
5.97
5.83
5.25
4.19
2.85
1.60
0.73
0.25
-0.09
-0.66
-1.74
-3.33
-5.13
-6.73
-7.83
-8.50
-9.09
-9.83
-10.75
-11.55
-11.79
-11.13
-9.45
-6.96
-3.96
-0.76
2.49
5.58
8.29
10.27
11.22
11.11
10.07
8.55
6.99
5.75
5.02
4.78
4.92
5.16
5.37
5.39
5.18
4.79
4.24
3.49
2.52
1.26
-0.34
-2.16
-4.04
-5.76
-7.10
-7.98
-8.49
-8.67
-8.62
-8.31
-7.63
-6.50
-4.87
-2.84
-0.64
1.56
3.65
5.68
7.63
9.33
10.45
10.63
9.65
7.63
5.04
2.59
0.87
0.07
-0.08
-0.30
-1.19
-3.14
-6.05
-9.39
-12.51
-14.83
-15.98
-15.89
-14.72
-12.76
-10.34
-7.73
-5.21
-3.05
-1.56
-0.97
-1.38
-2.65
-4.51
-6.55
-8.39
-9.78
-10.66
-11.01
-10.83
-10.02
-8.42
-5.88
-2.40
1.84
6.45
10.94
14.92
18.17
20.75
23.08
25.53
28.31
31.15
33.29
33.87
32.23
28.32
22.71
16.29
10.01
4.50
0.03
-3.34
-5.66
-6.97
-7.39
-7.16
-6.75
-6.61
-6.97
-7.73
-8.34
-8.17
-6.78
-4.25
-1.08
1.98
4.32
5.77
6.60
7.38
8.59
10.29
12.13
13.47
13.75
12.79
10.82
8.39
6.17
4.56
3.61
3.10
2.66
2.04
1.24
0.43
-0.17
-0.40
-0.34
-0.27
-0.40
-0.89
-1.71
-2.61
-3.35
-3.86
-4.21
-4.62
-5.30
-6.16
-6.97
-7.40
-7.26
-6.54
-5.50
-4.44
-3.55
-2.86
-2.26
-1.79
-1.54
-1.74
-2.41
-3.30
-3.86
-3.53
-1.99
0.52
3.32
5.55
6.51
5.97
4.21
1.87
-0.46
-2.39
-3.83
-4.92
-5.80
-6.50
-6.92
-6.93
-6.52
-5.84
-5.20
-4.89
-4.96
-5.36
-5.73
-5.67
-4.97
-3.63
-1.95
-0.41
0.53
0.68
0.19
-0.42
-0.57
0.03
1.30
2.85
4.15
4.77
4.64
3.96
3.10
2.43
2.12
2.14
2.38
2.62
2.68
2.55
2.18
1.61
0.91
0.12
-0.61
-1.23
-1.64
-1.86
-2.03
-2.42
-3.30
-4.79
-6.73
-8.66
-10.10
-10.57
-9.92
-8.32
-6.24
-4.19
-2.47
-1.13
0.02
1.17
2.42
3.59
4.43
4.69
4.37
3.72
3.03
2.61
2.53
2.69
2.88
2.88
2.60
2.04
1.38
0.78
0.32
0.07
-0.02
-0.05
-0.09
-0.29
-0.79
-1.61
-2.76
-4.11
-5.41
-6.48
-7.15
-7.41
-7.31
-6.86
-5.96
-4.50
-2.47
-0.07
2.30
4.21
5.42
5.95
5.99
5.84
5.69
5.46
4.96
4.03
2.70
1.34
0.28
-0.26
-0.37
-0.39
-0.71
-1.61
-2.98
-4.35
-5.24
-5.31
-4.57
-3.32
-1.95
-0.80
-0.07
0.20
0.01
-0.69
-1.89
-3.60
-5.65
-7.77
-9.53
-10.40
-10.13
-8.85
-6.98
-5.19
-3.88
-3.06
-2.30
-1.01
1.17
4.06
6.93
8.94
9.51
8.70
7.09
5.51
4.50
4.12
4.03
3.68
2.77
1.29
-0.46
-1.97
-2.84
-2.96
-2.44
-1.53
-0.52
0.40
1.01
1.15
0.76
-0.10
-1.18
-2.28
-3.19
-3.96
-4.75
-5.72
-6.85
-7.87
-8.38
-8.08
-6.97
-5.40
-3.86
-2.63
-1.71
-0.81
0.44
2.16
4.17
6.08
7.47
8.15
8.28
8.17
8.04
7.93
7.63
6.81
5.27
3.06
0.52
-1.87
-3.71
-4.89
-5.46
-5.64
-5.65
-5.63
-5.63
-5.60
-5.43
-5.11
-4.69
-4.29
-4.08
-4.16
-4.51
-5.01
-5.45
-5.58
-5.38
-5.02
-4.76
-4.77
-4.89
-4.77
-4.04
-2.65
-0.78
1.07
2.43
3.11
3.23
3.20
3.46
4.26
5.52
6.98
8.29
9.14
9.30
8.66
7.23
5.17
2.82
0.59
-1.07
-1.85
-1.61
-0.47
1.15
2.70
3.67
3.60
2.37
0.12
-2.69
-5.46
-7.60
-8.81
-9.07
-8.64
-7.95
-7.33
-6.75
-5.97
-4.64
-2.57
0.15
3.02
5.44
6.89
7.13
6.34
4.97
3.56
2.63
2.45
2.95
3.78
4.52
4.80
4.42
3.49
2.36
1.35
0.64
0.14
-0.43
-1.28
-2.47
-3.87
-5.15
-6.03
-6.39
-6.35
-6.26
-6.45
-7.08
-8.09
-9.09
-9.63
-9.33
-8.06
-5.98
-3.42
-0.67
2.04
4.58
6.90
8.92
10.50
11.57
12.15
12.34
12.24
12.00
11.59
10.97
10.10
8.88
7.32
5.49
3.47
1.38
-0.65
-2.58
-4.31
-5.87
-7.20
-8.22
-8.72
-8.51
-7.50
-5.87
-4.00
-2.38
-1.42
-1.23
-1.59
-1.97
-1.93
-1.32
-0.25
0.87
1.76
2.30
2.54
2.69
2.82
2.85
2.58
1.99
1.13
0.22
-0.50
-0.92
-1.06
-1.01
-0.87
-0.69
-0.41
-0.08
0.25
0.47
0.40
-0.04
-0.88
-2.11
-3.53
-4.88
-6.00
-6.81
-7.41
-8.13
-9.13
-10.46
-11.82
-12.80
-13.00
-12.27
-10.78
-8.85
-6.95
-5.28
-3.81
-2.35
-0.71
1.19
3.20
5.04
6.42
7.11
7.18
6.92
6.72
7.03
8.05
9.66
11.54
13.29
14.49
14.93
14.53
13.42
11.80
9.92
8.03
6.19
4.46
2.80
1.23
-0.16
-1.11
-1.38
-0.88
0.22
1.56
2.73
3.42
3.61
3.44
3.29
3.57
4.64
6.72
9.84
13.71
17.73
21.04
22.73
22.26
19.65
15.53
10.87
6.59
3.20
0.59
-1.80
-4.63
-8.25
-12.51
-16.84
-20.33
-22.20
-22.01
-19.87
-16.42
-12.65
-9.40
-7.06
-5.58
-4.47
-3.36
-2.13
-0.93
0.04
0.86
1.96
3.86
6.76
10.41
13.99
16.56
17.53
16.86
14.97
12.56
10.36
8.83
8.21
8.43
9.32
10.63
12.07
13.29
13.88
13.48
11.90
9.32
6.24
3.26
0.68
-1.64
-4.28
-7.82
-12.33
-17.16
-21.20
-23.37
-23.32
-21.49
-18.82
-16.25
-14.28
-12.88
-11.68
-10.32
-8.76
-7.24
-6.09
-5.51
-5.39
-5.41
-5.20
-4.56
-3.57
-2.54
-1.76
-1.45
-1.57
-2.02
-2.52
-2.82
-2.84
-2.63
-2.38
-2.44
-3.12
-4.61
-6.92
-9.57
-11.87
-13.07
-12.64
-10.60
-7.49
-4.21
-1.69
-0.45
-0.48
-1.30
-2.10
-2.10
-0.87
1.54
4.53
7.29
8.99
9.19
7.91
5.77
3.65
2.35
2.32
3.46
5.28
7.12
8.34
8.50
7.56
5.68
3.20
0.62
-1.62
-3.17
-3.85
-3.66
-2.73
-1.24
0.50
2.33
4.17
6.15
8.45
11.11
13.85
16.03
16.87
15.69
12.29
7.12
1.10
-4.65
-9.14
-11.81
-12.45
-11.13
-8.31
-4.68
-1.14
1.43
2.66
2.65
2.01
1.55
1.77
2.67
3.78
4.41
4.09
2.87
1.08
-0.63
-1.80
-2.24
-2.08
-1.60
-1.02
-0.61
-0.35
-0.24
-0.15
-0.04
0.10
0.11
-0.07
-0.47
-1.17
-2.04
-2.96
-3.76
-4.32
-4.62
-4.69
-4.48
-3.91
-2.89
-1.36
0.60
2.60
4.21
5.05
4.97
4.26
3.45
3.04
3.38
4.41
5.72
6.88
7.52
7.48
6.96
6.24
5.66
5.51
5.81
6.33
6.73
6.59
5.64
3.93
1.79
-0.40
-2.23
-3.44
-4.02
-3.98
-3.51
-2.95
-2.72
-3.36
-5.28
-8.33
-11.83
-14.66
-15.63
-14.17
-10.52
-5.76
-1.36
1.57
2.71
2.50
1.89
1.73
2.31
3.42
4.52
5.15
5.15
4.68
3.99
3.30
2.71
2.14
1.44
0.62
-0.34
-1.34
-2.29
-3.12
-3.78
-4.25
-4.69
-5.26
-6.01
-6.90
-7.70
-8.22
-8.27
-7.91
-7.28
-6.59
-5.91
-5.26
-4.60
-3.88
-3.12
-2.31
-1.40
-0.32
0.89
2.18
3.38
4.34
5.15
5.94
6.88
8.03
9.23
10.07
10.21
9.38
7.68
5.52
3.44
1.91
1.09
0.74
0.32
-0.69
-2.48
-4.90
-7.34
-9.21
-10.10
-10.01
-9.25
-8.31
-7.40
-6.55
-5.70
-4.59
-3.30
-1.96
-0.84
-0.21
-0.12
-0.38
-0.70
-0.87
-0.71
-0.37
0.01
0.26
0.32
0.36
0.54
0.96
1.41
1.71
1.63
1.20
0.60
-0.01
-0.63
-1.44
-2.67
-4.35
-6.06
-7.23
-7.26
-5.99
-3.76
-1.31
0.60
1.50
1.29
0.28
-1.08
-2.39
-3.36
-3.82
-3.81
-3.39
-2.81
-2.28
-1.94
-1.80
-1.74
-1.44
-0.62
0.79
2.65
4.67
6.55
8.08
9.09
9.56
9.54
9.10
8.26
7.01
5.34
3.31
1.18
-0.75
-2.14
-2.83
-3.05
-3.31
-4.08
-5.59
-7.57
-9.26
-9.94
-9.13
-6.94
-4.07
-1.45
0.15
0.35
-0.63
-2.15
-3.53
-4.30
-4.43
-4.30
-4.46
-5.19
-6.42
-7.70
-8.45
-8.38
-7.39
-5.69
-3.46
-0.86
2.06
5.03
7.65
9.39
9.79
9.12
7.93
7.09
7.22
8.43
10.20
11.72
12.29
11.47
9.52
6.85
4.07
1.51
-0.69
-2.67
-4.56
-6.32
-7.93
-9.16
-9.97
-10.30
-10.09
-9.36
-8.03
-6.03
-3.34
-0.15
3.22
6.27
8.53
9.76
9.89
9.24
8.16
7.08
6.27
5.83
5.75
5.87
6.14
6.40
6.67
6.78
6.58
5.90
4.65
2.91
0.84
-1.26
-3.21
-4.76
-5.88
-6.60
-7.01
-7.23
-7.30
-7.19
-6.79
-6.14
-5.37
-4.81
-4.74
-5.27
-6.34
-7.51
-8.39
-8.63
-8.19
-7.28
-6.23
-5.25
-4.40
-3.58
-2.64
-1.49
-0.17
1.10
2.13
2.79
3.14
3.53
4.29
5.71
7.73
9.92
11.61
12.28
11.83
10.63
9.43
8.84
9.08
9.79
10.29
10.02
8.88
7.36
5.98
5.20
4.87
4.55
3.78
2.44
0.90
-0.19
-0.30
0.50
1.78
2.79
3.13
2.80
2.15
1.57
1.10
0.51
-0.65
-2.51
-4.84
-7.00
-8.32
-8.44
-7.51
-6.13
-4.92
-4.23
-3.90
-3.55
-2.77
-1.44
0.11
1.29
1.62
0.95
-0.31
-1.53
-2.19
-2.17
-1.74
-1.33
-1.26
-1.56
-2.00
-2.23
-2.05
-1.33
-0.22
1.14
2.68
4.27
5.71
6.62
6.67
5.71
3.95
1.87
0.11
-0.88
-0.99
-0.58
-0.25
-0.46
-1.29
-2.45
-3.36
-3.66
-3.24
-2.36
-1.54
-1.18
-1.40
-1.92
-2.23
-1.77
-0.24
2.37
5.69
9.15
11.99
13.53
13.34
11.38
8.10
4.25
0.74
-1.70
-2.73
-2.47
-1.38
-0.05
1.10
1.83
2.13
2.06
1.73
1.22
0.62
0.06
-0.28
-0.30
0.03
0.53
0.92
0.98
0.49
-0.60
-2.16
-3.94
-5.64
-6.91
-7.58
-7.67
-7.57
-7.78
-8.69
-10.29
-12.17
-13.66
-14.20
-13.61
-12.29
-10.96
-10.22
-10.20
-10.45
-10.22
-8.87
-6.28
-2.78
0.93
4.41
7.56
10.59
13.74
16.85
19.42
20.71
20.25
18.07
14.84
11.48
8.81
7.18
6.44
6.17
5.81
5.01
3.58
1.59
-0.70
-3.02
-4.97
-6.36
-7.08
-7.09
-6.35
-4.95
-3.03
-0.90
0.89
1.93
1.99
1.22
0.04
-1.01
-1.58
-1.67
-1.50
-1.34
-1.25
-1.06
-0.55
0.35
1.40
2.17
2.20
1.33
-0.15
-1.58
-2.37
-2.28
-1.53
-0.77
-0.55
-1.01
-1.81
-2.40
-2.41
-1.90
-1.36
-1.27
-1.92
-3.11
-4.30
-4.93
-4.81
-4.14
-3.27
-2.57
-2.10
-1.78
-1.43
-0.97
-0.52
-0.26
-0.30
-0.54
-0.78
-0.82
-0.56
-0.13
0.28
0.47
0.42
0.22
0.09
0.15
0.31
0.40
0.10
-0.75
-2.02
-3.39
-4.47
-4.99
-4.96
-4.55
-4.04
-3.69
-3.54
-3.44
-3.08
-2.24
-0.78
1.21
3.49
5.70
7.53
8.85
9.67
10.06
10.08
9.71
8.75
7.05
4.63
1.78
-0.97
-2.98
-3.80
-3.35
-1.93
-0.19
1.23
1.99
2.06
1.58
0.75
-0.37
-1.88
-3.91
-6.31
-8.79
-10.78
-11.96
-12.29
-11.96
-11.27
-10.41
-9.38
-7.96
-5.92
-3.14
0.22
3.91
7.49
10.51
12.68
13.83
13.95
13.30
12.15
10.79
9.43
8.19
7.03
5.96
5.00
4.15
3.52
3.20
3.26
3.66
4.17
4.40
3.97
2.73
0.82
-1.29
-3.09
-4.28
-4.92
-5.35
-5.88
-6.61
-7.37
-7.79
-7.61
-6.85
-5.68
-4.31
-2.85
-1.16
0.96
3.39
5.76
7.44
7.85
6.88
4.98
2.99
1.73
1.71
2.75
4.21
5.24
5.25
4.13
2.22
0.04
-2.08
-4.12
-6.32
-8.88
-11.91
-15.11
-17.98
-19.96
-20.58
-19.62
-17.32
-14.12
-10.59
-7.33
-4.72
-2.92
-1.87
-1.40
-1.20
-1.07
-0.81
-0.22
0.88
2.56
4.64
6.72
8.33
9.21
9.44
9.43
9.68
10.48
11.74
12.98
13.53
13.07
11.64
9.72
7.98
6.88
6.57
6.83
7.23
7.24
6.60
5.19
3.28
1.27
-0.39
-1.45
-1.87
-1.75
-1.42
-0.97
-0.59
-0.33
-0.22
-0.39
-0.95
-1.85
-2.91
-3.85
-4.28
-4.06
-3.27
-2.16
-1.08
-0.21
0.50
1.25
2.18
3.31
4.43
5.16
5.32
4.87
4.01
3.09
2.41
2.10
2.15
2.33
2.45
2.45
2.37
2.33
2.43
2.62
2.78
2.68
2.13
1.14
-0.11
-1.35
-2.34
-2.97
-3.33
-3.59
-3.96
-4.44
-4.88
-4.94
-4.39
-3.21
-1.58
0.09
1.48
2.50
3.35
4.27
5.48
6.85
8.11
8.88
8.94
8.41
7.60
6.91
6.51
6.34
6.14
5.66
4.77
3.55
2.23
1.17
0.53
0.35
0.48
0.65
0.58
0.14
-0.79
-2.10
-3.66
-5.26
-6.72
-7.87
-8.65
-9.09
-9.22
-9.16
-8.98
-8.76
-8.50
-8.12
-7.51
-6.52
-5.03
-2.94
-0.41
2.32
4.80
6.57
7.33
7.02
5.93
4.52
3.32
2.55
2.24
2.06
1.61
0.64
-0.84
-2.41
-3.64
-4.15
-3.96
-3.32
-2.73
-2.59
-3.01
-3.79
-4.46
-4.65
-4.19
-3.17
-1.90
-0.70
0.23
0.86
1.29
1.63
1.96
2.27
2.58
2.87
3.22
3.71
4.30
4.78
4.89
4.41
3.40
2.13
1.01
0.46
0.63
1.43
2.41
3.16
3.40
3.06
2.34
1.40
0.36
-0.78
-2.09
-3.57
-5.06
-6.26
-6.84
-6.64
-5.79
-4.64
-3.62
-3.06
-3.05
-3.47
-4.11
-4.67
-4.89
-4.58
-3.67
-2.36
-0.91
0.31
1.13
1.58
1.88
2.31
2.96
3.68
4.19
4.17
3.58
2.68
1.77
1.19
1.02
1.13
1.32
1.38
1.19
0.84
0.43
0.11
0.01
0.20
0.62
1.17
1.71
2.16
2.48
2.63
2.58
2.20
1.42
0.16
-1.50
-3.32
-5.02
-6.30
-7.03
-7.13
-6.61
-5.50
-3.96
-2.09
-0.19
1.48
2.75
3.51
3.86
4.03
4.20
4.49
4.92
5.42
5.81
5.90
5.46
4.32
2.56
0.48
-1.50
-2.95
-3.61
-3.53
-2.95
-2.23
-1.72
-1.53
-1.69
-2.09
-2.65
-3.21
-3.61
-3.68
-3.33
-2.55
-1.50
-0.45
0.30
0.47
-0.01
-1.00
-2.04
-2.54
-2.06
-0.40
2.19
5.17
7.99
10.31
12.01
13.18
13.87
13.95
13.26
11.72
9.48
6.86
4.12
1.27
-2.01
-6.06
-11.01
-16.53
-21.89
-26.34
-29.21
-30.11
-28.97
-25.98
-21.62
-16.67
-12.02
-8.40
-6.18
-5.02
-4.23
-3.13
-1.49
0.27
1.32
1.08
-0.35
-2.18
-3.29
-2.84
-0.69
2.62
6.17
9.04
10.87
11.83
12.36
12.80
13.26
13.38
12.80
11.26
8.75
5.74
2.86
0.65
-0.70
-1.35
-1.83
-2.67
-4.20
-6.41
-8.89
-11.15
-12.66
-13.15
-12.50
-10.87
-8.60
-6.09
-3.70
-1.72
-0.36
0.38
0.61
0.49
0.10
-0.46
-1.11
-1.71
-2.13
-2.35
-2.30
-2.04
-1.67
-1.21
-0.60
0.22
1.20
2.18
2.87
3.05
2.58
1.58
0.40
-0.50
-0.81
-0.40
0.56
1.76
2.91
3.78
4.34
4.73
5.03
5.30
5.51
5.50
5.10
4.29
3.09
1.73
0.51
-0.35
-0.65
-0.38
0.21
0.70
0.70
-0.01
-1.30
-2.76
-3.94
-4.46
-4.36
-4.00
-3.79
-3.90
-4.23
-4.27
-3.59
-2.06
0.04
2.13
3.64
4.39
4.57
4.53
4.70
5.26
6.05
6.75
6.98
6.58
5.66
4.48
3.24
2.05
0.78
-0.83
-2.95
-5.52
-8.18
-10.39
-11.60
-11.64
-10.70
-9.31
-8.09
-7.35
-7.14
-7.16
-7.02
-6.47
-5.51
-4.29
-2.95
-1.50
0.27
2.41
4.82
7.12
8.76
9.29
8.62
7.07
5.14
3.38
2.11
1.28
0.62
-0.17
-1.33
-2.72
-3.93
-4.54
-4.23
-2.97
-1.13
0.80
2.37
3.28
3.57
3.52
3.38
3.25
3.10
2.61
1.64
0.13
-1.60
-3.07
-3.77
-3.49
-2.41
-0.93
0.39
1.30
1.71
1.80
1.79
1.74
1.55
1.05
0.24
-0.68
-1.35
-1.51
-1.02
-0.14
0.76
1.27
1.23
0.81
0.36
0.24
0.55
1.05
1.31
0.89
-0.30
-1.98
-3.68
-4.90
-5.32
-5.01
-4.28
-3.59
-3.30
-3.40
-3.68
-3.84
-3.64
-2.96
-1.86
-0.44
1.19
2.98
4.92
6.78
8.33
9.18
9.08
8.10
6.64
5.27
4.50
4.65
5.51
6.68
7.54
7.59
6.66
4.94
2.96
1.17
-0.09
-0.82
-1.19
-1.39
-1.58
-1.69
-1.63
-1.42
-1.25
-1.41
-2.11
-3.41
-5.03
-6.65
-7.89
-8.55
-8.66
-8.33
-7.67
-6.62
-5.02
-2.65
0.39
3.78
6.90
9.15
10.21
10.19
9.55
8.88
8.66
8.83
8.97
8.44
6.80
4.00
0.51
-2.98
-5.80
-7.57
-8.37
-8.65
-8.86
-9.26
-9.73
-9.93
-9.61
-8.73
-7.51
-6.27
-5.23
-4.41
-3.65
-2.71
-1.56
-0.31
0.88
1.89
2.81
3.76
4.80
5.90
6.98
7.95
8.86
9.82
11.02
12.48
14.04
15.33
15.87
15.28
13.48
10.90
8.20
6.26
5.65
6.38
7.85
9.05
9.01
7.29
4.22
0.60
-2.61
-4.67
-5.38
-4.92
-3.66
-2.06
-0.54
0.54
0.85
0.38
-0.37
-0.41
1.43
5.86
12.49
19.74
25.40
27.43
24.97
18.64
10.36
2.55
-2.85
-4.91
-3.87
-0.75
2.99
5.98
7.20
6.06
2.63
-2.64
-8.95
-15.19
-20.30
-23.55
-24.59
-23.68
-21.47
-18.78
-16.44
-14.94
-14.31
-14.15
-13.91
-13.15
-11.62
-9.46
-6.90
-4.20
-1.50
1.02
3.21
4.81
5.61
5.48
4.54
3.17
1.81
0.91
0.66
0.96
1.57
2.24
2.60
2.52
1.97
1.15
0.45
0.13
0.28
0.65
0.95
0.88
0.35
-0.53
-1.62
-2.74
-3.93
-5.15
-6.43
-7.62
-8.53
-8.96
-8.83
-8.17
-6.93
-5.26
-3.21
-1.03
0.96
2.46
3.32
3.65
3.70
3.77
3.91
4.13
4.14
3.74
2.92
1.70
0.37
-0.97
-2.25
-3.44
-4.47
-5.29
-5.84
-6.07
-6.07
-5.85
-5.55
-5.20
-4.98
-4.93
-5.04
-5.14
-4.90
-4.09
-2.52
-0.48
1.51
2.76
2.88
1.91
0.53
-0.34
0.05
2.07
5.39
9.21
12.64
14.99
16.04
15.98
15.16
13.90
12.36
10.45
8.17
5.65
3.20
1.12
-0.44
-1.52
-2.50
-3.62
-5.11
-6.82
-8.40
-9.54
-10.14
-10.30
-10.24
-10.05
-9.60
-8.70
-7.17
-5.07
-2.77
-0.65
1.00
2.07
2.72
3.22
3.72
4.25
4.62
4.65
4.33
3.72
3.03
2.41
2.00
1.86
1.97
2.20
2.40
2.46
2.14
1.29
-0.19
-2.21
-4.52
-6.63
-8.07
-8.50
-7.81
-6.35
-4.56
-2.97
-1.98
-1.72
-1.98
-2.50
-2.96
-3.14
-3.05
-2.69
-2.14
-1.42
-0.55
0.56
1.86
3.34
5.03
6.77
8.47
9.92
11.00
11.65
11.89
11.77
11.37
10.68
9.58
8.02
6.05
3.97
2.23
1.18
1.01
1.49
2.15
2.37
1.74
0.20
-2.01
-4.35
-6.32
-7.63
-8.30
-8.50
-8.58
-8.62
-8.60
-8.31
-7.48
-6.11
-4.36
-2.59
-1.11
-0.10
0.54
1.08
1.86
3.02
4.40
5.69
6.52
6.68
6.16
5.20
4.19
3.52
3.39
3.67
4.08
4.25
3.87
2.96
1.76
0.63
-0.21
-0.74
-1.15
-1.62
-2.33
-3.33
-4.49
-5.73
-7.03
-8.40
-9.85
-11.29
-12.57
-13.58
-14.09
-13.84
-12.68
-10.68
-8.15
-5.67
-3.71
-2.60
-2.26
-2.22
-1.91
-1.05
0.21
1.40
1.94
1.59
0.55
-0.65
-1.38
-1.25
-0.29
1.07
2.32
2.97
2.84
2.08
1.07
0.36
0.34
1.23
2.85
4.78
6.50
7.55
7.75
7.20
6.28
5.33
4.44
3.54
2.36
0.76
-1.11
-2.76
-3.65
-3.39
-2.03
-0.10
1.79
3.12
3.74
3.80
3.65
3.47
3.22
2.67
1.65
0.24
-1.28
-2.62
-3.53
-3.94
-3.87
-3.38
-2.46
-1.12
0.57
2.35
3.83
4.81
5.13
4.95
4.55
4.21
3.98
3.73
3.21
2.21
0.74
-1.05
-2.85
-4.40
-5.53
-6.37
-7.09
-7.75
-8.22
-8.26
-7.64
-6.32
-4.44
-2.32
-0.24
1.68
3.39
4.84
5.88
6.23
5.70
4.36
2.53
0.80
-0.25
-0.37
0.41
1.74
3.19
4.38
5.10
5.41
5.50
5.63
5.93
6.37
6.75
6.81
6.33
5.34
4.07
2.80
1.76
0.90
0.02
-1.18
-2.88
-5.00
-7.26
-9.22
-10.47
-10.74
-10.01
-8.46
-6.47
-4.52
-2.90
-1.82
-1.10
-0.43
0.56
1.98
3.72
5.38
6.52
6.88
6.53
5.85
5.21
4.93
4.89
4.91
4.69
4.06
3.14
2.20
1.57
1.37
1.60
2.01
2.40
2.73
3.07
3.53
4.08
4.52
4.52
3.79
2.23
0.03
-2.44
-4.80
-6.71
-8.11
-8.99
-9.43
-9.50
-9.25
-8.60
-7.45
-5.71
-3.28
-0.37
2.71
5.42
7.27
7.92
7.41
6.15
4.73
3.74
3.46
3.82
4.45
5.00
5.22
5.11
4.73
4.16
3.43
2.44
1.14
-0.46
-2.20
-3.89
-5.33
-6.46
-7.17
-7.37
-7.00
-6.12
-4.91
-3.62
-2.46
-1.53
-0.73
0.06
0.91
1.72
2.29
2.50
2.43
2.32
2.47
2.99
3.66
4.13
4.02
3.25
2.04
0.88
0.20
0.24
0.82
1.58
2.13
2.31
2.29
2.33
2.64
3.12
3.47
3.32
2.52
1.32
0.13
-0.67
-1.01
-1.17
-1.59
-2.48
-3.80
-5.22
-6.40
-7.19
-7.69
-8.10
-8.43
-8.55
-8.07
-6.77
-4.64
-2.01
0.59
2.80
4.46
5.63
6.43
6.92
7.01
6.58
5.67
4.37
3.14
2.35
2.23
2.71
3.44
4.01
4.12
3.77
3.16
2.62
2.34
2.32
2.34
2.05
1.27
-0.12
-1.94
-3.91
-5.64
-6.85
-7.40
-7.33
-6.84
-6.18
-5.57
-5.03
-4.45
-3.66
-2.61
-1.43
-0.23
0.81
1.78
2.79
4.01
5.43
6.75
7.57
7.47
6.36
4.43
2.19
0.13
-1.36
-2.17
-2.48
-2.52
-2.52
-2.55
-2.51
-2.28
-1.77
-1.09
-0.54
-0.46
-1.10
-2.52
-4.51
-6.72
-8.72
-10.20
-11.03
-11.22
-10.87
-9.95
-8.37
-6.02
-2.90
0.73
4.34
7.34
9.31
10.22
10.43
10.39
10.45
10.56
10.37
9.45
7.70
5.35
3.01
1.22
0.29
0.15
0.36
0.48
0.20
-0.42
-1.14
-1.58
-1.53
-1.01
-0.23
0.50
0.93
1.03
0.90
0.69
0.51
0.32
-0.07
-0.86
-2.18
-3.91
-5.73
-7.19
-7.97
-8.00
-7.45
-6.67
-5.88
-5.16
-4.31
-3.14
-1.68
-0.32
0.37
-0.11
-1.84
-4.27
-6.49
-7.57
-7.00
-4.89
-1.92
1.07
3.25
4.28
4.25
3.58
2.80
2.34
2.40
2.90
3.56
3.82
3.12
1.09
-2.20
-6.16
-9.73
-11.85
-11.91
-9.99
-6.93
-3.74
-1.22
0.39
1.41
2.35
3.50
4.78
5.87
6.39
6.23
5.59
4.74
3.98
3.35
2.66
1.64
0.12
-1.80
-3.68
-4.90
-5.07
-4.07
-2.23
-0.16
1.49
2.39
2.53
2.28
2.04
2.06
2.42
2.91
3.24
3.06
2.18
0.61
-1.39
-3.42
-5.07
-6.09
-6.50
-6.41
-6.10
-5.70
-5.30
-4.86
-4.25
-3.41
-2.22
-0.73
0.94
2.53
3.72
4.20
3.84
2.81
1.41
0.15
-0.65
-0.79
-0.30
0.60
1.59
2.17
2.06
1.03
-0.89
-3.37
-5.88
-7.87
-8.89
-8.86
-8.10
-7.01
-5.99
-5.18
-4.34
-3.04
-0.99
1.76
4.65
6.80
7.52
6.59
4.31
1.50
-1.00
-2.70
-3.47
-3.40
-2.76
-1.61
0.02
1.90
3.70
4.96
5.27
4.64
3.48
2.43
2.05
2.63
3.92
5.31
6.08
5.78
4.40
2.44
0.64
-0.35
-0.20
0.86
2.26
3.23
3.19
1.98
-0.12
-2.65
-5.05
-6.97
-8.39
-9.35
-10.00
-10.40
-10.43
-9.90
-8.79
-7.25
-5.48
-3.74
-2.01
-0.15
1.94
4.20
6.40
8.08
8.80
8.54
7.53
6.34
5.57
5.54
6.21
7.28
8.26
8.74
8.59
7.74
6.37
4.64
2.67
0.58
-1.55
-3.56
-5.34
-6.73
-7.77
-8.44
-8.72
-8.65
-8.20
-7.43
-6.47
-5.48
-4.53
-3.71
-3.00
-2.41
-2.06
-1.98
-2.17
-2.42
-2.44
-1.89
-0.75
0.74
2.17
3.10
3.36
3.02
2.34
1.60
0.99
0.48
0.02
-0.48
-1.01
-1.45
-1.76
-1.90
-1.95
-2.10
-2.51
-3.28
-4.42
-5.77
-7.15
-8.47
-9.61
-10.62
-11.49
-12.15
-12.52
-12.55
-12.21
-11.40
-9.95
-7.53
-3.85
1.20
7.24
13.44
18.78
22.43
24.07
23.89
22.46
20.33
17.81
15.02
12.07
9.21
6.94
5.69
5.72
6.91
8.72
10.41
11.28
10.95
9.45
7.14
4.63
2.56
1.36
1.17
1.69
2.42
2.78
2.32
0.87
-1.41
-4.15
-6.90
-9.37
-11.45
-13.14
-14.42
-15.14
-14.93
-13.41
-10.41
-6.17
-1.36
3.20
6.73
8.96
10.09
10.60
10.95
11.19
11.16
10.48
9.00
6.99
5.03
3.78
3.65
4.58
6.12
7.70
8.87
9.41
9.37
8.82
7.77
6.08
3.70
0.71
-2.48
-5.23
-6.97
-7.29
-6.20
-4.17
-1.96
-0.29
0.26
-0.47
-2.16
-4.25
-6.09
-7.31
-7.84
-7.88
-7.71
-7.38
-6.80
-5.69
-3.88
-1.56
0.83
2.71
3.65
3.61
2.96
2.17
1.73
1.77
2.12
2.43
2.39
1.87
1.05
0.27
-0.16
-0.14
0.19
0.48
0.41
-0.18
-1.14
-2.11
-2.66
-2.57
-1.93
-1.09
-0.52
-0.61
-1.56
-3.22
-5.12
-6.72
-7.59
-7.54
-6.78
-5.68
-4.65
-3.81
-3.06
-2.02
-0.41
1.80
4.34
6.66
8.19
8.57
7.89
6.60
5.37
4.74
4.90
5.57
6.20
6.25
5.48
4.19
2.87
2.09
2.00
2.39
2.80
2.78
2.23
1.26
0.14
-0.93
-1.90
-2.88
-3.98
-5.28
-6.68
-7.93
-8.80
-8.94
-8.20
-6.57
-4.35
-2.06
-0.21
0.84
1.19
1.24
1.50
2.25
3.37
4.40
4.89
4.61
3.66
2.51
1.72
1.71
2.62
4.23
6.16
7.89
9.04
9.40
9.03
8.14
6.98
5.73
4.31
2.65
0.68
-1.54
-3.85
-5.96
-7.77
-9.21
-10.26
-11.05
-11.61
-11.91
-11.78
-11.06
-9.62
-7.57
-5.30
-3.31
-2.03
-1.60
-1.64
-1.51
-0.70
0.84
2.71
4.18
4.72
4.31
3.44
2.90
3.18
4.28
5.72
6.75
6.92
6.08
4.47
2.63
0.92
-0.52
-1.70
-2.67
-3.46
-3.98
-4.12
-3.88
-3.33
-2.67
-2.12
-1.78
-1.64
-1.62
-1.65
-1.51
-1.13
-0.46
0.34
1.01
1.33
1.19
0.72
0.25
0.12
0.45
1.15
1.84
2.16
1.99
1.37
0.64
0.13
0.02
0.31
0.82
1.29
1.54
1.54
1.41
1.27
1.18
1.12
0.98
0.66
0.05
-0.82
-1.84
-2.83
-3.73
-4.50
-5.20
-5.92
-6.65
-7.24
-7.35
-6.65
-5.06
-2.84
-0.56
1.26
2.34
2.78
3.01
3.46
4.20
4.98
5.31
4.74
3.30
1.42
-0.17
-0.85
-0.39
0.98
2.64
3.99
4.53
4.12
3.02
1.67
0.53
-0.25
-0.71
-1.17
-1.94
-3.22
-4.90
-6.68
-8.10
-8.76
-8.60
-7.76
-6.52
-5.19
-3.89
-2.59
-1.24
0.17
1.50
2.58
3.34
3.85
4.41
5.34
6.72
8.30
9.56
9.96
9.22
7.43
5.02
2.53
0.39
-1.25
-2.51
-3.59
-4.66
-5.76
-6.74
-7.39
-7.55
-7.19
-6.53
-5.80
-5.26
-4.95
-4.71
-4.31
-3.59
-2.60
-1.69
-1.25
-1.50
-2.36
-3.39
-4.07
-4.02
-3.19
-1.82
-0.24
1.33
2.90
4.61
6.41
8.10
9.29
9.49
8.51
6.53
4.04
1.75
0.12
-0.66
-0.81
-0.71
-0.72
-1.09
-1.80
-2.74
-3.65
-4.43
-4.99
-5.38
-5.66
-5.92
-6.22
-6.51
-6.78
-6.89
-6.71
-6.22
-5.38
-4.27
-3.01
-1.64
-0.21
1.12
2.28
3.12
3.56
3.57
3.18
2.55
1.78
1.02
0.34
-0.28
-0.76
-1.07
-1.13
-0.88
-0.30
0.47
1.21
1.59
1.40
0.64
-0.52
-1.63
-2.42
-2.79
-2.83
-2.86
-3.12
-3.64
-4.22
-4.59
-4.52
-4.08
-3.54
-3.26
-3.43
-4.06
-4.90
-5.53
-5.72
-5.42
-4.84
-4.26
-3.82
-3.47
-2.95
-2.03
-0.61
1.15
2.81
3.97
4.47
4.44
4.20
4.16
4.51
5.17
5.87
6.27
6.11
5.41
4.39
3.35
2.59
2.20
2.00
1.73
1.17
0.25
-0.81
-1.72
-2.26
-2.41
-2.39
-2.47
-2.75
-3.13
-3.40
-3.48
-3.61
-4.27
-5.70
-7.63
-9.18
-9.19
-7.01
-2.98
1.57
4.99
6.09
4.87
2.40
0.31
-0.05
1.61
4.48
7.12
8.29
7.42
5.02
2.16
-0.05
-0.95
-0.64
0.22
0.94
1.15
0.72
-0.37
-2.44
-5.87
-10.68
-16.09
-20.58
-22.31
-20.12
-14.23
-6.27
1.33
6.41
8.07
6.82
4.09
1.45
-0.19
-0.69
-0.44
0.10
0.68
1.53
2.93
4.96
7.31
9.21
9.95
9.22
7.27
4.79
2.69
1.56
1.50
2.07
2.56
2.44
1.54
0.15
-1.31
-2.39
-3.03
-3.43
-3.93
-4.82
-6.10
-7.45
-8.36
-8.45
-7.58
-6.00
-4.14
-2.43
-1.10
-0.09
0.93
2.32
4.17
6.27
8.14
9.35
9.68
9.20
8.25
7.26
6.50
6.03
5.69
5.25
4.58
3.70
2.68
1.65
0.63
-0.39
-1.38
-2.34
-3.13
-3.65
-3.85
-3.80
-3.72
-3.82
-4.19
-4.77
-5.36
-5.69
-5.57
-4.93
-3.83
-2.43
-1.02
0.22
1.14
1.67
1.90
1.94
1.89
1.92
2.08
2.37
2.77
3.22
3.61
3.91
4.10
4.16
4.17
4.10
3.96
3.68
3.24
2.65
1.97
1.28
0.65
0.20
-0.07
-0.19
-0.21
-0.23
-0.36
-0.68
-1.32
-2.41
-3.89
-5.69
-7.53
-8.97
-9.64
-9.38
-8.24
-6.58
-4.78
-3.02
-1.27
0.67
3.00
5.61
8.14
10.15
11.31
11.62
11.39
11.08
11.01
11.23
11.47
11.29
10.44
8.85
6.79
4.76
3.11
2.02
1.40
1.02
0.59
0.02
-0.72
-1.54
-2.18
-2.55
-2.66
-2.65
-2.77
-3.25
-4.10
-5.08
-5.85
-6.03
-5.52
-4.45
-3.09
-1.63
-0.18
1.33
2.91
4.36
5.43
5.85
5.62
5.05
4.61
4.64
5.25
6.24
7.08
7.38
6.94
5.85
4.53
3.40
2.71
2.49
2.53
2.44
1.93
0.92
-0.57
-2.27
-3.95
-5.46
-6.72
-7.66
-8.28
-8.50
-8.34
-7.82
-7.03
-6.01
-4.87
-3.70
-2.55
-1.48
-0.46
0.53
1.51
2.55
3.62
4.64
5.51
6.12
6.36
6.33
6.11
5.86
5.73
5.80
6.03
6.27
6.30
5.93
5.10
3.98
2.84
1.98
1.63
1.83
2.43
3.17
3.67
3.60
2.82
1.38
-0.50
-2.46
-4.18
-5.41
-6.01
-5.93
-5.21
-4.00
-2.56
-1.31
-0.68
-0.87
-1.76
-2.86
-3.63
-3.69
-3.03
-1.99
-1.02
-0.40
-0.17
-0.06
0.31
1.15
2.67
4.79
7.33
9.90
12.13
13.60
13.99
13.23
11.48
9.18
6.77
4.65
2.94
1.58
0.35
-0.93
-2.31
-3.75
-5.05
-6.11
-6.83
-7.26
-7.41
-7.33
-6.93
-6.20
-5.23
-4.17
-3.28
-2.62
-2.08
-1.38
-0.31
1.16
2.76
4.00
4.46
3.98
2.77
1.33
0.31
0.14
0.88
2.27
3.73
4.69
4.72
3.82
2.36
0.94
0.07
-0.09
0.23
0.55
0.46
-0.23
-1.32
-2.40
-3.15
-3.41
-3.44
-3.59
-4.18
-5.12
-6.16
-6.86
-6.89
-6.18
-4.89
-3.31
-1.66
-0.03
1.75
3.77
5.93
7.89
9.17
9.44
8.71
7.30
5.79
4.67
4.11
3.89
3.55
2.76
1.51
0.08
-1.14
-1.85
-2.06
-1.93
-1.72
-1.61
-1.66
-1.85
-2.09
-2.39
-2.72
-3.10
-3.46
-3.80
-4.12
-4.49
-4.93
-5.31
-5.51
-5.38
-4.90
-4.15
-3.21
-2.08
-0.70
1.03
3.10
5.33
7.35
8.85
9.58
9.47
8.66
7.33
5.66
3.81
2.02
0.45
-0.71
-1.49
-2.06
-2.71
-3.71
-5.12
-6.71
-8.02
-8.71
-8.61
-7.93
-7.05
-6.37
-6.06
-6.04
-5.98
-5.66
-4.99
-4.02
-2.87
-1.65
-0.48
0.57
1.41
2.02
2.41
2.69
3.02
3.46
3.89
4.04
3.68
2.79
1.58
0.49
-0.09
0.09
0.93
2.13
3.29
4.16
4.59
4.65
4.45
4.03
3.42
2.57
1.49
0.28
-0.87
-1.81
-2.37
-2.57
-2.63
-2.87
-3.58
-4.89
-6.65
-8.45
-9.84
-10.51
-10.40
-9.73
-8.66
-7.21
-5.22
-2.50
0.89
4.43
7.38
9.06
9.20
8.04
6.22
4.39
3.03
2.22
1.68
1.14
0.38
-0.60
-1.62
-2.48
-3.06
-3.34
-3.46
-3.66
-4.00
-4.51
-5.05
-5.37
-5.34
-4.92
-4.25
-3.57
-3.02
-2.62
-2.31
-1.98
-1.44
-0.62
0.43
1.54
2.58
3.41
4.10
4.70
5.24
5.69
5.87
5.64
4.88
3.70
2.25
0.80
-0.42
-1.21
-1.50
-1.30
-0.66
0.28
1.33
2.22
2.70
2.63
2.00
0.94
-0.27
-1.28
-1.81
-1.82
-1.51
-1.25
-1.32
-1.85
-2.68
-3.56
-4.24
-4.61
-4.79
-4.93
-5.24
-5.70
-6.21
-6.56
-6.51
-5.85
-4.57
-2.76
-0.79
0.81
1.56
1.27
0.12
-1.34
-2.44
-2.68
-1.88
-0.31
1.56
3.20
4.31
4.82
4.85
4.62
4.37
4.21
4.17
4.12
3.85
3.15
1.98
0.48
-1.04
-2.26
-2.89
-2.91
-2.62
-2.37
-2.57
-3.21
-4.04
-4.71
-4.91
-4.64
-4.12
-3.69
-3.50
-3.40
-3.02
-2.08
-0.62
1.01
2.23
2.65
2.26
1.36
0.43
-0.07
-0.02
0.40
0.88
1.09
0.90
0.47
-0.00
-0.25
-0.05
0.65
1.68
2.78
3.55
3.73
3.22
2.09
0.51
-1.26
-3.01
-4.60
-5.90
-6.91
-7.54
-7.71
-7.42
-6.79
-6.01
-5.29
-4.65
-3.94
-2.89
-1.30
0.87
3.38
5.74
7.45
8.22
8.17
7.64
7.08
6.76
6.81
7.10
7.41
7.44
7.04
6.17
5.03
3.85
2.80
2.04
1.39
0.67
-0.38
-1.80
-3.39
-4.73
-5.50
-5.59
-5.24
-4.96
-5.15
-6.00
-7.28
-8.54
-9.27
-9.18
-8.36
-7.16
-5.96
-4.95
-4.03
-2.93
-1.38
0.62
2.85
4.86
6.26
6.80
6.55
5.84
5.03
4.52
4.48
4.90
5.54
6.05
6.13
5.72
4.95
4.03
3.29
2.80
2.54
2.41
2.21
1.80
1.11
0.05
-1.40
-3.11
-4.87
-6.38
-7.35
-7.74
-7.64
-7.23
-6.71
-6.10
-5.31
-4.27
-3.01
-1.63
-0.35
0.69
1.43
1.93
2.37
2.82
3.29
3.74
4.13
4.46
4.82
5.30
5.88
6.45
6.71
6.37
5.30
3.68
1.90
0.44
-0.26
-0.16
0.58
1.55
2.38
2.89
3.00
2.73
2.11
1.17
-0.10
-1.57
-3.11
-4.57
-5.85
-6.94
-7.80
-8.36
-8.52
-8.33
-7.87
-7.19
-6.35
-5.28
-3.81
-1.79
0.76
3.64
6.47
8.83
10.44
11.13
10.97
10.13
8.85
7.39
5.91
4.56
3.41
2.48
1.78
1.30
1.03
0.80
0.42
-0.25
-1.22
-2.34
-3.33
-4.01
-4.19
-3.88
-3.28
-2.58
-2.00
-1.66
-1.57
-1.64
-1.75
-1.77
-1.71
-1.64
-1.70
-1.96
-2.31
-2.46
-2.06
-0.92
0.82
2.82
4.61
5.86
6.49
6.65
6.71
7.01
7.66
8.52
9.27
9.52
9.05
7.85
6.10
4.13
2.24
0.70
-0.47
-1.28
-1.86
-2.35
-2.83
-3.44
-4.24
-5.18
-6.16
-7.12
-7.99
-8.76
-9.41
-9.78
-9.70
-8.94
-7.46
-5.42
-3.21
-1.23
0.31
1.38
2.23
3.08
4.10
5.19
6.15
6.73
6.83
6.58
6.25
6.26
6.77
7.71
8.72
9.32
9.23
8.41
7.14
5.84
4.82
4.11
3.57
3.01
2.36
1.72
1.24
0.97
0.83
0.62
0.12
-0.74
-1.77
-2.82
-3.72
-4.41
-4.94
-5.32
-5.51
-5.39
-4.98
-4.24
-3.33
-2.31
-1.25
-0.11
1.12
2.34
3.33
3.84
3.73
3.12
2.39
1.89
1.86
2.36
3.16
3.85
4.12
3.74
2.76
1.52
0.41
-0.27
-0.42
-0.16
0.20
0.47
0.57
0.58
0.59
0.71
0.78
0.60
-0.07
-1.31
-2.98
-4.78
-6.29
-7.29
-7.69
-7.67
-7.48
-7.31
-7.22
-7.05
-6.55
-5.46
-3.66
-1.33
1.12
3.20
4.57
5.14
5.12
4.90
4.84
5.12
5.63
6.11
6.29
6.21
6.01
5.89
5.94
5.94
5.49
4.30
2.24
-0.44
-3.14
-5.30
-6.54
-6.87
-6.65
-6.29
-6.10
-6.20
-6.44
-6.48
-5.97
-4.74
-2.87
-0.77
1.02
2.17
2.55
2.39
2.22
2.45
3.20
4.34
5.32
5.74
5.41
4.48
3.37
2.54
2.19
2.22
2.38
2.28
1.81
1.04
0.26
-0.28
-0.47
-0.44
-0.36
-0.43
-0.80
-1.48
-2.40
-3.48
-4.69
-5.83
-6.87
-7.62
-8.01
-8.10
-7.91
-7.41
-6.54
-5.24
-3.52
-1.60
0.23
1.71
2.75
3.55
4.46
5.70
7.25
8.75
9.73
9.92
9.45
8.64
7.83
7.17
6.51
5.65
4.47
2.96
1.41
0.20
-0.45
-0.55
-0.30
-0.05
-0.05
-0.51
-1.42
-2.65
-3.90
-4.92
-5.62
-6.07
-6.36
-6.63
-6.87
-7.06
-7.15
-7.13
-7.05
-6.87
-6.56
-6.03
-5.15
-3.98
-2.70
-1.53
-0.59
0.12
0.77
1.37
1.77
1.71
0.92
-0.62
-2.68
-4.77
-6.34
-7.02
-6.64
-5.42
-3.73
-1.99
-0.54
0.48
1.11
1.51
1.84
2.16
2.35
2.29
1.87
1.18
0.32
-0.55
-1.38
-2.25
-3.26
-4.48
-5.78
-6.81
-7.15
-6.59
-5.20
-3.25
-1.20
0.61
2.04
3.14
4.05
4.78
5.20
5.02
4.02
2.20
-0.16
-2.47
-4.10
-4.53
-3.65
-1.78
0.47
2.42
3.61
4.02
3.89
3.54
3.23
2.93
2.46
1.67
0.53
-0.78
-2.00
-2.96
-3.67
-4.26
-4.78
-5.29
-5.75
-6.13
-6.35
-6.28
-5.82
-4.92
-3.70
-2.32
-1.15
-0.37
0.00
0.19
0.62
1.46
2.61
3.77
4.50
4.51
3.82
2.67
1.40
0.35
-0.31
-0.56
-0.47
-0.12
0.36
0.93
1.59
2.22
2.74
3.03
3.00
2.64
1.99
1.22
0.54
0.07
-0.26
-0.60
-1.16
-2.10
-3.46
-5.11
-6.82
-8.26
-9.17
-9.36
-8.75
-7.44
-5.63
-3.57
-1.49
0.42
2.10
3.56
4.67
5.34
5.34
4.53
2.98
1.01
-0.93
-2.37
-2.93
-2.55
-1.44
0.04
1.45
2.39
2.65
2.16
1.06
-0.32
-1.57
-2.45
-2.84
-2.91
-2.97
-3.29
-4.00
-4.94
-5.86
-6.53
-6.93
-7.18
-7.52
-8.03
-8.64
-9.00
-8.77
-7.81
-6.31
-4.65
-3.16
-2.01
-1.06
0.03
1.50
3.33
5.20
6.65
7.30
7.13
6.41
5.59
5.17
5.32
5.95
6.73
7.32
7.52
7.29
6.76
6.06
5.25
4.33
3.20
1.87
0.43
-0.93
-2.10
-3.08
-3.94
-4.76
-5.55
-6.19
-6.50
-6.36
-5.72
-4.66
-3.35
-2.00
-0.76
0.25
1.04
1.66
2.17
2.70
3.26
3.83
4.29
4.45
4.20
3.60
2.85
2.25
2.05
2.38
3.14
4.06
4.74
4.92
4.57
3.85
3.01
2.31
1.82
1.50
1.22
0.83
0.33
-0.21
-0.77
-1.26
-1.79
-2.43
-3.24
-4.15
-5.01
-5.59
-5.76
-5.52
-5.00
-4.55
-4.49
-4.95
-5.77
-6.45
-6.37
-5.13
-2.65
0.64
3.93
6.40
7.65
7.72
7.11
6.50
6.34
6.78
7.60
8.44
9.02
9.28
9.26
9.03
8.55
7.71
6.43
4.78
3.07
1.64
0.76
0.36
0.16
-0.19
-0.97
-2.15
-3.49
-4.66
-5.49
-5.96
-6.19
-6.26
-6.13
-5.78
-5.18
-4.39
-3.62
-3.03
-2.67
-2.31
-1.73
-0.74
0.46
1.43
1.76
1.22
-0.03
-1.45
-2.45
-2.68
-2.16
-1.37
-0.88
-1.14
-2.23
-3.82
-5.39
-6.49
-7.00
-7.13
-7.42
-8.33
-10.06
-12.45
-15.05
-17.41
-19.35
-21.05
-22.90
-25.34
-28.57
-32.32
-36.06
-39.00
-40.44
-40.13
-38.43
-36.19
-34.69
-35.03
-37.81
-42.88
-49.24
-55.60
-60.71
-63.96
-65.46
-65.92
-66.28
-67.34
-69.38
-72.08
-74.62
-76.07
-75.62
-73.11
-69.30
-65.38
-62.49
-60.67
-58.68
-54.21
-44.98
-29.53
-7.83
18.94
49.17
81.18
113.29
143.48
169.67
190.47
206.20
219.02
231.91
246.60
262.00
274.09
277.54
268.45
246.40
214.40
177.47
140.57
107.19
79.04
57.00
41.70
33.56
32.47
36.95
44.35
51.32
54.84
52.94
45.28
33.09
18.43
3.56
-9.99
-21.69
-31.94
-41.64
-51.64
-62.39
-73.75
-85.08
-95.44
-103.95
-109.90
-112.91
-112.82
-109.67
-103.63
-94.98
-84.20
-72.02
-59.38
-47.20
-36.33
-27.36
-20.52
-15.70
-12.49
-10.34
-8.76
-7.38
-5.97
-4.47
-2.93
-1.38
0.04
1.29
2.27
2.88
3.09
2.84
2.12
0.88
-0.81
-2.91
-5.28
-7.81
-10.38
-12.78
-14.88
-16.53
-17.66
-18.21
-18.24
-17.77
-16.90
-15.75
-14.38
-12.94
-11.50
-10.13
-8.91
-7.92
-7.19
-6.73
-6.61
-6.76
-7.21
-7.85
-8.56
-9.30
-9.93
-10.38
-10.55
-10.47
-10.14
-9.70
-9.22
-8.80
-8.57
-8.64
-9.06
-9.80
-10.77
-11.76
-12.57
-12.91
-12.44
-10.94
-8.18
-4.11
1.25
7.69
14.92
22.50
29.91
36.65
42.25
46.33
48.64
49.04
47.56
44.37
39.70
33.83
27.08
19.82
12.36
4.96
-2.17
-8.86
-14.94
-20.31
-24.93
-28.73
-31.68
-33.75
-34.96
-35.32
-34.92
-33.79
-32.03
-29.78
-27.18
-24.40
-21.63
-19.05
-16.78
-14.94
-13.56
-12.68
-12.24
-12.14
-12.23
-12.38
-12.43
-12.30
-11.93
-11.30
-10.45
-9.39
-8.21
-6.99
-5.82
-4.79
-3.94
-3.34
-2.96
-2.75
-2.66
-2.61
-2.56
-2.49
-2.39
-2.21
-1.99
-1.73
-1.45
-1.18
-0.90
-0.62
-0.32
0.01
0.45
1.01
1.73
2.60
3.59
4.61
5.59
6.40
6.87
6.94
6.50
5.56
4.21
2.55
0.72
-1.02
-2.50
-3.59
-4.13
-4.13
-3.61
-2.64
-1.43
-0.12
1.14
2.20
2.95
3.38
3.48
3.28
2.87
2.29
1.63
0.95
0.33
-0.21
-0.60
-0.87
-1.01
-1.02
-0.92
-0.74
-0.53
-0.32
-0.15
-0.01
0.05
0.03
-0.06
-0.20
-0.38
-0.57
-0.79
-1.03
-1.29
-1.55
-1.83
-2.08
-2.28
-2.42
-2.41
-2.24
-1.88
-1.31
-0.56
0.33
1.32
2.29
3.18
3.90
4.37
4.53
4.38
3.92
3.19
2.27
1.25
0.19
-0.81
-1.64
-2.31
-2.74
-2.94
-2.91
-2.67
-2.27
-1.81
-1.32
-0.87
-0.52
-0.30
-0.24
-0.35
-0.61
-0.98
-1.40
-1.83
-2.19
-2.41
-2.42
-2.21
-1.77
-1.11
-0.31
0.57
1.47
2.29
2.96
3.43
3.64
3.57
3.27
2.80
2.24
1.68
1.16
0.75
0.44
0.24
0.14
0.15
0.24
0.43
0.68
0.99
1.31
1.60
1.85
1.99
2.02
1.84
1.45
0.81
-0.07
-1.13
-2.26
-3.32
-4.17
-4.68
-4.79
-4.45
-3.71
-2.62
-1.27
0.20
1.66
2.95
3.93
4.53
4.69
4.41
3.75
2.82
1.73
0.61
-0.44
-1.32
-1.95
-2.34
-2.47
-2.39
-2.13
-1.78
-1.38
-0.99
-0.64
-0.33
-0.07
0.18
0.42
0.66
0.90
1.15
1.40
1.60
1.77
1.87
1.99
2.08
2.16
2.24
2.33
2.40
2.42
2.39
2.24
2.04
1.77
1.45
1.14
0.87
0.67
0.54
0.52
0.55
0.64
0.78
0.94
1.11
1.26
1.40
1.45
1.38
1.12
0.60
-0.23
-1.36
-2.76
-4.33
-5.88
-7.24
-8.20
-8.62
-8.38
-7.46
-5.95
-3.98
-1.84
0.29
2.18
3.65
4.60
5.02
5.00
4.59
3.97
3.21
2.46
1.77
1.17
0.70
0.33
0.07
-0.08
-0.15
-0.14
-0.04
0.12
0.27
0.38
0.38
0.25
-0.03
-0.46
-0.97
-1.47
-1.86
-2.08
-2.00
-1.63
-0.96
-0.04
1.02
2.10
3.12
3.97
4.56
4.88
4.92
4.69
4.30
3.75
3.11
2.44
1.77
1.12
0.50
-0.07
-0.63
-1.11
-1.57
-1.97
-2.35
-2.65
-2.89
-3.02
-3.04
-2.93
-2.66
-2.26
-1.73
-1.13
-0.49
0.13
0.67
1.07
1.27
1.27
1.05
0.67
0.16
-0.40
-0.94
-1.38
-1.68
-1.83
-1.82
-1.65
-1.36
-0.99
-0.59
-0.19
0.20
0.59
1.00
1.43
1.87
2.30
2.65
2.89
2.96
2.82
2.52
2.05
1.44
0.72
-0.06
-0.82
-1.46
-1.88
-2.08
-2.01
-1.74
-1.30
-0.77
-0.23
0.21
0.48
0.52
0.27
-0.24
-0.99
-1.84
-2.69
-3.41
-3.99
-4.36
-4.51
-4.45
-4.18
-3.77
-3.21
-2.53
-1.78
-1.01
-0.27
0.43
1.07
1.67
2.21
2.70
3.13
3.49
3.75
3.87
3.84
3.64
3.32
2.87
2.32
1.66
0.95
0.23
-0.43
-0.96
-1.31
-1.42
-1.31
-1.00
-0.59
-0.13
0.32
0.69
0.95
1.09
1.08
0.95
0.73
0.43
0.07
-0.30
-0.69
-1.04
-1.35
-1.59
-1.78
-1.85
-1.80
-1.63
-1.35
-1.00
-0.60
-0.24
0.04
0.18
0.18
0.01
-0.28
-0.61
-0.93
-1.14
-1.21
-1.08
-0.75
-0.23
0.42
1.12
1.82
2.40
2.83
3.03
3.03
2.80
2.39
1.83
1.17
0.48
-0.16
-0.68
-1.05
-1.23
-1.27
-1.18
-1.01
-0.80
-0.55
-0.32
-0.06
0.19
0.45
0.69
0.91
1.11
1.26
1.37
1.37
1.29
1.12
0.89
0.61
0.33
0.07
-0.14
-0.29
-0.40
-0.48
-0.54
-0.60
-0.67
-0.74
-0.84
-0.93
-0.97
-0.97
-0.94
-0.85
-0.73
-0.60
-0.50
-0.42
-0.35
-0.27
-0.20
-0.18
-0.27
-0.47
-0.79
-1.16
-1.53
-1.83
-2.00
-2.05
-1.95
-1.71
-1.35
-0.88
-0.29
0.36
1.06
1.73
2.35
2.89
3.33
3.64
3.84
3.92
3.86
3.64
3.27
2.76
2.12
1.41
0.69
0.03
-0.51
-0.88
-1.07
-1.06
-0.86
-0.54
-0.12
0.31
0.68
0.93
1.00
0.89
0.59
0.14
-0.43
-1.06
-1.66
-2.17
-2.54
-2.75
-2.77
-2.63
-2.37
-1.99
-1.55
-1.09
-0.62
-0.15
0.29
0.70
1.07
1.36
1.56
1.63
1.53
1.25
0.84
0.29
-0.31
-0.88
-1.35
-1.64
-1.73
-1.58
-1.21
-0.68
-0.07
0.57
1.17
1.65
1.99
2.15
2.15
1.99
1.69
1.26
0.76
0.22
-0.34
-0.86
-1.28
-1.56
-1.65
-1.47
-1.05
-0.41
0.40
1.27
2.07
2.70
3.04
3.04
2.69
2.02
1.13
0.12
-0.85
-1.66
-2.21
-2.47
-2.39
-2.04
-1.53
-0.94
-0.38
0.09
0.42
0.61
0.66
0.67
0.70
0.78
0.99
1.33
1.79
2.35
2.91
3.39
3.72
3.86
3.74
3.38
2.81
2.05
1.25
0.47
-0.18
-0.63
-0.81
-0.75
-0.47
-0.05
0.38
0.78
1.04
1.15
1.07
0.85
0.52
0.19
-0.10
-0.33
-0.47
-0.56
-0.68
-0.91
-1.30
-1.85
-2.55
-3.32
-4.11
-4.79
-5.31
-5.58
-5.52
-5.13
-4.38
-3.35
-2.13
-0.87
0.32
1.32
2.03
2.44
2.51
2.28
1.84
1.29
0.74
0.30
0.08
0.12
0.46
1.03
1.76
2.55
3.27
3.81
4.04
3.95
3.57
2.91
2.07
1.18
0.36
-0.30
-0.69
-0.83
-0.69
-0.32
0.21
0.78
1.28
1.65
1.75
1.55
1.05
0.23
-0.83
-2.04
-3.27
-4.44
-5.38
-6.00
-6.21
-5.97
-5.27
-4.15
-2.70
-1.01
0.76
2.47
4.00
5.23
6.10
6.54
6.56
6.17
5.41
4.34
3.08
1.68
0.27
-1.05
-2.23
-3.21
-3.90
-4.33
-4.49
-4.39
-4.07
-3.56
-2.89
-2.13
-1.31
-0.47
0.43
1.32
2.20
3.04
3.76
4.34
4.75
4.99
5.06
5.02
4.84
4.55
4.14
3.66
3.11
2.53
1.93
1.30
0.62
-0.11
-0.86
-1.63
-2.36
-3.00
-3.54
-3.95
-4.22
-4.35
-4.35
-4.18
-3.86
-3.42
-2.88
-2.30
-1.72
-1.16
-0.67
-0.27
0.02
0.23
0.37
0.48
0.56
0.66
0.82
1.04
1.29
1.56
1.79
1.89
1.83
1.56
1.10
0.53
-0.12
-0.76
-1.35
-1.84
-2.22
-2.43
-2.45
-2.29
-1.95
-1.45
-0.83
-0.13
0.62
1.36
2.04
2.61
3.02
3.18
3.06
2.67
2.02
1.15
0.16
-0.88
-1.91
-2.80
-3.53
-4.05
-4.32
-4.32
-4.04
-3.47
-2.66
-1.69
-0.60
0.51
1.57
2.49
3.22
3.70
3.91
3.87
3.61
3.18
2.62
1.96
1.21
0.39
-0.45
-1.21
-1.77
-2.04
-1.98
-1.64
-1.13
-0.55
0.01
0.48
0.85
1.02
0.97
0.68
0.14
-0.53
-1.21
-1.78
-2.19
-2.38
-2.37
-2.14
-1.72
-1.15
-0.50
0.16
0.77
1.27
1.68
2.00
2.25
2.45
2.62
2.73
2.76
2.67
2.43
1.99
1.40
0.70
-0.03
-0.72
-1.36
-1.95
-2.49
-2.93
-3.25
-3.39
-3.36
-3.19
-2.98
-2.81
-2.68
-2.55
-2.34
-1.92
-1.22
-0.27
0.85
1.98
2.98
3.76
4.24
4.42
4.32
3.96
3.36
2.56
1.65
0.70
-0.18
-0.92
-1.46
-1.80
-1.96
-1.95
-1.82
-1.60
-1.30
-0.94
-0.56
-0.14
0.25
0.53
0.68
0.70
0.57
0.37
0.16
-0.05
-0.22
-0.36
-0.53
-0.72
-0.93
-1.09
-1.13
-0.99
-0.64
-0.15
0.42
1.00
1.55
1.98
2.30
2.51
2.59
2.53
2.38
2.11
1.79
1.45
1.06
0.64
0.20
-0.28
-0.84
-1.42
-2.03
-2.61
-3.11
-3.55
-3.94
-4.26
-4.48
-4.57
-4.46
-4.09
-3.46
-2.60
-1.62
-0.63
0.27
1.01
1.59
2.07
2.42
2.61
2.65
2.49
2.19
1.76
1.25
0.74
0.26
-0.14
-0.45
-0.63
-0.69
-0.62
-0.53
-0.47
-0.49
-0.57
-0.70
-0.82
-0.93
-1.01
-1.08
-1.15
-1.23
-1.28
-1.29
-1.21
-1.04
-0.82
-0.54
-0.22
0.14
0.57
1.08
1.65
2.27
2.88
3.43
3.85
4.10
4.11
3.87
3.36
2.61
1.72
0.83
0.05
-0.54
-0.91
-1.09
-1.10
-1.07
-1.06
-1.13
-1.31
-1.60
-1.94
-2.30
-2.60
-2.70
-2.58
-2.19
-1.59
-0.84
-0.09
0.55
0.95
1.08
0.99
0.73
0.37
-0.02
-0.37
-0.61
-0.72
-0.66
-0.42
-0.01
0.51
1.04
1.54
1.91
2.15
2.20
2.10
1.82
1.40
0.87
0.30
-0.19
-0.53
-0.65
-0.54
-0.22
0.27
0.82
1.33
1.69
1.86
1.79
1.51
1.04
0.44
-0.18
-0.74
-1.15
-1.45
-1.57
-1.55
-1.42
-1.25
-1.09
-0.99
-0.96
-0.97
-1.03
-1.09
-1.09
-1.01
-0.82
-0.50
-0.06
0.45
1.02
1.61
2.14
2.59
2.90
3.08
3.10
2.94
2.59
2.09
1.48
0.75
-0.06
-0.93
-1.75
-2.50
-3.13
-3.58
-3.77
-3.69
-3.32
-2.67
-1.79
-0.72
0.42
1.58
2.65
3.56
4.23
4.62
4.71
4.50
4.04
3.36
2.57
1.74
0.95
0.28
-0.18
-0.43
-0.46
-0.30
-0.02
0.28
0.47
0.47
0.21
-0.36
-1.20
-2.30
-3.52
-4.73
-5.80
-6.61
-7.02
-6.96
-6.44
-5.47
-4.15
-2.61
-0.99
0.56
1.89
2.85
3.43
3.53
3.22
2.56
1.65
0.64
-0.34
-1.14
-1.68
-1.88
-1.71
-1.19
-0.40
0.58
1.66
2.73
3.68
4.44
4.93
5.17
5.14
4.87
4.38
3.72
2.94
2.08
1.18
0.26
-0.62
-1.45
-2.19
-2.79
-3.22
-3.45
-3.44
-3.22
-2.81
-2.25
-1.59
-0.92
-0.32
0.15
0.48
0.64
0.65
0.49
0.23
-0.06
-0.37
-0.65
-0.91
-1.10
-1.21
-1.24
-1.15
-0.95
-0.61
-0.12
0.52
1.23
1.99
2.71
3.29
3.65
3.69
3.34
2.62
1.56
0.24
-1.20
-2.61
-3.81
-4.68
-5.13
-5.13
-4.67
-3.81
-2.68
-1.41
-0.11
1.09
2.10
2.85
3.30
3.45
3.35
3.01
2.46
1.76
0.98
0.24
-0.39
-0.83
-1.05
-1.07
-0.92
-0.67
-0.38
-0.14
0.08
0.18
0.21
0.17
0.14
0.19
0.36
0.72
1.24
1.93
2.64
3.30
3.77
3.95
3.79
3.28
2.48
1.45
0.34
-0.77
-1.76
-2.56
-3.14
-3.50
-3.66
-3.63
-3.49
-3.27
-2.98
-2.65
-2.26
-1.79
-1.23
-0.56
0.22
1.06
1.93
2.74
3.39
3.87
4.07
4.02
3.67
3.10
2.35
1.50
0.72
0.07
-0.36
-0.60
-0.64
-0.64
-0.63
-0.72
-0.96
-1.37
-1.94
-2.61
-3.34
-3.99
-4.50
-4.78
-4.79
-4.49
-3.90
-3.05
-2.00
-0.84
0.38
1.60
2.72
3.69
4.44
4.93
5.10
4.94
4.44
3.67
2.67
1.50
0.29
-0.88
-1.85
-2.62
-3.12
-3.35
-3.31
-3.06
-2.70
-2.24
-1.78
-1.32
-0.91
-0.55
-0.24
0.04
0.31
0.55
0.81
1.06
1.32
1.56
1.77
1.93
2.05
2.11
2.09
2.01
1.84
1.58
1.20
0.75
0.24
-0.32
-0.87
-1.34
-1.66
-1.82
-1.78
-1.53
-1.06
-0.41
0.34
1.12
1.87
2.52
2.94
3.12
3.02
2.66
2.06
1.28
0.38
-0.53
-1.33
-1.96
-2.33
-2.41
-2.21
-1.77
-1.15
-0.45
0.20
0.73
1.03
1.12
0.97
0.65
0.23
-0.22
-0.58
-0.81
-0.84
-0.70
-0.37
0.04
0.47
0.86
1.12
1.20
1.08
0.79
0.31
-0.27
-0.93
-1.60
-2.20
-2.70
-3.03
-3.17
-3.09
-2.81
-2.34
-1.74
-1.04
-0.27
0.46
1.11
1.60
1.93
2.06
2.00
1.81
1.49
1.15
0.82
0.58
0.46
0.52
0.78
1.23
1.86
2.59
3.39
4.17
4.84
5.34
5.60
5.59
5.30
4.76
3.96
2.96
1.84
0.67
-0.48
-1.57
-2.50
-3.20
-3.63
-3.77
-3.61
-3.17
-2.50
-1.66
-0.75
0.16
0.95
1.57
1.93
2.02
1.87
1.51
1.02
0.46
-0.07
-0.53
-0.86
-1.01
-0.98
-0.78
-0.48
-0.14
0.13
0.28
0.27
0.06
-0.31
-0.76
-1.27
-1.80
-2.30
-2.74
-3.10
-3.38
-3.60
-3.77
-3.90
-3.96
-3.91
-3.74
-3.41
-2.88
-2.12
-1.12
0.05
1.31
2.54
3.65
4.49
4.96
5.05
4.79
4.24
3.44
2.49
1.48
0.55
-0.22
-0.78
-1.07
-1.10
-0.93
-0.65
-0.33
-0.06
0.11
0.17
0.12
-0.04
-0.29
-0.58
-0.89
-1.22
-1.59
-2.04
-2.55
-3.09
-3.64
-4.12
-4.47
-4.58
-4.44
-4.01
-3.32
-2.38
-1.26
-0.01
1.25
2.41
3.37
4.03
4.34
4.31
3.96
3.35
2.58
1.72
0.90
0.21
-0.30
-0.57
-0.57
-0.36
0.02
0.50
0.97
1.32
1.48
1.38
1.00
0.40
-0.38
-1.25
-2.10
-2.81
-3.29
-3.44
-3.28
-2.80
-2.06
-1.16
-0.20
0.65
1.31
1.71
1.79
1.56
1.10
0.50
-0.16
-0.76
-1.23
-1.52
-1.60
-1.47
-1.20
-0.81
-0.32
0.18
0.65
1.07
1.43
1.74
2.01
2.23
2.41
2.55
2.63
2.68
2.68
2.65
2.58
2.44
2.22
1.92
1.53
1.10
0.63
0.13
-0.41
-0.97
-1.56
-2.14
-2.70
-3.18
-3.54
-3.76
-3.80
-3.64
-3.29
-2.76
-2.06
-1.25
-0.38
0.49
1.28
1.89
2.33
2.54
2.59
2.52
2.39
2.25
2.13
2.01
1.88
1.74
1.53
1.28
0.98
0.62
0.21
-0.22
-0.67
-1.11
-1.48
-1.81
-2.03
-2.14
-2.19
-2.15
-2.02
-1.86
-1.61
-1.30
-0.97
-0.60
-0.24
0.01
0.16
0.14
-0.06
-0.42
-0.90
-1.46
-1.98
-2.38
-2.59
-2.52
-2.14
-1.47
-0.56
0.49
1.57
2.59
3.42
3.95
4.18
4.06
3.60
2.88
2.00
1.08
0.26
-0.42
-0.94
-1.25
-1.40
-1.40
-1.29
-1.14
-0.99
-0.90
-0.91
-1.05
-1.27
-1.53
-1.82
-2.09
-2.31
-2.46
-2.48
-2.37
-2.08
-1.64
-1.09
-0.47
0.14
0.69
1.11
1.32
1.34
1.19
0.87
0.49
0.11
-0.19
-0.31
-0.24
0.02
0.48
1.05
1.66
2.24
2.70
2.98
3.07
2.89
2.52
1.98
1.28
0.49
-0.34
-1.14
-1.88
-2.41
-2.75
-2.79
-2.51
-1.93
-1.14
-0.19
0.77
1.58
2.17
2.39
2.25
1.76
0.97
0.02
-0.95
-1.82
-2.47
-2.80
-2.84
-2.59
-2.14
-1.54
-0.87
-0.18
0.45
1.00
1.50
1.91
2.21
2.40
2.47
2.39
2.17
1.81
1.30
0.74
0.15
-0.40
-0.84
-1.15
-1.30
-1.31
-1.17
-0.98
-0.73
-0.48
-0.25
-0.04
0.11
0.23
0.31
0.40
0.48
0.58
0.67
0.80
0.98
1.19
1.42
1.68
1.93
2.14
2.26
2.20
2.00
1.63
1.12
0.49
-0.14
-0.72
-1.15
-1.40
-1.45
-1.33
-1.09
-0.79
-0.52
-0.36
-0.36
-0.52
-0.82
-1.18
-1.54
-1.83
-1.99
-1.97
-1.78
-1.46
-1.10
-0.70
-0.38
-0.17
-0.14
-0.29
-0.57
-0.97
-1.42
-1.85
-2.13
-2.23
-2.08
-1.67
-1.00
-0.11
0.93
2.01
3.01
3.80
4.28
4.42
4.18
3.60
2.78
1.83
0.89
0.09
-0.53
-0.93
-1.08
-1.08
-1.01
-0.96
-1.02
-1.20
-1.50
-1.89
-2.31
-2.63
-2.83
-2.80
-2.60
-2.23
-1.74
-1.19
-0.70
-0.30
-0.00
0.15
0.23
0.26
0.28
0.37
0.57
0.86
1.26
1.73
2.21
2.65
3.00
3.16
3.11
2.84
2.34
1.66
0.90
0.12
-0.59
-1.11
-1.41
-1.41
-1.15
-0.64
0.02
0.76
1.45
1.99
2.32
2.35
2.12
1.57
0.79
-0.19
-1.26
-2.33
-3.28
-4.01
-4.45
-4.49
-4.13
-3.39
-2.32
-1.02
0.38
1.79
3.06
4.08
4.79
5.20
5.27
5.03
4.53
3.85
3.04
2.17
1.26
0.36
-0.45
-1.16
-1.75
-2.16
-2.36
-2.39
-2.22
-1.91
-1.52
-1.10
-0.73
-0.45
-0.29
-0.23
-0.28
-0.37
-0.48
-0.57
-0.62
-0.60
-0.55
-0.42
-0.24
-0.00
0.30
0.64
0.99
1.36
1.70
1.98
2.17
2.21
2.12
1.92
1.63
1.29
1.00
0.77
0.62
0.54
0.46
0.39
0.28
0.08
-0.23
-0.62
-1.09
-1.61
-2.12
-2.62
-3.02
-3.23
-3.21
-2.92
-2.39
-1.69
-0.98
-0.37
-0.03
-0.01
-0.26
-0.73
-1.24
-1.73
-2.14
-2.40
-2.50
-2.43
-2.17
-1.72
-1.20
-0.69
-0.30
-0.11
-0.13
-0.26
-0.43
-0.55
-0.55
-0.43
-0.14
0.33
0.98
1.77
2.67
3.54
4.25
4.67
4.67
4.25
3.44
2.34
1.06
-0.29
-1.64
-2.89
-3.97
-4.80
-5.31
-5.40
-5.06
-4.30
-3.18
-1.86
-0.51
0.77
1.88
2.80
3.51
3.98
4.19
4.14
3.76
3.12
2.30
1.38
0.47
-0.38
-1.09
-1.63
-1.94
-2.06
-1.93
-1.56
-1.01
-0.29
0.49
1.24
1.84
2.20
2.27
2.09
1.77
1.35
0.93
0.54
0.15
-0.25
-0.65
-0.95
-1.09
-0.98
-0.64
-0.14
0.44
1.00
1.49
1.85
2.11
2.26
2.26
2.07
1.79
1.41
1.01
0.61
0.19
-0.24
-0.72
-1.29
-1.89
-2.43
-2.85
-3.12
-3.18
-3.06
-2.79
-2.38
-1.87
-1.26
-0.54
0.21
0.93
1.52
1.90
2.01
1.86
1.49
1.03
0.59
0.22
-0.00
-0.08
-0.05
0.02
0.06
0.02
-0.15
-0.47
-0.94
-1.55
-2.23
-2.95
-3.61
-4.13
-4.43
-4.45
-4.20
-3.70
-2.94
-1.97
-0.83
0.47
1.87
3.25
4.48
5.42
5.94
6.02
5.65
4.86
3.74
2.33
0.75
-0.90
-2.47
-3.80
-4.75
-5.24
-5.21
-4.71
-3.81
-2.65
-1.36
-0.08
1.08
2.05
2.76
3.20
3.36
3.29
3.02
2.59
2.07
1.48
0.94
0.47
0.13
-0.07
-0.16
-0.18
-0.25
-0.38
-0.60
-0.85
-1.15
-1.47
-1.80
-2.09
-2.27
-2.30
-2.12
-1.78
-1.36
-0.99
-0.72
-0.56
-0.50
-0.47
-0.45
-0.41
-0.32
-0.17
0.09
0.49
1.03
1.62
2.22
2.73
3.14
3.42
3.53
3.47
3.21
2.78
2.17
1.47
0.71
-0.03
-0.69
-1.27
-1.69
-1.90
-1.87
-1.56
-1.00
-0.23
0.60
1.38
1.94
2.14
1.96
1.45
0.70
-0.15
-0.95
-1.65
-2.22
-2.62
-2.83
-2.82
-2.58
-2.15
-1.58
-0.99
-0.47
-0.11
0.12
0.21
0.22
0.17
0.10
0.05
0.06
0.17
0.41
0.80
1.31
1.88
2.43
2.86
3.06
2.96
2.55
1.89
1.08
0.26
-0.47
-1.05
-1.46
-1.71
-1.78
-1.73
-1.56
-1.32
-1.09
-0.94
-0.99
-1.27
-1.78
-2.43
-3.09
-3.64
-3.94
-3.90
-3.53
-2.84
-1.89
-0.74
0.51
1.75
2.85
3.73
4.28
4.46
4.26
3.77
3.09
2.31
1.53
0.82
0.22
-0.24
-0.54
-0.70
-0.71
-0.61
-0.46
-0.32
-0.22
-0.21
-0.25
-0.35
-0.44
-0.55
-0.64
-0.74
-0.81
-0.88
-0.96
-1.02
-1.08
-1.09
-1.06
-0.95
-0.79
-0.52
-0.16
0.22
0.63
1.00
1.23
1.34
1.27
1.00
0.57
0.05
-0.50
-1.00
-1.37
-1.54
-1.46
-1.15
-0.65
-0.02
0.68
1.33
1.87
2.24
2.36
2.29
2.00
1.57
1.08
0.59
0.13
-0.26
-0.59
-0.90
-1.13
-1.30
-1.40
-1.38
-1.30
-1.19
-1.04
-0.89
-0.77
-0.69
-0.68
-0.78
-0.96
-1.21
-1.43
-1.52
-1.41
-1.05
-0.44
0.37
1.25
2.13
2.89
3.48
3.87
3.98
3.84
3.48
2.95
2.31
1.68
1.08
0.57
0.22
0.02
-0.04
0.04
0.19
0.38
0.57
0.68
0.66
0.50
0.17
-0.30
-0.88
-1.51
-2.10
-2.55
-2.78
-2.72
-2.35
-1.72
-0.94
-0.14
0.55
1.06
1.32
1.32
1.11
0.75
0.29
-0.15
-0.52
-0.75
-0.82
-0.75
-0.58
-0.34
-0.10
0.10
0.27
0.36
0.43
0.50
0.59
0.69
0.82
0.94
0.98
0.95
0.76
0.44
-0.04
-0.61
-1.25
-1.87
-2.43
-2.85
-3.09
-3.13
-2.96
-2.61
-2.08
-1.43
-0.69
0.06
0.83
1.55
2.19
2.73
3.14
3.40
3.50
3.43
3.15
2.66
2.01
1.17
0.24
-0.73
-1.68
-2.53
-3.21
-3.69
-3.91
-3.84
-3.52
-2.95
-2.20
-1.35
-0.47
0.42
1.20
1.83
2.25
2.38
2.22
1.72
0.96
0.04
-0.88
-1.70
-2.26
-2.49
-2.38
-1.90
-1.16
-0.28
0.63
1.44
2.01
2.30
2.29
1.99
1.50
0.92
0.36
-0.06
-0.30
-0.32
-0.15
0.17
0.55
0.94
1.27
1.50
1.63
1.64
1.57
1.41
1.22
0.99
0.76
0.48
0.15
-0.22
-0.68
-1.21
-1.82
-2.43
-2.98
-3.43
-3.72
-3.80
-3.63
-3.25
-2.69
-2.01
-1.28
-0.54
0.13
0.71
1.19
1.58
1.92
2.25
2.57
2.89
3.23
3.53
3.80
3.98
4.03
3.97
3.78
3.47
3.06
2.61
2.15
1.71
1.33
1.00
0.73
0.50
0.29
0.03
-0.26
-0.57
-0.90
-1.20
-1.43
-1.57
-1.57
-1.46
-1.24
-1.00
-0.76
-0.56
-0.47
-0.51
-0.69
-0.97
-1.33
-1.67
-1.97
-2.13
-2.11
-1.94
-1.63
-1.23
-0.77
-0.32
0.08
0.37
0.54
0.58
0.45
0.19
-0.14
-0.49
-0.78
-1.02
-1.22
-1.37
-1.45
-1.50
-1.47
-1.35
-1.12
-0.77
-0.38
0.01
0.35
0.61
0.69
0.62
0.40
0.08
-0.29
-0.64
-0.94
-1.08
-1.04
-0.81
-0.39
0.20
0.85
1.53
2.16
2.67
3.05
3.30
3.37
3.28
2.99
2.46
1.76
0.94
0.09
-0.69
-1.29
-1.66
-1.77
-1.65
-1.40
-1.09
-0.84
-0.71
-0.73
-0.85
-1.06
-1.27
-1.44
-1.54
-1.56
-1.47
-1.29
-1.03
-0.68
-0.29
0.17
0.64
1.13
1.59
1.99
2.25
2.34
2.20
1.82
1.26
0.56
-0.18
-0.84
-1.29
-1.47
-1.31
-0.83
-0.11
0.73
1.50
2.06
2.34
2.30
1.95
1.41
0.75
0.09
-0.49
-0.96
-1.27
-1.42
-1.44
-1.37
-1.25
-1.09
-0.92
-0.72
-0.45
-0.08
0.32
0.69
0.94
1.03
0.96
0.79
0.61
0.52
0.53
0.62
0.73
0.81
0.87
0.89
0.90
0.88
0.86
0.82
0.75
0.64
0.52
0.41
0.35
0.33
0.33
0.27
0.08
-0.27
-0.81
-1.46
-2.14
-2.72
-3.11
-3.27
-3.23
-3.01
-2.68
-2.23
-1.69
-1.12
-0.53
0.04
0.56
0.98
1.28
1.46
1.55
1.59
1.60
1.61
1.63
1.66
1.66
1.58
1.40
1.12
0.72
0.21
-0.36
-0.97
-1.57
-2.10
-2.51
-2.77
-2.83
-2.73
-2.47
-2.09
-1.62
-1.14
-0.66
-0.20
0.22
0.57
0.85
1.05
1.17
1.21
1.21
1.16
1.13
1.17
1.25
1.40
1.57
1.72
1.81
1.77
1.57
1.16
0.60
-0.07
-0.77
-1.43
-1.98
-2.39
-2.65
-2.72
-2.66
-2.49
-2.20
-1.84
-1.43
-1.05
-0.77
-0.67
-0.74
-1.01
-1.37
-1.71
-1.94
-1.96
-1.74
-1.32
-0.78
-0.15
0.47
1.02
1.42
1.61
1.56
1.27
0.80
0.23
-0.29
-0.72
-1.03
-1.20
-1.25
-1.13
-0.81
-0.32
0.32
1.04
1.75
2.39
2.85
3.08
3.09
2.95
2.71
2.50
2.35
2.26
2.23
2.17
1.97
1.64
1.23
0.83
0.51
0.24
-0.03
-0.30
-0.61
-0.91
-1.15
-1.34
-1.44
-1.55
-1.78
-2.17
-2.66
-3.15
-3.50
-3.56
-3.25
-2.53
-1.44
-0.13
1.25
2.58
3.74
4.66
5.31
5.59
5.53
5.17
4.54
3.71
2.78
1.81
0.89
0.12
-0.47
-0.85
-1.02
-1.03
-0.99
-0.94
-0.98
-1.11
-1.33
-1.62
-2.00
-2.46
-2.94
-3.37
-3.64
-3.72
-3.56
-3.20
-2.71
-2.17
-1.61
-1.05
-0.40
0.35
1.21
2.11
2.96
3.61
3.99
4.06
3.81
3.31
2.64
1.89
1.12
0.41
-0.23
-0.71
-0.99
-1.03
-0.86
-0.48
-0.04
0.32
0.54
0.52
0.35
-0.01
-0.49
-1.09
-1.72
-2.36
-2.95
-3.40
-3.64
-3.58
-3.26
-2.72
-2.05
-1.32
-0.58
0.11
0.70
1.12
1.36
1.41
1.27
0.99
0.65
0.33
0.08
-0.03
-0.05
0.04
0.21
0.44
0.69
0.87
0.94
0.85
0.57
0.08
-0.55
-1.21
-1.79
-2.17
-2.33
-2.22
-1.84
-1.24
-0.51
0.29
1.05
1.65
2.03
2.12
1.93
1.50
0.89
0.20
-0.44
-0.96
-1.32
-1.47
-1.40
-1.19
-0.86
-0.51
-0.20
0.03
0.11
0.05
-0.11
-0.33
-0.56
-0.70
-0.72
-0.55
-0.19
0.32
0.93
1.58
2.16
2.65
3.05
3.31
3.45
3.45
3.31
3.02
2.57
1.94
1.18
0.34
-0.53
-1.36
-2.05
-2.56
-2.88
-3.00
-3.01
-2.93
-2.85
-2.79
-2.76
-2.73
-2.67
-2.52
-2.25
-1.82
-1.27
-0.66
-0.06
0.49
0.96
1.30
1.51
1.61
1.59
1.43
1.14
0.74
0.29
-0.15
-0.55
-0.86
-1.02
-1.05
-0.99
-0.86
-0.72
-0.60
-0.50
-0.36
-0.16
0.13
0.47
0.78
0.95
0.93
0.69
0.28
-0.23
-0.76
-1.22
-1.58
-1.76
-1.73
-1.47
-0.92
-0.12
0.86
1.93
2.96
3.83
4.42
4.68
4.53
4.02
3.20
2.20
1.15
0.20
-0.57
-1.17
-1.55
-1.75
-1.77
-1.60
-1.33
-1.04
-0.78
-0.64
-0.63
-0.67
-0.71
-0.71
-0.65
-0.57
-0.53
-0.55
-0.70
-0.94
-1.24
-1.55
-1.79
-1.88
-1.74
-1.32
-0.58
0.40
1.51
2.65
3.63
4.33
4.67
4.61
4.19
3.49
2.59
1.56
0.57
-0.34
-1.05
-1.52
-1.74
-1.76
-1.62
-1.39
-1.15
-0.88
-0.65
-0.40
-0.13
0.16
0.46
0.75
1.01
1.20
1.30
1.20
0.92
0.42
-0.26
-1.08
-1.88
-2.59
-3.11
-3.35
-3.34
-3.07
-2.57
-1.90
-1.14
-0.32
0.42
1.01
1.40
1.58
1.59
1.51
1.38
1.32
1.34
1.47
1.68
2.01
2.39
2.81
3.21
3.46
3.53
3.36
2.94
2.23
1.34
0.29
-0.81
-1.88
-2.88
-3.73
-4.36
-4.75
-4.88
-4.69
-4.23
-3.47
-2.47
-1.30
-0.07
1.13
2.18
3.00
3.53
3.71
3.57
3.17
2.59
1.91
1.22
0.57
0.04
-0.36
-0.71
-0.99
-1.26
-1.55
-1.90
-2.32
-2.79
-3.26
-3.67
-4.03
-4.25
-4.28
-4.12
-3.75
-3.18
-2.43
-1.59
-0.67
0.22
1.02
1.65
2.08
2.27
2.25
2.09
1.81
1.51
1.28
1.16
1.18
1.33
1.57
1.81
1.98
2.00
1.82
1.44
0.91
0.30
-0.26
-0.69
-0.87
-0.75
-0.35
0.29
1.03
1.75
2.31
2.62
2.58
2.23
1.61
0.81
-0.00
-0.75
-1.34
-1.72
-1.83
-1.75
-1.49
-1.14
-0.79
-0.44
-0.18
-0.03
-0.00
-0.07
-0.24
-0.49
-0.79
-1.13
-1.44
-1.72
-1.92
-1.98
-1.87
-1.55
-1.04
-0.34
0.50
1.43
2.35
3.20
3.91
4.40
4.63
4.57
4.26
3.74
3.11
2.41
1.71
1.05
0.41
-0.16
-0.69
-1.12
-1.46
-1.72
-1.89
-1.97
-1.97
-1.90
-1.77
-1.63
-1.48
-1.37
-1.28
-1.25
-1.26
-1.31
-1.42
-1.57
-1.76
-1.91
-2.02
-1.99
-1.81
-1.49
-1.03
-0.48
0.12
0.75
1.34
1.84
2.15
2.28
2.19
1.93
1.53
1.11
0.74
0.53
0.54
0.77
1.23
1.83
2.54
3.20
3.74
4.06
4.07
3.73
3.06
2.16
1.11
0.07
-0.87
-1.65
-2.24
-2.62
-2.83
-2.89
-2.86
-2.81
-2.80
-2.85
-3.00
-3.20
-3.42
-3.60
-3.65
-3.50
-3.16
-2.61
-1.86
-0.98
-0.01
0.93
1.82
2.56
3.15
3.52
3.68
3.66
3.50
3.23
2.89
2.52
2.17
1.83
1.50
1.17
0.89
0.58
0.27
-0.03
-0.31
-0.54
-0.74
-0.92
-1.09
-1.25
-1.49
-1.80
-2.20
-2.67
-3.16
-3.63
-4.00
-4.25
-4.30
-4.12
-3.72
-3.10
-2.32
-1.40
-0.43
0.55
1.41
2.16
2.77
3.21
3.47
3.54
3.48
3.30
3.05
2.79
2.58
2.45
2.42
2.46
2.54
2.64
2.74
2.76
2.70
2.50
2.16
1.63
0.97
0.21
-0.60
-1.30
-1.83
-2.11
-2.12
-1.90
-1.54
-1.06
-0.58
-0.16
0.18
0.40
0.51
0.50
0.38
0.21
0.02
-0.18
-0.34
-0.50
-0.67
-0.82
-0.99
-1.18
-1.36
-1.50
-1.59
-1.57
-1.44
-1.19
-0.81
-0.32
0.26
0.88
1.51
2.03
2.41
2.59
2.50
2.12
1.45
0.56
-0.51
-1.67
-2.81
-3.83
-4.65
-5.17
-5.38
-5.30
-4.91
-4.27
-3.44
-2.43
-1.27
-0.03
1.23
2.42
3.40
4.13
4.52
4.55
4.22
3.60
2.73
1.70
0.63
-0.38
-1.23
-1.85
-2.20
-2.29
-2.14
-1.86
-1.49
-1.11
-0.81
-0.61
-0.54
-0.60
-0.73
-0.89
-1.03
-1.09
-1.02
-0.82
-0.47
-0.02
0.51
1.06
1.57
2.01
2.35
2.61
2.75
2.81
2.81
2.78
2.69
2.54
2.31
2.01
1.67
1.26
0.89
0.58
0.40
0.39
0.59
0.99
1.54
2.18
2.78
3.27
3.52
3.45
3.03
2.28
1.25
0.07
-1.17
-2.33
-3.32
-4.07
-4.54
-4.73
-4.69
-4.50
-4.24
-3.96
-3.70
-3.41
-3.07
-2.63
-2.10
-1.49
-0.84
-0.22
0.32
0.73
1.03
1.19
1.24
1.21
1.16
1.14
1.22
1.43
1.73
2.11
2.41
2.59
2.60
2.43
2.12
1.75
1.35
0.96
0.62
0.36
0.22
0.24
0.39
0.59
0.78
0.90
0.89
0.77
0.53
0.18
-0.28
-0.87
-1.55
-2.22
-2.74
-3.00
-2.91
-2.50
-1.86
-1.07
-0.30
0.38
0.89
1.13
1.06
0.71
0.12
-0.56
-1.16
-1.56
-1.72
-1.68
-1.52
-1.32
-1.11
-0.89
-0.69
-0.56
-0.52
-0.65
-0.91
-1.22
-1.49
-1.59
-1.51
-1.27
-0.96
-0.63
-0.29
0.07
0.48
0.94
1.43
1.91
2.36
2.74
3.04
3.24
3.30
3.24
2.99
2.58
2.03
1.39
0.73
0.09
-0.50
-1.03
-1.46
-1.81
-2.07
-2.27
-2.42
-2.54
-2.61
-2.62
-2.54
-2.37
-2.08
-1.66
-1.16
-0.65
-0.18
0.18
0.40
0.48
0.38
0.17
-0.09
-0.33
-0.54
-0.70
-0.82
-0.93
-1.08
-1.35
-1.77
-2.31
-2.93
-3.54
-4.03
-4.28
-4.14
-3.56
-2.59
-1.35
0.03
1.38
2.58
3.50
4.10
4.36
4.34
4.14
3.86
3.67
3.67
3.93
4.38
4.96
5.46
5.75
5.71
5.24
4.34
3.07
1.55
-0.06
-1.55
-2.83
-3.77
-4.37
-4.60
-4.58
-4.39
-4.15
-3.95
-3.87
-3.96
-4.15
-4.37
-4.49
-4.40
-4.05
-3.43
-2.57
-1.53
-0.40
0.80
2.05
3.28
4.42
5.35
5.93
6.12
5.88
5.30
4.51
3.67
2.88
2.22
1.71
1.32
0.97
0.62
0.18
-0.34
-0.89
-1.44
-1.93
-2.34
-2.63
-2.85
-2.97
-2.96
-2.81
-2.53
-2.16
-1.78
-1.48
-1.28
-1.21
-1.24
-1.27
-1.24
-1.08
-0.71
-0.16
0.57
1.41
2.26
3.02
3.56
3.75
3.48
2.77
1.69
0.44
-0.76
-1.77
-2.48
-2.88
-2.98
-2.80
-2.36
-1.73
-1.03
-0.38
0.03
0.18
0.03
-0.29
-0.69
-1.01
-1.21
-1.26
-1.17
-1.01
-0.77
-0.50
-0.19
0.08
0.34
0.57
0.76
0.96
1.14
1.31
1.42
1.45
1.41
1.35
1.34
1.38
1.50
1.61
1.69
1.71
1.64
1.47
1.20
0.80
0.20
-0.54
-1.36
-2.11
-2.64
-2.83
-2.67
-2.21
-1.56
-0.89
-0.28
0.20
0.49
0.58
0.43
0.08
-0.42
-0.96
-1.46
-1.78
-1.88
-1.69
-1.22
-0.56
0.23
1.07
1.83
2.45
2.91
3.14
3.18
3.07
2.81
2.48
2.11
1.76
1.44
1.17
0.88
0.54
0.15
-0.34
-0.92
-1.53
-2.12
-2.60
-2.85
-2.86
-2.59
-2.05
-1.31
-0.47
0.34
1.00
1.40
1.50
1.24
0.70
-0.05
-0.93
-1.76
-2.46
-2.95
-3.17
-3.07
-2.68
-2.03
-1.20
-0.30
0.66
1.58
2.35
2.98
3.43
3.68
3.71
3.55
3.12
2.52
1.77
0.90
0.01
-0.81
-1.53
-2.04
-2.30
-2.35
-2.17
-1.80
-1.28
-0.69
-0.15
0.23
0.38
0.30
0.02
-0.41
-0.93
-1.48
-2.01
-2.44
-2.75
-2.85
-2.73
-2.36
-1.81
-1.15
-0.50
0.05
0.48
0.73
0.87
0.91
0.90
0.83
0.73
0.57
0.38
0.18
-0.03
-0.23
-0.37
-0.47
-0.51
-0.48
-0.41
-0.31
-0.17
0.05
0.35
0.73
1.13
1.48
1.71
1.79
1.73
1.60
1.46
1.33
1.23
1.12
0.99
0.82
0.62
0.44
0.28
0.12
-0.03
-0.13
-0.16
-0.02
0.31
0.76
1.27
1.73
1.99
1.97
1.71
1.28
0.81
0.40
0.08
-0.15
-0.29
-0.41
-0.57
-0.79
-1.07
-1.41
-1.80
-2.25
-2.75
-3.24
-3.65
-3.87
-3.83
-3.49
-2.87
-2.05
-1.15
-0.28
0.46
1.02
1.43
1.72
1.91
2.06
2.24
2.43
2.64
2.85
3.06
3.26
3.45
3.53
3.48
3.31
2.95
2.43
1.79
1.12
0.53
0.05
-0.31
-0.55
-0.72
-0.89
-1.10
-1.40
-1.77
-2.16
-2.54
-2.89
-3.14
-3.27
-3.27
-3.08
-2.73
-2.24
-1.63
-0.96
-0.32
0.25
0.71
1.05
1.32
1.48
1.56
1.60
1.58
1.47
1.27
0.96
0.56
0.12
-0.35
-0.78
-1.10
-1.27
-1.29
-1.17
-0.92
-0.62
-0.27
0.01
0.18
0.21
0.09
-0.16
-0.51
-0.89
-1.27
-1.61
-1.92
-2.16
-2.34
-2.45
-2.44
-2.32
-2.06
-1.63
-1.00
-0.24
0.61
1.45
2.18
2.76
3.11
3.21
3.08
2.79
2.42
2.04
1.75
1.58
1.60
1.73
1.95
2.16
2.34
2.48
2.54
2.57
2.56
2.53
2.43
2.23
1.91
1.43
0.81
0.04
-0.82
-1.74
-2.61
-3.38
-3.93
-4.20
-4.15
-3.82
-3.27
-2.60
-1.93
-1.35
-0.95
-0.72
-0.66
-0.75
-0.95
-1.22
-1.51
-1.76
-1.91
-1.93
-1.80
-1.52
-1.12
-0.65
-0.13
0.39
0.85
1.24
1.52
1.69
1.74
1.71
1.65
1.59
1.58
1.64
1.77
1.95
2.13
2.23
2.24
2.13
1.84
1.43
0.89
0.30
-0.31
-0.86
-1.33
-1.65
-1.80
-1.84
-1.73
-1.47
-1.08
-0.58
-0.01
0.53
0.95
1.21
1.22
1.06
0.78
0.43
0.08
-0.22
-0.44
-0.57
-0.58
-0.50
-0.31
-0.06
0.20
0.44
0.59
0.63
0.60
0.49
0.33
0.15
-0.04
-0.27
-0.50
-0.76
-1.03
-1.28
-1.47
-1.60
-1.64
-1.55
-1.37
-1.08
-0.76
-0.43
-0.10
0.23
0.52
0.78
1.05
1.36
1.73
2.12
2.50
2.86
3.10
3.19
3.05
2.68
2.07
1.32
0.49
-0.31
-0.94
-1.36
-1.49
-1.34
-0.95
-0.43
0.13
0.63
0.98
1.12
1.01
0.72
0.28
-0.26
-0.81
-1.31
-1.69
-1.94
-2.06
-2.06
-1.89
-1.59
-1.18
-0.65
-0.05
0.58
1.22
1.80
2.28
2.63
2.83
2.84
2.70
2.39
1.91
1.29
0.57
-0.23
-1.06
-1.92
-2.74
-3.47
-4.07
-4.47
-4.61
-4.48
-4.03
-3.27
-2.27
-1.07
0.24
1.54
2.73
3.75
4.49
4.89
4.94
4.68
4.17
3.51
2.80
2.12
1.54
1.07
0.71
0.43
0.19
-0.02
-0.23
-0.42
-0.61
-0.78
-0.94
-1.06
-1.07
-1.00
-0.81
-0.53
-0.20
0.09
0.30
0.34
0.18
-0.14
-0.62
-1.16
-1.69
-2.15
-2.50
-2.66
-2.63
-2.41
-2.02
-1.53
-0.94
-0.32
0.28
0.82
1.31
1.71
2.02
2.23
2.29
2.23
2.02
1.63
1.08
0.38
-0.41
-1.23
-2.02
-2.71
-3.22
-3.45
-3.40
-3.03
-2.42
-1.65
-0.80
0.04
0.77
1.32
1.64
1.68
1.45
0.95
0.20
-0.69
-1.58
-2.38
-3.00
-3.36
-3.45
-3.23
-2.76
-2.10
-1.33
-0.53
0.22
0.82
1.20
1.35
1.29
1.05
0.71
0.38
0.12
0.01
0.09
0.35
0.77
1.27
1.77
2.15
2.37
2.38
2.14
1.72
1.15
0.52
-0.07
-0.52
-0.78
-0.80
-0.61
-0.26
0.22
0.71
1.20
1.58
1.84
1.99
2.02
1.93
1.76
1.54
1.25
0.94
0.60
0.22
-0.17
-0.58
-0.99
-1.40
-1.77
-2.07
-2.29
-2.40
-2.39
-2.26
-2.05
-1.77
-1.46
-1.13
-0.79
-0.47
-0.18
0.07
0.33
0.55
0.81
1.07
1.28
1.44
1.46
1.33
1.02
0.58
0.03
-0.50
-0.96
-1.31
-1.48
-1.48
-1.32
-1.02
-0.59
-0.09
0.50
1.10
1.64
2.11
2.46
2.65
2.71
2.61
2.35
1.95
1.39
0.72
-0.02
-0.78
-1.45
-1.95
-2.25
-2.29
-2.11
-1.79
-1.40
-1.04
-0.76
-0.62
-0.62
-0.80
-1.13
-1.54
-1.97
-2.35
-2.55
-2.49
-2.16
-1.52
-0.64
0.38
1.46
2.51
3.41
4.12
4.58
4.77
4.70
4.42
3.94
3.30
2.56
1.78
0.99
0.20
-0.58
-1.27
-1.88
-2.39
-2.80
-3.07
-3.21
-3.23
-3.15
-3.02
-2.81
-2.58
-2.32
-2.03
-1.67
-1.29
-0.87
-0.39
0.09
0.55
0.95
1.23
1.38
1.40
1.26
1.02
0.72
0.39
0.09
-0.17
-0.39
-0.52
-0.60
-0.66
-0.69
-0.67
-0.63
-0.52
-0.33
-0.08
0.29
0.78
1.33
1.89
2.44
2.86
3.15
3.21
3.02
2.61
1.99
1.23
0.39
-0.46
-1.26
-1.96
-2.53
-2.95
-3.23
-3.40
-3.46
-3.42
-3.30
-3.06
-2.73
-2.26
-1.64
-0.94
-0.14
0.69
1.51
2.25
2.84
3.27
3.51
3.56
3.43
3.15
2.76
2.32
1.83
1.35
0.90
0.49
0.14
-0.18
-0.45
-0.70
-0.93
-1.14
-1.29
-1.40
-1.43
-1.37
-1.25
-1.04
-0.78
-0.51
-0.22
0.05
0.26
0.41
0.52
0.57
0.58
0.56
0.51
0.42
0.27
0.07
-0.16
-0.36
-0.54
-0.68
-0.80
-0.92
-1.05
-1.20
-1.36
-1.48
-1.53
-1.53
-1.43
-1.23
-0.94
-0.55
-0.07
0.42
0.87
1.23
1.43
1.48
1.39
1.16
0.86
0.52
0.14
-0.23
-0.53
-0.73
-0.82
-0.75
-0.61
-0.42
-0.23
-0.13
-0.15
-0.32
-0.64
-1.03
-1.46
-1.82
-2.00
-1.88
-1.43
-0.63
0.47
1.76
3.10
4.31
5.21
5.70
5.71
5.22
4.29
3.05
1.63
0.22
-1.03
-2.00
-2.65
-2.91
-2.86
-2.55
-2.06
-1.49
-0.94
-0.46
-0.12
0.05
0.04
-0.15
-0.44
-0.78
-1.08
-1.29
-1.35
-1.27
-1.03
-0.65
-0.20
0.26
0.64
0.88
0.91
0.75
0.40
-0.07
-0.56
-1.01
-1.39
-1.66
-1.80
-1.80
-1.65
-1.36
-0.97
-0.50
-0.02
0.42
0.74
0.94
1.05
1.07
1.05
1.03
1.09
1.26
1.59
2.05
2.64
3.35
4.12
4.93
5.70
6.38
6.92
7.29
7.47
7.39
7.06
6.44
5.57
4.40
2.99
1.42
-0.24
-1.85
-3.32
-4.55
-5.48
-6.04
-6.25
-6.11
-5.65
-4.94
-4.08
-3.20
-2.40
-1.80
-1.42
-1.26
-1.31
-1.50
-1.76
-2.02
-2.20
-2.23
-2.11
-1.81
-1.36
-0.84
-0.30
0.15
0.45
0.53
0.38
-0.01
-0.55
-1.21
-1.91
-2.56
-3.09
-3.45
-3.63
-3.57
-3.36
-3.01
-2.57
-2.12
-1.73
-1.41
-1.21
-1.11
-1.05
-1.00
-0.90
-0.66
-0.29
0.25
0.88
1.54
2.16
2.65
2.96
3.06
2.97
2.72
2.43
2.13
1.92
1.81
1.81
1.88
1.93
1.86
1.60
1.13
0.40
-0.48
-1.45
-2.37
-3.08
-3.49
-3.51
-3.12
-2.35
-1.28
-0.05
1.21
2.30
3.12
3.59
3.67
3.37
2.76
1.96
1.11
0.32
-0.30
-0.66
-0.76
-0.56
-0.17
0.33
0.80
1.18
1.32
1.17
0.73
0.03
-0.85
-1.77
-2.65
-3.37
-3.82
-3.95
-3.76
-3.30
-2.67
-1.96
-1.24
-0.62
-0.14
0.20
0.44
0.62
0.79
0.96
1.17
1.42
1.67
1.90
2.07
2.14
2.07
1.86
1.48
0.95
0.35
-0.28
-0.87
-1.38
-1.76
-1.99
-2.07
-2.00
-1.86
-1.65
-1.38
-1.13
-0.92
-0.75
-0.58
-0.37
-0.09
0.26
0.68
1.12
1.55
1.95
2.32
2.68
3.01
3.31
3.53
3.61
3.51
3.21
2.75
2.19
1.59
0.99
0.48
0.03
-0.34
-0.66
-0.91
-1.11
-1.30
-1.50
-1.75
-2.04
-2.37
-2.70
-2.98
-3.14
-3.14
-2.95
-2.57
-2.06
-1.47
-0.89
-0.40
-0.03
0.17
0.16
-0.01
-0.31
-0.70
-1.08
-1.43
-1.66
-1.71
-1.54
-1.16
-0.54
0.27
1.17
2.11
2.97
3.67
4.16
4.38
4.35
4.08
3.63
3.03
2.39
1.74
1.11
0.56
0.08
-0.31
-0.64
-0.91
-1.16
-1.35
-1.52
-1.64
-1.71
-1.75
-1.75
-1.74
-1.69
-1.59
-1.38
-1.05
-0.60
-0.05
0.51
1.06
1.52
1.80
1.87
1.72
1.35
0.80
0.16
-0.52
-1.09
-1.48
-1.70
-1.71
-1.54
-1.23
-0.87
-0.52
-0.22
0.05
0.29
0.51
0.75
1.05
1.42
1.84
2.28
2.66
2.93
3.05
2.99
2.73
2.32
1.80
1.27
0.79
0.41
0.15
0.03
0.02
0.08
0.12
0.06
-0.11
-0.43
-0.86
-1.34
-1.77
-2.08
-2.26
-2.32
-2.32
-2.33
-2.36
-2.43
-2.53
-2.61
-2.61
-2.51
-2.28
-1.88
-1.32
-0.58
0.27
1.20
2.07
2.76
3.18
3.23
2.94
2.36
1.59
0.69
-0.20
-1.00
-1.64
-2.08
-2.28
-2.23
-1.99
-1.60
-1.19
-0.85
-0.67
-0.68
-0.86
-1.20
-1.59
-1.95
-2.21
-2.33
-2.27
-2.01
-1.60
-1.06
-0.52
-0.07
0.21
0.29
0.17
-0.04
-0.17
-0.13
0.21
0.82
1.64
2.56
3.47
4.20
4.67
4.81
4.55
3.95
3.05
1.97
0.86
-0.17
-0.97
-1.44
-1.53
-1.25
-0.63
0.23
1.21
2.19
3.02
3.63
3.95
3.90
3.51
2.83
1.92
0.89
-0.16
-1.12
-1.90
-2.42
-2.68
-2.70
-2.50
-2.18
-1.79
-1.38
-1.00
-0.65
-0.32
-0.02
0.30
0.59
0.86
1.09
1.26
1.35
1.27
1.02
0.53
-0.15
-1.01
-1.93
-2.77
-3.43
-3.81
-3.89
-3.68
-3.26
-2.67
-1.97
-1.25
-0.54
0.04
0.48
0.74
0.81
0.78
0.67
0.57
0.47
0.36
0.17
-0.13
-0.54
-1.05
-1.56
-2.01
-2.32
-2.48
-2.48
-2.32
-1.98
-1.44
-0.76
0.05
0.87
1.58
2.08
2.32
2.30
2.07
1.72
1.30
0.94
0.62
0.43
0.38
0.51
0.79
1.20
1.68
2.14
2.53
2.75
2.74
2.46
1.91
1.08
0.01
-1.16
-2.31
-3.27
-3.90
-4.14
-4.01
-3.60
-3.01
-2.34
-1.64
-0.99
-0.44
-0.07
0.12
0.14
0.05
-0.05
-0.07
0.03
0.25
0.52
0.82
1.09
1.31
1.48
1.62
1.72
1.82
1.92
2.01
2.09
2.11
2.05
1.90
1.62
1.21
0.68
0.09
-0.52
-1.11
-1.65
-2.08
-2.39
-2.58
-2.72
-2.82
-2.92
-3.03
-3.10
-3.09
-2.98
-2.71
-2.30
-1.78
-1.15
-0.45
0.23
0.88
1.42
1.80
1.96
