1723051524.00
64.000000
-0.00
-0.00
-0.00
-0.00
-0.00
-0.00
-0.00
-0.00
-0.00
-0.00
0.00
0.01
0.01
-0.00
-0.03
-0.05
-0.05
0.00
0.13
0.36
0.66
1.01
1.37
1.72
2.06
2.40
2.79
3.24
3.80
4.42
5.06
5.66
6.20
6.68
7.15
7.68
8.31
9.14
10.09
11.04
11.88
12.56
13.14
13.76
14.65
15.96
17.91
20.32
22.90
25.38
27.58
29.57
31.68
34.32
37.81
42.54
48.15
54.10
59.83
64.97
69.58
74.14
79.34
85.71
93.76
103.00
112.62
121.73
129.77
136.75
143.30
150.75
157.77
166.64
177.95
191.79
206.97
220.57
228.25
225.36
208.53
176.87
132.76
80.05
23.07
-34.94
-92.44
-149.16
-205.23
-260.37
-313.74
-363.87
-409.83
-450.91
-486.50
-515.74
-537.23
-549.22
-549.96
-538.37
-514.21
-478.67
-433.88
-382.45
-327.02
-269.84
-212.63
-156.66
-102.95
-52.37
-5.90
35.58
71.43
101.35
125.50
144.38
158.69
169.15
176.37
180.75
182.57
182.07
179.51
175.23
169.65
163.18
156.15
148.81
141.30
133.69
126.02
118.33
110.69
103.16
95.80
88.68
81.83
75.24
68.95
62.95
57.25
51.86
46.79
42.05
37.62
33.51
29.70
26.19
22.97
20.03
17.37
14.98
12.86
10.98
9.34
7.93
6.72
5.70
4.86
4.15
3.59
3.16
2.85
2.65
2.55
2.50
2.46
2.40
2.30
2.19
2.14
2.19
2.38
2.69
3.07
3.45
3.76
3.99
4.20
4.46
4.86
5.44
6.17
6.95
7.68
8.24
8.63
8.95
9.41
10.19
11.38
12.91
14.52
15.88
16.71
16.98
16.99
17.20
18.07
19.82
22.22
24.64
26.24
26.23
24.38
21.07
17.06
13.11
9.62
6.29
2.16
-3.86
-12.62
-23.97
-36.72
-49.13
-59.67
-67.42
-72.55
-76.12
-79.52
-84.27
-91.36
-101.41
-114.52
-129.57
-143.63
-152.24
-150.85
-135.89
-109.57
-77.67
-47.63
-25.87
-15.03
-13.45
-16.75
-20.37
-21.61
-20.22
-16.97
-12.18
-5.41
4.38
17.80
34.34
52.25
69.21
82.94
91.56
95.74
96.86
96.57
96.08
95.87
95.62
94.52
91.68
86.72
80.15
72.82
65.88
60.37
56.91
55.44
55.28
55.63
55.08
52.98
49.30
44.81
40.77
38.55
38.98
41.92
46.18
49.97
51.76
50.72
47.16
42.47
38.73
37.91
41.21
48.45
57.78
65.79
68.07
60.94
42.22
13.18
-21.59
-55.64
-83.07
-100.79
-109.28
-112.10
-113.74
-117.70
-124.66
-132.24
-135.83
-130.42
-112.61
-82.03
-42.32
-0.49
35.02
57.25
63.40
55.70
40.12
23.99
13.43
11.73
18.98
32.65
48.65
62.84
72.19
75.39
72.82
65.77
55.53
43.04
29.08
14.63
1.80
-6.77
-9.16
-5.73
0.57
5.56
6.32
2.99
-1.97
-4.75
-2.81
3.33
10.34
13.72
10.43
0.36
-14.06
-30.25
-46.28
-61.70
-76.99
-92.47
-106.83
-117.04
-119.67
-108.06
-81.06
-41.97
3.01
47.02
84.34
111.55
127.44
132.08
126.11
110.10
86.21
59.78
38.36
28.21
30.88
42.74
57.57
69.95
77.07
79.95
79.90
80.56
83.31
86.77
87.67
82.35
67.76
41.73
3.62
-40.78
-84.36
-119.07
-137.64
-136.35
-117.55
-90.13
-67.32
-61.62
-79.54
-119.02
-170.07
-218.35
-250.27
-257.06
-236.32
-191.24
-128.42
-56.11
16.39
79.38
123.59
141.94
131.15
93.04
34.42
-34.57
-102.95
-161.70
-205.56
-233.86
-250.25
-261.38
-274.16
-292.75
-316.51
-339.83
-354.77
-354.84
-338.21
-308.79
-274.01
-240.98
-213.33
-190.11
-167.29
-140.31
-106.42
-65.61
-20.59
23.85
61.73
87.06
95.10
83.71
54.26
11.63
-36.73
-82.49
-118.32
-139.14
-142.88
-130.41
-104.94
-71.02
-33.50
3.61
37.75
68.21
95.87
122.72
151.26
183.54
220.28
260.10
299.38
332.95
355.70
364.31
358.46
340.85
316.09
288.90
262.64
238.78
217.17
197.15
178.35
161.07
146.12
134.25
125.67
119.82
115.60
111.74
107.26
101.72
95.20
88.06
80.68
73.30
66.00
58.90
52.24
46.41
41.78
38.50
36.49
35.37
34.63
33.85
32.76
31.32
29.80
28.59
28.16
28.87
30.87
34.07
38.19
42.76
47.18
50.67
52.24
50.83
45.50
35.76
21.73
4.20
-15.64
-36.45
-56.95
-76.04
-92.82
-106.58
-116.81
-123.34
-126.29
-126.13
-123.50
-119.08
-113.38
-106.61
-98.61
-89.00
-77.42
-63.85
-48.75
-32.96
-17.53
-3.29
9.31
20.23
29.62
37.55
44.01
48.89
52.27
54.45
55.95
57.26
58.68
60.18
61.49
62.19
61.94
60.57
58.14
54.99
51.60
48.49
46.09
44.56
43.77
43.22
42.16
39.82
35.62
29.41
21.53
12.65
3.51
-5.31
-13.55
-21.12
-27.89
-33.56
-37.62
-39.59
-39.32
-37.15
-33.80
-30.15
-26.82
-24.02
-21.59
-19.16
-16.49
-13.59
-10.65
-7.96
-5.70
-3.89
-2.44
-1.18
-0.01
1.09
2.04
2.77
3.20
3.33
3.20
2.92
2.58
2.20
1.74
1.09
0.18
-0.99
-2.26
-3.30
-3.81
-3.54
-2.50
-0.93
0.78
2.25
3.24
3.71
3.77
3.53
3.08
2.38
1.45
0.37
-0.72
-1.70
-2.59
-3.58
-4.86
-6.39
-7.73
-8.21
-7.24
-4.62
-0.77
3.47
7.24
9.99
11.70
12.72
13.48
14.24
14.99
15.50
15.55
15.01
13.94
12.45
10.67
8.72
6.74
4.93
3.56
2.87
3.02
4.03
5.81
8.28
11.34
14.91
18.77
22.39
24.96
25.62
23.68
19.02
12.13
4.01
-4.27
-11.80
-18.10
-23.08
-26.84
-29.60
-31.50
-32.75
-33.56
-34.19
-34.72
-35.00
-34.60
-32.94
-29.56
-24.36
-17.70
-10.29
-2.94
3.66
9.04
12.92
15.15
15.71
14.73
12.55
9.72
6.82
4.27
2.23
0.59
-0.85
-2.24
-3.58
-4.76
-5.66
-6.25
-6.60
-6.79
-6.85
-6.74
-6.37
-5.69
-4.78
-3.70
-2.48
-1.02
0.82
3.16
6.00
9.25
12.79
16.65
20.99
25.94
31.53
37.54
43.49
48.85
53.24
56.57
59.10
61.38
64.12
68.00
73.49
80.70
89.41
99.25
109.97
121.59
134.40
148.66
164.12
179.73
193.48
202.72
204.71
197.26
179.22
150.74
113.21
68.97
20.91
-28.01
-75.33
-119.52
-160.19
-197.83
-233.01
-265.57
-294.15
-316.52
-330.76
-336.57
-335.94
-332.64
-330.62
-332.21
-337.12
-342.64
-344.90
-340.59
-328.20
-308.25
-282.75
-254.29
-225.25
-197.44
-172.03
-149.64
-130.57
-114.83
-102.31
-92.70
-85.41
-79.53
-73.78
-66.63
-56.59
-42.46
-23.58
-0.00
27.41
56.94
86.30
112.88
134.30
148.93
156.26
157.06
152.94
145.68
136.35
124.95
110.64
92.63
71.22
48.35
27.23
11.13
1.97
-0.41
2.06
6.96
12.67
19.04
26.91
37.03
49.07
61.43
71.94
78.95
82.11
82.41
81.62
81.48
83.04
86.63
91.97
98.55
105.84
113.40
120.82
127.67
133.41
137.30
138.51
136.31
130.33
120.77
108.40
94.45
80.30
67.16
55.86
46.75
39.76
34.55
30.68
27.69
25.22
23.02
20.90
18.76
16.47
13.94
11.13
8.10
5.03
2.25
0.15
-0.94
-0.88
0.22
2.02
4.03
5.84
7.19
8.08
8.75
9.46
10.43
11.65
12.92
13.94
14.45
14.37
13.83
13.15
12.68
12.67
13.15
13.93
14.69
15.10
14.95
14.19
12.92
11.33
9.63
8.00
6.58
5.42
4.54
3.92
3.47
3.12
2.84
2.68
2.74
3.15
3.99
5.23
6.77
8.43
10.01
11.33
12.18
12.40
11.80
10.30
7.98
5.09
2.01
-0.81
-2.98
-4.31
-4.80
-4.73
-4.45
-4.42
-4.98
-6.32
-8.40
-10.96
-13.66
-16.18
-18.34
-20.12
-21.61
-22.91
-24.06
-24.99
-25.54
-25.61
-25.14
-24.20
-23.00
-21.80
-20.91
-20.49
-20.54
-20.79
-20.87
-20.48
-19.44
-17.82
-15.84
-13.74
-11.68
-9.74
-8.00
-6.60
-5.67
-5.36
-5.67
-6.44
-7.40
-8.31
-9.03
-9.60
-10.18
-10.89
-11.77
-12.63
-13.15
-12.95
-11.82
-9.79
-7.22
-4.68
-2.68
-1.51
-1.12
-1.23
-1.47
-1.61
-1.62
-1.57
-1.54
-1.53
-1.45
-1.24
-0.90
-0.57
-0.33
-0.19
-0.02
0.35
0.96
1.67
2.22
2.35
1.94
1.09
-0.06
-1.31
-2.57
-3.80
-4.92
-5.80
-6.27
-6.24
-5.76
-5.08
-4.51
-4.37
-4.80
-5.82
-7.30
-9.01
-10.72
-12.22
-13.46
-14.47
-15.37
-16.25
-17.10
-17.79
-18.12
-17.85
-16.82
-14.97
-12.39
-9.36
-6.23
-3.40
-1.21
0.15
0.75
0.84
0.78
0.87
1.26
1.89
2.59
3.21
3.59
3.72
3.64
3.43
3.20
3.07
3.13
3.41
3.91
4.56
5.20
5.65
5.75
5.39
4.61
3.54
2.39
1.34
0.49
-0.11
-0.54
-0.90
-1.32
-1.94
-2.86
-4.09
-5.53
-6.91
-7.95
-8.49
-8.55
-8.37
-8.33
-8.71
-9.66
-11.13
-12.93
-14.84
-16.66
-18.14
-19.05
-19.10
-18.04
-15.76
-12.41
-8.41
-4.34
-0.79
1.92
3.79
5.07
6.05
6.94
7.67
8.05
7.96
7.44
6.74
6.22
6.12
6.48
7.13
7.83
8.41
8.81
9.11
9.36
9.54
9.54
9.25
8.60
7.68
6.68
5.81
5.16
4.67
4.17
3.45
2.45
1.24
0.04
-1.01
-1.91
-2.79
-3.83
-5.12
-6.60
-8.08
-9.32
-10.14
-10.51
-10.52
-10.44
-10.52
-10.95
-11.80
-12.99
-14.31
-15.53
-16.48
-17.03
-17.05
-16.44
-15.06
-12.82
-9.82
-6.32
-2.78
0.35
2.76
4.35
5.22
5.58
5.67
5.67
5.68
5.72
5.79
5.89
6.08
6.43
6.97
7.70
8.48
9.17
9.63
9.83
9.80
9.65
9.42
9.07
8.48
7.53
6.21
4.65
3.12
1.85
0.92
0.22
-0.52
-1.57
-3.00
-4.66
-6.22
-7.37
-7.99
-8.19
-8.28
-8.60
-9.34
-10.41
-11.46
-11.97
-11.43
-9.53
-6.31
-2.17
2.26
6.30
9.41
11.33
12.15
12.19
11.85
11.58
11.66
12.24
13.29
14.71
16.33
17.97
19.54
20.99
22.26
23.26
23.81
23.77
23.07
21.82
20.27
18.71
17.32
16.13
15.03
13.90
12.74
11.61
10.65
9.88
9.23
8.52
7.58
6.34
4.84
3.20
1.52
-0.11
-1.64
-3.03
-4.22
-5.19
-6.02
-6.93
-8.16
-9.90
-12.14
-14.64
-16.98
-18.71
-19.46
-19.09
-17.73
-15.71
-13.48
-11.48
-10.08
-9.55
-9.98
-11.38
-13.59
-16.34
-19.30
-22.14
-24.61
-26.63
-28.27
-29.67
-30.91
-32.02
-32.88
-33.37
-33.38
-32.90
-32.03
-30.96
-29.87
-28.86
-27.91
-26.88
-25.53
-23.72
-21.47
-19.03
-16.73
-14.85
-13.44
-12.31
-11.16
-9.73
-8.02
-6.26
-4.79
-3.84
-3.42
-3.33
-3.27
-3.03
-2.60
-2.16
-2.00
-2.28
-3.08
-4.29
-5.81
-7.47
-9.10
-10.35
-10.83
-10.08
-7.88
-4.34
0.03
4.51
8.48
11.59
13.83
15.41
16.55
17.38
17.90
18.12
18.11
18.01
17.95
17.92
17.84
17.61
17.26
16.93
16.83
17.06
17.51
17.88
17.81
17.10
15.82
14.30
12.89
11.82
11.06
10.37
9.53
8.46
7.30
6.28
5.55
5.10
4.72
4.20
3.43
2.45
1.47
0.66
0.16
-0.07
-0.11
-0.09
-0.14
-0.38
-0.92
-1.80
-3.01
-4.39
-5.75
-6.91
-7.81
-8.58
-9.46
-10.65
-12.16
-13.72
-14.81
-14.85
-13.49
-10.75
-7.10
-3.17
0.47
3.53
5.98
7.98
9.62
10.85
11.56
11.69
11.40
10.97
10.77
10.97
11.55
12.26
12.82
13.09
13.13
13.13
13.29
13.68
14.21
14.66
14.82
14.55
13.79
12.60
11.12
9.50
7.88
6.42
5.25
4.41
3.82
3.32
2.70
1.82
0.74
-0.36
-1.23
-1.75
-2.00
-2.27
-2.88
-4.01
-5.65
-7.53
-9.33
-10.81
-11.89
-12.66
-13.27
-13.88
-14.60
-15.55
-16.86
-18.56
-20.59
-22.64
-24.21
-24.72
-23.73
-21.10
-17.10
-12.29
-7.41
-3.07
0.39
2.98
4.95
6.62
8.15
9.54
10.65
11.34
11.63
11.72
11.85
12.20
12.76
13.36
13.81
13.98
13.94
13.82
13.75
13.71
13.61
13.31
12.75
12.03
11.31
10.76
10.41
10.14
9.78
9.14
8.20
7.00
5.66
4.24
2.80
1.36
-0.01
-1.16
-2.01
-2.58
-3.04
-3.64
-4.52
-5.68
-6.93
-8.04
-8.93
-9.70
-10.57
-11.73
-13.16
-14.67
-16.03
-17.10
-17.98
-18.91
-20.08
-21.47
-22.74
-23.35
-22.82
-20.90
-17.72
-13.71
-9.43
-5.38
-1.88
0.99
3.29
5.15
6.71
8.10
9.41
10.68
11.87
12.88
13.61
14.04
14.23
14.36
14.58
14.91
15.27
15.50
15.48
15.15
14.58
13.87
13.12
12.37
11.64
10.89
10.12
9.35
8.60
7.92
7.29
6.66
5.95
5.00
3.75
2.20
0.50
-1.11
-2.37
-3.21
-3.69
-4.04
-4.47
-5.11
-5.96
-6.96
-8.06
-9.25
-10.57
-11.96
-13.30
-14.41
-15.20
-15.76
-16.34
-17.23
-18.50
-19.93
-21.03
-21.24
-20.13
-17.61
-13.90
-9.45
-4.78
-0.37
3.40
6.31
8.31
9.44
9.93
10.01
9.91
9.74
9.53
9.27
9.00
8.82
8.89
9.34
10.17
11.26
12.39
13.34
13.93
14.04
13.67
12.89
11.80
10.55
9.27
8.08
7.05
6.19
5.45
4.70
3.79
2.62
1.12
-0.61
-2.36
-3.90
-5.05
-5.76
-6.19
-6.60
-7.25
-8.24
-9.51
-10.86
-12.06
-13.04
-13.88
-14.79
-15.98
-17.53
-19.36
-21.22
-22.73
-23.47
-23.07
-21.28
-18.10
-13.81
-8.93
-4.13
0.03
3.23
5.45
6.89
7.81
8.49
9.06
9.62
10.21
10.82
11.36
11.74
11.90
11.86
11.78
11.80
12.02
12.39
12.74
12.90
12.72
12.22
11.50
10.69
9.89
9.15
8.44
7.73
7.00
6.21
5.31
4.24
2.96
1.44
-0.27
-2.05
-3.74
-5.15
-6.17
-6.83
-7.26
-7.72
-8.45
-9.57
-11.10
-12.89
-14.75
-16.47
-17.97
-19.26
-20.51
-21.90
-23.56
-25.43
-27.30
-28.77
-29.40
-28.83
-26.84
-23.46
-18.95
-13.76
-8.43
-3.42
0.94
4.56
7.51
10.00
12.24
14.33
16.28
17.99
19.36
20.29
20.80
20.96
20.88
20.71
20.58
20.55
20.64
20.78
20.84
20.74
20.40
19.80
18.92
17.73
16.22
14.36
12.21
9.91
7.68
5.79
4.39
3.53
3.06
2.71
2.22
1.42
0.37
-0.76
-1.75
-2.48
-3.00
-3.51
-4.24
-5.34
-6.79
-8.47
-10.15
-11.69
-12.99
-14.05
-14.98
-15.87
-16.90
-18.20
-19.90
-21.95
-24.15
-26.05
-27.12
-26.92
-25.23
-22.11
-17.90
-13.04
-8.01
-3.19
1.07
4.53
6.98
8.38
8.87
8.79
8.58
8.65
9.18
10.10
11.20
12.19
12.89
13.28
13.43
13.46
13.47
13.51
13.60
13.73
13.83
13.79
13.44
12.67
11.46
9.96
8.42
7.10
6.12
5.47
4.99
4.48
3.82
2.98
2.00
0.95
-0.16
-1.39
-2.78
-4.35
-6.04
-7.76
-9.40
-10.88
-12.14
-13.17
-14.03
-14.85
-15.88
-17.40
-19.60
-22.46
-25.65
-28.55
-30.43
-30.69
-29.04
-25.57
-20.72
-15.05
-9.20
-3.67
1.18
5.10
7.98
9.85
10.88
11.38
11.67
12.02
12.58
13.35
14.19
14.92
15.41
15.61
15.62
15.62
15.83
16.35
17.12
17.89
18.35
18.28
17.62
16.52
15.21
13.90
12.64
11.39
10.07
8.67
7.29
6.01
4.87
3.81
2.74
1.60
0.37
-0.86
-2.01
-3.04
-4.00
-4.98
-6.10
-7.42
-9.00
-10.81
-12.79
-14.85
-16.93
-18.99
-21.10
-23.32
-25.71
-28.20
-30.54
-32.37
-33.26
-32.83
-30.88
-27.42
-22.73
-17.29
-11.65
-6.31
-1.65
2.19
5.23
7.65
9.63
11.31
12.75
13.94
14.89
15.61
16.20
16.75
17.34
17.97
18.58
19.08
19.45
19.70
19.86
19.97
19.98
19.79
19.30
18.43
17.23
15.84
14.45
13.17
12.05
11.03
9.94
8.63
7.03
5.15
3.17
1.34
-0.14
-1.21
-1.98
-2.72
-3.68
-5.02
-6.74
-8.67
-10.62
-12.47
-14.13
-15.61
-16.93
-18.16
-19.46
-21.06
-23.17
-25.81
-28.59
-30.82
-31.63
-30.38
-26.93
-21.69
-15.47
-9.15
-3.44
1.26
4.83
7.35
9.01
10.03
10.68
11.19
11.68
12.21
12.74
13.23
13.64
13.98
14.29
14.55
14.76
14.92
15.09
15.35
15.73
16.17
16.53
16.60
16.23
15.38
14.11
12.57
10.95
9.42
8.09
7.01
6.12
5.34
4.51
3.49
2.14
0.42
-1.67
-4.03
-6.47
-8.78
-10.70
-12.06
-12.84
-13.22
-13.55
-14.25
-15.63
-17.79
-20.57
-23.54
-26.11
-27.64
-27.57
-25.55
-21.60
-16.15
-9.97
-3.99
1.09
4.88
7.42
8.99
9.92
10.43
10.63
10.61
10.49
10.49
10.77
11.38
12.23
13.07
13.71
14.05
14.17
14.22
14.35
14.62
14.95
15.18
15.11
14.55
13.49
11.97
10.21
8.49
7.03
5.97
5.23
4.57
3.75
2.62
1.22
-0.24
-1.52
-2.52
-3.30
-4.09
-5.14
-6.61
-8.47
-10.57
-12.68
-14.61
-16.30
-17.80
-19.27
-20.94
-23.00
-25.47
-28.10
-30.38
-31.64
-31.27
-28.93
-24.71
-19.11
-12.85
-6.72
-1.32
3.03
6.25
8.50
10.07
11.26
12.31
13.38
14.52
15.68
16.77
17.73
18.54
19.19
19.65
19.85
19.72
19.21
18.40
17.50
16.71
16.18
15.88
15.70
15.46
15.06
14.46
13.69
12.80
11.79
10.73
9.72
8.94
8.57
8.64
9.02
9.43
9.56
9.21
8.38
7.20
5.85
4.42
2.88
1.16
-0.80
-2.91
-5.06
-7.10
-8.99
-10.72
-12.39
-14.08
-15.88
-17.85
-20.04
-22.48
-25.06
-27.55
-29.57
-30.68
-30.56
-29.12
-26.57
-23.34
-19.94
-16.82
-14.22
-12.19
-10.53
-8.95
-7.13
-4.87
-2.19
0.70
3.50
5.94
7.93
9.60
11.19
12.93
14.89
16.94
18.80
20.22
21.05
21.37
21.32
21.09
20.76
20.31
19.61
18.59
17.26
15.74
14.21
12.85
11.72
10.78
9.84
8.71
7.28
5.60
3.82
2.17
0.75
-0.51
-1.79
-3.31
-5.09
-7.01
-8.81
-10.25
-11.22
-11.82
-12.30
-12.95
-14.01
-15.60
-17.74
-20.20
-22.60
-24.36
-24.90
-23.79
-20.87
-16.38
-10.89
-5.12
0.23
4.62
7.80
9.78
10.81
11.23
11.32
11.27
11.11
10.86
10.56
10.36
10.47
10.97
11.80
12.75
13.54
14.02
14.21
14.31
14.50
14.82
15.12
15.09
14.49
13.30
11.72
10.06
8.60
7.39
6.32
5.14
3.71
2.04
0.31
-1.22
-2.38
-3.15
-3.64
-4.09
-4.75
-5.78
-7.21
-8.94
-10.71
-12.28
-13.51
-14.42
-15.26
-16.33
-17.88
-19.94
-22.36
-24.77
-26.82
-28.12
-28.36
-27.31
-24.84
-21.02
-16.12
-10.67
-5.29
-0.55
3.19
5.85
7.63
8.86
9.92
11.06
12.36
13.71
14.93
15.82
16.27
16.28
16.00
15.60
15.25
15.04
14.92
14.82
14.68
14.46
14.18
13.85
13.46
12.96
12.30
11.44
10.41
9.27
8.09
6.91
5.73
4.47
3.06
1.44
-0.34
-2.10
-3.58
-4.52
-4.85
-4.71
-4.47
-4.54
-5.27
-6.71
-8.66
-10.76
-12.63
-14.08
-15.12
-15.95
-16.85
-18.08
-19.85
-22.15
-24.72
-27.07
-28.57
-28.64
-27.00
-23.72
-19.29
-14.39
-9.67
-5.60
-2.35
0.11
1.92
3.29
4.43
5.59
6.92
8.50
10.22
11.84
13.10
13.85
14.11
14.08
14.01
14.05
14.29
14.65
15.03
15.32
15.49
15.49
15.38
15.19
14.97
14.73
14.43
14.00
13.35
12.45
11.35
10.14
8.88
7.56
6.18
4.79
3.49
2.46
1.76
1.32
0.92
0.32
-0.62
-1.87
-3.24
-4.51
-5.55
-6.35
-7.03
-7.76
-8.73
-10.16
-12.17
-14.72
-17.57
-20.20
-21.99
-22.42
-21.27
-18.72
-15.33
-11.75
-8.58
-6.15
-4.44
-3.26
-2.31
-1.40
-0.42
0.63
1.74
2.87
3.96
4.91
5.59
5.89
5.83
5.59
5.42
5.64
6.32
7.34
8.35
8.99
9.07
8.66
7.99
7.35
6.88
6.55
6.21
5.68
4.88
3.83
2.63
1.43
0.38
-0.42
-0.94
-1.33
-1.79
-2.57
-3.79
-5.44
-7.31
-9.10
-10.56
-11.56
-12.19
-12.62
-13.12
-13.91
-15.12
-16.78
-18.74
-20.65
-22.06
-22.47
-21.52
-19.08
-15.29
-10.60
-5.64
-1.09
2.52
4.92
6.17
6.67
6.89
7.26
7.96
8.95
10.07
11.12
12.02
12.72
13.21
13.45
13.42
13.16
12.77
12.38
12.12
11.99
11.93
11.80
11.51
10.99
10.25
9.31
8.22
7.06
5.90
4.77
3.68
2.52
1.27
-0.02
-1.22
-2.17
-2.82
-3.30
-3.86
-4.72
-5.96
-7.46
-8.98
-10.25
-11.19
-11.86
-12.45
-13.12
-14.00
-15.10
-16.40
-17.85
-19.44
-21.09
-22.57
-23.55
-23.60
-22.38
-19.82
-16.14
-11.81
-7.41
-3.43
-0.14
2.43
4.45
6.15
7.71
9.20
10.58
11.74
12.56
12.99
13.11
13.06
13.08
13.30
13.76
14.39
15.06
15.66
16.08
16.26
16.15
15.70
14.90
13.79
12.47
11.07
9.74
8.56
7.59
6.78
6.04
5.31
4.49
3.54
2.47
1.34
0.27
-0.61
-1.24
-1.63
-1.89
-2.16
-2.54
-3.08
-3.80
-4.69
-5.75
-6.98
-8.38
-9.93
-11.53
-13.08
-14.43
-15.52
-16.40
-17.25
-18.26
-19.60
-21.18
-22.67
-23.53
-23.27
-21.58
-18.56
-14.59
-10.24
-6.00
-2.20
1.05
3.70
5.73
7.12
7.88
8.11
7.99
7.79
7.73
7.99
8.56
9.34
10.10
10.66
10.92
10.89
10.73
10.58
10.54
10.58
10.62
10.49
10.10
9.43
8.53
7.48
6.39
5.32
4.32
3.42
2.58
1.76
0.95
0.15
-0.58
-1.21
-1.74
-2.19
-2.63
-3.10
-3.59
-4.10
-4.63
-5.25
-6.02
-6.98
-8.06
-9.12
-10.04
-10.83
-11.64
-12.68
-14.08
-15.77
-17.44
-18.67
-19.05
-18.36
-16.53
-13.70
-10.12
-6.13
-2.11
1.54
4.49
6.52
7.64
8.06
8.06
7.98
8.01
8.28
8.75
9.38
10.07
10.74
11.33
11.84
12.28
12.69
13.09
13.49
13.79
13.87
13.61
12.94
11.92
10.66
9.33
8.03
6.82
5.68
4.59
3.58
2.72
2.03
1.47
0.88
0.11
-0.95
-2.25
-3.63
-4.89
-5.90
-6.66
-7.25
-7.82
-8.48
-9.33
-10.41
-11.71
-13.16
-14.65
-16.03
-17.21
-18.22
-19.24
-20.46
-21.96
-23.58
-24.93
-25.47
-24.78
-22.71
-19.39
-15.24
-10.72
-6.26
-2.17
1.34
4.12
6.07
7.26
7.92
8.38
8.93
9.70
10.60
11.40
11.89
11.99
11.77
11.40
11.03
10.79
10.72
10.84
11.10
11.40
11.48
11.06
9.90
7.95
5.43
2.79
0.55
-0.82
-1.12
-0.38
1.10
2.90
4.56
5.75
6.32
6.29
5.86
5.29
4.81
4.55
4.50
4.55
4.56
4.36
3.86
3.05
1.99
0.80
-0.36
-1.41
-2.33
-3.19
-4.14
-5.27
-6.62
-8.08
-9.37
-10.17
-10.14
-9.03
-6.73
-3.35
0.83
5.35
9.69
13.34
15.94
17.37
17.71
17.22
16.21
15.03
13.88
12.89
12.10
11.50
11.11
10.90
10.82
10.80
10.67
10.34
9.72
8.88
7.99
7.20
6.63
6.23
5.83
5.26
4.45
3.49
2.58
1.90
1.50
1.24
0.95
0.49
-0.16
-0.82
-1.30
-1.40
-1.00
-0.12
1.15
2.66
4.18
5.48
6.39
6.93
7.36
8.07
9.50
11.94
15.43
19.75
24.41
28.73
32.02
33.80
34.01
33.16
32.13
31.76
32.44
33.77
34.79
34.42
32.15
28.25
23.75
19.87
17.38
16.38
16.27
16.14
15.12
12.63
8.40
2.40
-5.11
-13.69
-22.66
-31.27
-38.80
-44.85
-49.40
-52.79
-55.54
-58.13
-60.91
-64.04
-67.45
-70.89
-73.87
-75.82
-76.10
-74.27
-70.22
-64.23
-56.84
-48.79
-40.78
-33.40
-27.07
-22.00
-18.18
-15.47
-13.65
-12.48
-11.86
-11.79
-12.32
-13.48
-15.20
-17.36
-19.78
-22.26
-24.61
-26.61
-27.97
-28.38
-27.48
-25.11
-21.27
-16.30
-10.74
-5.26
-0.45
3.36
6.19
8.34
10.20
12.08
13.99
15.75
17.09
17.82
18.01
17.96
18.04
18.51
19.42
20.55
21.55
22.09
22.01
21.33
20.20
18.82
17.38
15.98
14.55
12.67
9.63
4.50
-3.50
-14.57
-27.94
-41.92
-54.31
-63.13
-67.24
-66.63
-62.19
-55.24
-47.01
-38.42
-30.10
-22.46
-15.85
-10.49
-6.31
-3.04
-0.19
2.64
5.64
8.73
11.61
13.96
15.50
16.17
16.02
15.37
14.70
14.60
15.63
18.08
21.86
26.42
30.93
34.59
36.92
37.88
37.89
37.52
37.22
37.16
37.15
36.87
36.07
34.80
33.37
32.19
31.59
31.65
32.12
32.59
32.64
32.06
30.84
29.17
27.25
25.17
22.90
20.35
17.44
14.21
10.77
7.31
3.96
0.76
-2.31
-5.28
-8.12
-10.77
-13.09
-15.04
-16.60
-17.86
-18.94
-19.94
-20.99
-22.23
-23.79
-25.71
-27.94
-30.19
-32.16
-33.58
-34.44
-35.00
-35.65
-36.64
-37.83
-38.69
-38.41
-36.31
-32.08
-25.99
-18.72
-11.13
-3.93
2.44
7.88
12.49
16.40
19.74
22.56
24.91
26.86
28.49
29.84
30.89
31.58
31.86
31.77
31.40
30.90
30.39
29.93
29.51
29.04
28.40
27.47
26.16
24.45
22.40
20.15
17.89
15.79
13.95
12.31
10.74
9.06
7.17
5.07
2.81
0.55
-1.57
-3.43
-4.94
-6.11
-7.03
-7.86
-8.74
-9.78
-10.97
-12.28
-13.57
-14.70
-15.62
-16.32
-16.90
-17.51
-18.34
-19.48
-20.93
-22.45
-23.59
-23.80
-22.56
-19.72
-15.49
-10.48
-5.43
-0.98
2.53
5.12
6.97
8.32
9.33
10.09
10.70
11.31
12.08
13.09
14.26
15.32
16.00
16.10
15.68
14.96
14.30
13.98
14.09
14.53
15.02
15.23
14.92
13.97
12.48
10.64
8.70
6.86
5.27
3.95
2.86
1.93
1.11
0.36
-0.35
-1.04
-1.73
-2.39
-2.99
-3.44
-3.75
-3.97
-4.21
-4.66
-5.41
-6.50
-7.81
-9.16
-10.36
-11.33
-12.08
-12.70
-13.32
-14.09
-15.07
-16.27
-17.62
-18.87
-19.74
-19.90
-19.07
-17.10
-14.03
-10.09
-5.65
-1.13
3.07
6.64
9.33
11.05
11.90
12.22
12.48
13.23
14.81
17.19
19.99
22.56
24.35
25.18
25.31
25.37
25.97
27.47
29.82
32.65
35.47
37.72
38.88
38.38
35.61
30.13
22.05
12.34
2.64
-5.38
-10.91
-14.46
-17.69
-22.48
-29.93
-39.71
-50.24
-59.52
-66.12
-69.72
-70.89
-70.51
-69.08
-66.54
-62.46
-56.64
-49.39
-41.54
-34.11
-27.93
-23.41
-20.30
-17.93
-15.49
-12.22
-7.76
-2.06
4.53
11.55
18.48
24.96
30.71
35.48
38.93
40.70
40.44
38.10
33.98
28.76
23.27
18.22
14.03
10.76
8.27
6.36
4.86
3.70
2.80
2.13
1.63
1.31
1.26
1.56
2.22
3.14
4.12
4.97
5.56
5.91
6.14
6.43
6.96
7.79
8.92
10.19
11.35
12.11
12.18
11.44
9.90
7.74
5.24
2.63
0.05
-2.51
-5.10
-7.74
-10.39
-12.93
-15.23
-17.24
-19.01
-20.66
-22.26
-23.72
-24.77
-25.00
-24.07
-21.83
-18.42
-14.22
-9.75
-5.48
-1.73
1.39
3.96
6.15
8.15
10.05
11.84
13.41
14.61
15.31
15.49
15.24
14.76
14.27
13.97
13.98
14.28
14.81
15.41
15.93
16.21
16.15
15.71
14.97
14.00
12.95
11.91
10.96
10.13
9.39
8.66
7.87
6.93
5.86
4.73
3.58
2.47
1.34
0.07
-1.43
-3.17
-5.04
-6.86
-8.44
-9.72
-10.76
-11.65
-12.47
-13.26
-14.03
-14.81
-15.72
-16.96
-18.65
-20.80
-23.17
-25.32
-26.71
-26.89
-25.58
-22.86
-19.04
-14.59
-10.01
-5.71
-1.96
1.11
3.47
5.18
6.41
7.32
8.10
8.81
9.39
9.78
9.92
9.90
9.90
10.10
10.62
11.42
12.33
13.18
13.83
14.24
14.42
14.39
14.15
13.64
12.83
11.74
10.42
9.00
7.57
6.20
4.92
3.78
2.79
1.98
1.34
0.84
0.34
-0.32
-1.28
-2.59
-4.16
-5.83
-7.41
-8.77
-9.89
-10.84
-11.71
-12.57
-13.46
-14.35
-15.23
-16.12
-17.05
-18.11
-19.29
-20.45
-21.31
-21.45
-20.46
-18.10
-14.47
-9.94
-5.10
-0.56
3.27
6.21
8.29
9.66
10.48
10.86
10.89
10.71
10.48
10.35
10.43
10.71
11.06
11.28
11.21
10.79
10.15
9.48
8.98
8.75
8.72
8.72
8.53
8.10
7.47
6.82
6.31
6.00
5.74
5.33
4.59
3.45
2.02
0.55
-0.77
-1.81
-2.56
-3.11
-3.57
-4.00
-4.42
-4.84
-5.31
-5.92
-6.73
-7.74
-8.86
-9.96
-10.96
-11.86
-12.72
-13.71
-14.92
-16.37
-17.94
-19.34
-20.18
-20.00
-18.48
-15.51
-11.34
-6.48
-1.63
2.60
5.82
7.94
9.12
9.66
9.92
10.13
10.48
11.03
11.78
12.66
13.59
14.49
15.27
15.87
16.26
16.44
16.41
16.22
15.92
15.57
15.23
14.86
14.35
13.55
12.38
10.83
9.05
7.24
5.59
4.21
3.10
2.19
1.33
0.43
-0.53
-1.54
-2.56
-3.52
-4.38
-5.08
-5.63
-6.08
-6.55
-7.15
-7.98
-9.06
-10.31
-11.58
-12.69
-13.49
-13.98
-14.30
-14.71
-15.50
-16.84
-18.70
-20.83
-22.81
-24.15
-24.43
-23.40
-21.03
-17.48
-13.12
-8.37
-3.69
0.53
4.02
6.58
8.20
9.02
9.30
9.39
9.57
9.99
10.61
11.23
11.66
11.80
11.74
11.66
11.74
12.02
12.40
12.67
12.66
12.27
11.50
10.47
9.28
8.01
6.70
5.36
3.96
2.48
0.89
-0.78
-2.48
-4.13
-5.70
-7.21
-8.77
-10.45
-12.26
-14.06
-15.67
-16.88
-17.63
-17.99
-18.11
-18.21
-18.42
-18.79
-19.24
-19.65
-19.94
-20.05
-20.05
-20.03
-20.05
-20.01
-19.66
-18.58
-16.39
-12.83
-7.96
-2.12
4.17
10.28
15.68
19.94
22.79
24.13
24.08
22.99
21.33
19.65
18.41
17.86
18.02
18.68
19.55
20.34
20.84
20.91
20.53
19.69
18.41
16.77
14.88
12.94
11.14
9.66
8.50
7.60
6.77
5.84
4.73
3.49
2.27
1.23
0.48
-0.06
-0.54
-1.19
-2.17
-3.53
-5.18
-6.95
-8.66
-10.13
-11.32
-12.24
-13.06
-14.02
-15.36
-17.27
-19.69
-22.28
-24.46
-25.57
-25.12
-22.96
-19.29
-14.64
-9.62
-4.82
-0.61
2.81
5.41
7.31
8.65
9.66
10.55
11.43
12.35
13.23
13.95
14.39
14.56
14.53
14.42
14.30
14.18
14.04
13.87
13.68
13.55
13.47
13.38
13.11
12.49
11.42
9.95
8.23
6.48
4.92
3.61
2.51
1.45
0.30
-1.01
-2.41
-3.80
-5.12
-6.39
-7.73
-9.25
-10.91
-12.50
-13.75
-14.52
-14.94
-15.35
-16.20
-17.72
-19.88
-22.30
-24.43
-25.74
-25.83
-24.51
-21.79
-17.89
-13.17
-8.16
-3.38
0.74
3.95
6.17
7.55
8.30
8.70
9.03
9.56
10.41
11.55
12.79
13.85
14.52
14.76
14.72
14.67
14.80
15.18
15.68
16.10
16.24
16.02
15.44
14.57
13.48
12.31
11.19
10.23
9.51
8.98
8.46
7.75
6.72
5.37
3.88
2.43
1.20
0.15
-0.83
-1.93
-3.26
-4.83
-6.51
-8.12
-9.52
-10.77
-12.05
-13.62
-15.65
-18.03
-20.36
-22.00
-22.34
-20.96
-17.84
-13.37
-8.21
-3.06
1.50
5.13
7.76
9.48
10.47
10.94
11.08
11.04
10.90
10.74
10.59
10.47
10.44
10.56
10.87
11.35
11.91
12.42
12.78
12.92
12.84
12.57
12.12
11.50
10.69
9.67
8.47
7.09
5.59
4.03
2.43
0.84
-0.73
-2.22
-3.59
-4.77
-5.72
-6.45
-7.07
-7.74
-8.68
-9.98
-11.63
-13.51
-15.39
-17.09
-18.56
-19.89
-21.30
-23.01
-25.11
-27.45
-29.63
-30.97
-30.84
-28.80
-24.82
-19.40
-13.35
-7.59
-2.78
0.76
3.15
4.70
5.83
6.85
7.88
8.94
9.94
10.84
11.63
12.33
12.97
13.57
14.15
14.68
15.17
15.65
16.09
16.49
16.80
16.93
16.77
16.22
15.24
13.93
12.41
10.89
9.50
8.28
7.21
6.19
5.12
3.97
2.79
1.62
0.50
-0.56
-1.57
-2.57
-3.60
-4.67
-5.80
-6.98
-8.21
-9.46
-10.71
-11.97
-13.23
-14.52
-15.91
-17.48
-19.39
-21.72
-24.42
-27.17
-29.41
-30.40
-29.55
-26.62
-21.86
-15.94
-9.71
-3.98
0.76
4.35
6.90
8.71
10.09
11.26
12.34
13.32
14.15
14.77
15.16
15.40
15.58
15.82
16.18
16.65
17.14
17.52
17.67
17.52
17.09
16.48
15.78
15.05
14.31
13.48
12.50
11.38
10.20
9.11
8.19
7.39
6.55
5.53
4.27
2.92
1.78
1.07
0.91
1.15
1.51
1.64
1.32
0.54
-0.53
-1.60
-2.43
-2.90
-3.06
-3.09
-3.27
-3.83
-4.89
-6.42
-8.21
-9.99
-11.50
-12.55
-13.13
-13.41
-13.75
-14.61
-16.35
-19.05
-22.35
-25.49
-27.53
-27.67
-25.56
-21.47
-16.11
-10.42
-5.20
-0.92
2.34
4.75
6.56
7.99
9.17
10.16
10.98
11.66
12.19
12.57
12.81
12.95
13.06
13.21
13.47
13.85
14.35
14.85
15.23
15.32
14.95
14.08
12.77
11.26
9.81
8.62
7.74
7.04
6.32
5.38
4.15
2.70
1.12
-0.46
-2.03
-3.57
-5.06
-6.50
-7.84
-9.04
-10.11
-11.07
-11.98
-12.92
-14.00
-15.35
-17.08
-19.23
-21.72
-24.32
-26.62
-28.12
-28.33
-26.91
-23.81
-19.31
-14.00
-8.57
-3.67
0.37
3.53
6.05
8.24
10.22
11.96
13.27
14.00
14.19
14.12
14.11
14.40
15.00
15.69
16.21
16.38
16.22
15.90
15.59
15.37
15.17
14.89
14.42
13.74
12.88
11.90
10.84
9.72
8.57
7.38
6.16
4.90
3.64
2.39
1.18
0.01
-1.18
-2.46
-3.90
-5.53
-7.28
-8.99
-10.54
-11.88
-13.12
-14.45
-16.09
-18.15
-20.64
-23.39
-26.15
-28.56
-30.21
-30.69
-29.63
-26.85
-22.37
-16.58
-10.12
-3.81
1.59
5.59
8.11
9.41
10.01
10.41
10.97
11.83
12.93
14.10
15.20
16.11
16.84
17.36
17.68
17.79
17.67
17.37
16.97
16.59
16.37
16.35
16.45
16.47
16.17
15.35
13.95
12.14
10.16
8.31
6.75
5.50
4.44
3.42
2.32
1.11
-0.17
-1.49
-2.88
-4.44
-6.26
-8.35
-10.57
-12.71
-14.57
-16.09
-17.40
-18.71
-20.25
-22.18
-24.56
-27.38
-30.52
-33.76
-36.68
-38.73
-39.29
-37.95
-34.64
-29.72
-23.83
-17.70
-11.87
-6.63
-2.05
1.96
5.48
8.62
11.50
14.23
16.96
19.72
22.45
24.96
27.10
28.76
29.99
30.88
31.49
31.82
31.78
31.35
30.59
29.71
28.92
28.35
27.95
27.51
26.84
25.81
24.49
23.04
21.64
20.37
19.18
17.99
16.74
15.45
14.28
13.35
12.68
12.13
11.31
9.77
7.11
3.18
-1.75
-7.07
-11.95
-15.65
-17.67
-17.91
-16.65
-14.37
-11.66
-8.96
-6.46
-4.08
-1.57
1.33
4.71
8.35
11.84
14.66
16.55
17.49
17.79
17.83
17.95
18.31
18.95
19.77
20.40
20.11
17.95
13.13
5.61
-3.58
-12.52
-19.15
-22.14
-21.52
-18.62
-15.32
-13.15
-12.70
-13.61
-15.09
-16.52
-17.78
-19.14
-20.88
-22.90
-24.73
-25.67
-25.25
-23.42
-20.77
-18.21
-16.62
-16.53
-17.93
-20.37
-23.21
-26.01
-28.76
-31.83
-35.82
-41.14
-47.74
-54.98
-61.69
-66.50
-68.22
-66.13
-60.24
-51.21
-40.17
-28.39
-17.03
-6.92
1.48
8.02
12.77
15.97
17.87
18.65
18.30
16.61
13.23
7.90
0.80
-7.30
-15.11
-21.18
-24.45
-24.57
-21.99
-17.60
-12.28
-6.57
-0.58
5.77
12.48
19.28
25.66
31.07
35.20
38.07
40.01
41.49
42.81
44.04
44.98
45.38
45.09
44.21
43.05
41.89
40.82
39.66
38.05
35.61
32.19
27.90
23.07
18.06
13.10
8.23
3.36
-1.64
-6.84
-12.22
-17.56
-22.49
-26.50
-29.06
-29.80
-28.61
-25.72
-21.66
-17.11
-12.74
-9.07
-6.42
-4.86
-4.23
-4.19
-4.37
-4.38
-4.06
-3.39
-2.52
-1.63
-0.84
-0.18
0.43
1.06
1.79
2.70
3.85
5.27
6.92
8.62
10.03
10.81
10.70
9.64
7.79
5.48
3.10
0.99
-0.64
-1.75
-2.43
-2.87
-3.35
-4.10
-5.23
-6.67
-8.23
-9.69
-10.89
-11.82
-12.64
-13.57
-14.78
-16.39
-18.32
-20.34
-22.02
-22.87
-22.40
-20.34
-16.75
-12.01
-6.79
-1.74
2.57
5.92
8.31
9.89
10.89
11.45
11.72
11.79
11.77
11.78
11.87
12.10
12.46
12.88
13.30
13.66
13.92
14.10
14.19
14.19
14.09
13.87
13.54
13.13
12.67
12.13
11.44
10.48
9.17
7.54
5.71
3.82
2.00
0.29
-1.31
-2.86
-4.38
-5.90
-7.41
-8.88
-10.28
-11.55
-12.68
-13.67
-14.64
-15.77
-17.22
-19.06
-21.16
-23.17
-24.56
-24.80
-23.50
-20.54
-16.17
-10.98
-5.70
-1.00
2.72
5.37
7.14
8.33
9.23
10.01
10.72
11.36
11.94
12.51
13.09
13.71
14.35
14.93
15.39
15.67
15.70
15.50
15.10
14.56
13.93
13.27
12.55
11.74
10.78
9.61
8.21
6.61
4.88
3.15
1.53
0.12
-1.11
-2.25
-3.45
-4.85
-6.45
-8.14
-9.66
-10.82
-11.56
-12.05
-12.64
-13.75
-15.59
-18.07
-20.78
-23.09
-24.40
-24.27
-22.59
-19.55
-15.54
-11.04
-6.52
-2.38
1.17
3.99
6.08
7.52
8.46
9.04
9.40
9.64
9.84
10.06
10.29
10.58
10.93
11.37
11.90
12.50
13.07
13.47
13.61
13.43
12.93
12.17
11.18
10.00
8.62
7.07
5.43
3.82
2.34
0.99
-0.32
-1.76
-3.39
-5.16
-6.87
-8.29
-9.28
-9.86
-10.25
-10.71
-11.50
-12.71
-14.34
-16.20
-18.03
-19.45
-20.12
-19.72
-18.07
-15.23
-11.49
-7.33
-3.28
0.21
2.88
4.72
5.89
6.65
7.19
7.56
7.73
7.60
7.15
6.49
5.79
5.25
5.01
5.06
5.36
5.84
6.43
7.10
7.79
8.43
8.86
8.97
8.64
7.85
6.67
5.26
3.84
2.61
1.67
0.96
0.29
-0.62
-1.95
-3.69
-5.63
-7.48
-8.98
-10.03
-10.77
-11.44
-12.37
-13.79
-15.79
-18.22
-20.69
-22.67
-23.57
-22.99
-20.82
-17.33
-13.04
-8.57
-4.42
-0.91
1.88
3.98
5.48
6.51
7.20
7.71
8.21
8.78
9.46
10.17
10.78
11.19
11.38
11.36
11.21
10.98
10.70
10.40
10.16
10.05
10.16
10.48
10.94
11.37
11.60
11.54
11.21
10.67
10.02
9.33
8.62
7.88
7.08
6.20
5.23
4.12
2.85
1.41
-0.18
-1.86
-3.56
-5.17
-6.61
-7.76
-8.61
-9.27
-9.94
-10.95
-12.53
-14.72
-17.22
-19.41
-20.59
-20.21
-18.08
-14.56
-10.31
-6.13
-2.64
-0.10
1.57
2.69
3.61
4.56
5.66
6.83
7.94
8.90
9.66
10.22
10.60
10.84
10.97
11.07
11.21
11.47
11.86
12.29
12.60
12.61
12.28
11.67
10.96
10.34
9.81
9.27
8.50
7.38
5.94
4.37
2.89
1.67
0.71
-0.12
-0.96
-1.93
-2.99
-4.11
-5.26
-6.47
-7.78
-9.18
-10.59
-11.86
-12.91
-13.79
-14.68
-15.79
-17.26
-18.98
-20.61
-21.65
-21.61
-20.16
-17.27
-13.26
-8.70
-4.25
-0.53
2.11
3.64
4.29
4.45
4.52
4.77
5.28
5.99
6.73
7.36
7.82
8.14
8.39
8.64
8.89
9.14
9.37
9.59
9.77
9.87
9.79
9.40
8.59
7.33
5.70
3.87
2.03
0.35
-1.07
-2.22
-3.19
-4.08
-5.04
-6.14
-7.36
-8.63
-9.86
-11.03
-12.20
-13.45
-14.83
-16.19
-17.25
-17.62
-16.91
-14.96
-11.89
-8.08
-4.15
-0.74
1.68
2.94
3.20
2.87
2.40
2.19
2.42
3.09
4.07
5.23
6.44
7.61
8.62
9.38
9.85
10.06
10.19
10.41
10.87
11.55
12.30
12.88
13.10
12.89
12.30
11.40
10.32
9.15
7.98
6.89
5.91
4.99
4.00
2.77
1.22
-0.60
-2.55
-4.43
-6.11
-7.55
-8.83
-10.02
-11.23
-12.52
-13.91
-15.44
-17.17
-19.08
-21.06
-22.80
-23.90
-23.89
-22.47
-19.62
-15.63
-11.03
-6.41
-2.25
1.17
3.84
5.87
7.44
8.71
9.76
10.62
11.23
11.56
11.61
11.51
11.43
11.55
11.90
12.37
12.73
12.82
12.62
12.29
12.05
12.04
12.22
12.45
12.52
12.27
11.68
10.80
9.71
8.47
7.15
5.76
4.39
3.11
2.00
1.08
0.31
-0.44
-1.29
-2.34
-3.60
-4.94
-6.20
-7.24
-8.00
-8.58
-9.14
-9.89
-10.99
-12.54
-14.54
-16.87
-19.20
-21.01
-21.69
-20.75
-18.05
-13.92
-9.07
-4.36
-0.48
2.28
4.00
5.01
5.60
5.95
6.11
6.10
6.02
6.04
6.36
7.03
7.97
8.96
9.77
10.27
10.46
10.43
10.31
10.16
10.01
9.83
9.54
9.04
8.21
6.99
5.39
3.54
1.68
0.02
-1.30
-2.28
-3.05
-3.80
-4.65
-5.63
-6.66
-7.61
-8.39
-8.96
-9.47
-10.16
-11.29
-13.09
-15.52
-18.29
-20.85
-22.53
-22.83
-21.50
-18.67
-14.75
-10.24
-5.65
-1.39
2.21
4.90
6.54
7.18
7.06
6.58
6.12
5.94
6.08
6.44
6.84
7.21
7.57
8.01
8.56
9.17
9.73
10.13
10.32
10.35
10.26
10.04
9.61
8.83
7.60
5.97
4.08
2.21
0.58
-0.68
-1.63
-2.42
-3.23
-4.17
-5.27
-6.45
-7.62
-8.72
-9.76
-10.83
-12.03
-13.50
-15.35
-17.56
-19.95
-22.13
-23.56
-23.66
-22.11
-18.94
-14.55
-9.66
-4.97
-1.00
2.05
4.28
5.96
7.32
8.49
9.49
10.23
10.66
10.81
10.79
10.81
11.02
11.49
12.13
12.74
13.11
13.11
12.77
12.27
11.80
11.49
11.31
11.14
10.82
10.26
9.43
8.37
7.12
5.70
4.11
2.44
0.79
-0.66
-1.81
-2.69
-3.43
-4.22
-5.20
-6.39
-7.72
-9.06
-10.33
-11.53
-12.80
-14.29
-16.12
-18.30
-20.66
-22.84
-24.38
-24.77
-23.61
-20.77
-16.44
-11.20
-5.79
-0.95
2.79
5.26
6.68
7.47
8.07
8.76
9.58
10.37
10.93
11.15
11.06
10.78
10.47
10.25
10.18
10.27
10.55
11.01
11.62
12.23
12.61
12.52
11.79
10.48
8.79
7.08
5.66
4.65
3.99
3.44
2.71
1.62
0.13
-1.63
-3.46
-5.21
-6.83
-8.34
-9.84
-11.42
-13.16
-15.11
-17.22
-19.31
-21.00
-21.82
-21.29
-19.12
-15.41
-10.60
-5.40
-0.61
3.20
5.75
7.11
7.66
7.84
8.03
8.41
8.92
9.34
9.48
9.25
8.81
8.45
8.41
8.79
9.41
9.98
10.22
10.01
9.40
8.59
7.78
7.03
6.31
5.49
4.44
3.09
1.51
-0.25
-2.03
-3.74
-5.27
-6.57
-7.64
-8.55
-9.42
-10.41
-11.68
-13.35
-15.41
-17.71
-19.86
-21.33
-21.58
-20.19
-17.14
-12.76
-7.70
-2.73
1.53
4.72
6.86
8.17
9.03
9.72
10.44
11.19
11.91
12.44
12.75
12.90
13.02
13.29
13.73
14.27
14.71
14.90
14.83
14.63
14.47
14.40
14.33
14.06
13.40
12.33
10.99
9.61
8.39
7.32
6.31
5.20
3.89
2.43
0.97
-0.35
-1.47
-2.43
-3.40
-4.54
-5.96
-7.65
-9.48
-11.24
-12.72
-13.83
-14.65
-15.44
-16.62
-18.54
-21.34
-24.81
-28.32
-31.02
-32.12
-31.08
-27.88
-22.96
-17.08
-11.06
-5.58
-0.96
2.71
5.54
7.65
9.14
10.07
10.55
10.79
11.05
11.57
12.46
13.58
14.68
15.49
15.85
15.84
15.69
15.70
16.01
16.54
17.05
17.25
16.93
16.09
14.88
13.52
12.17
10.87
9.60
8.30
6.99
5.70
4.49
3.39
2.35
1.34
0.35
-0.63
-1.55
-2.42
-3.37
-4.56
-6.17
-8.21
-10.54
-12.83
-14.76
-16.13
-17.02
-17.73
-18.68
-20.25
-22.53
-25.21
-27.69
-29.17
-28.94
-26.61
-22.26
-16.43
-9.98
-3.82
1.34
5.17
7.71
9.22
10.04
10.37
10.36
10.11
9.81
9.69
9.96
10.71
11.79
12.95
13.90
14.49
14.79
14.95
15.16
15.48
15.82
16.00
15.85
15.33
14.47
13.41
12.27
11.07
9.74
8.17
6.31
4.30
2.39
0.90
0.03
-0.31
-0.43
-0.81
-1.78
-3.45
-5.57
-7.71
-9.40
-10.38
-10.63
-10.44
-10.21
-10.44
-11.46
-13.47
-16.34
-19.63
-22.64
-24.54
-24.60
-22.43
-18.13
-12.27
-5.77
0.40
5.42
8.83
10.55
10.87
10.28
9.34
8.55
8.20
8.38
8.99
9.81
10.64
11.34
11.89
12.31
12.66
12.97
13.24
13.46
13.57
13.47
13.04
12.15
10.75
8.95
6.97
5.13
3.65
2.62
1.89
1.16
0.14
-1.38
-3.42
-5.84
-8.39
-10.79
-12.84
-14.44
-15.67
-16.70
-17.76
-19.06
-20.72
-22.63
-24.51
-25.85
-26.11
-24.84
-21.88
-17.41
-11.96
-6.25
-0.97
3.38
6.63
8.90
10.42
11.46
12.23
12.84
13.36
13.78
14.04
14.11
13.96
13.66
13.37
13.29
13.53
14.10
14.82
15.43
15.68
15.47
14.89
14.12
13.34
12.60
11.81
10.80
9.42
7.60
5.45
3.15
0.93
-0.98
-2.45
-3.49
-4.25
-4.97
-5.89
-7.15
-8.72
-10.41
-11.93
-13.12
-14.02
-14.89
-16.13
-18.02
-20.64
-23.72
-26.72
-28.97
-29.82
-28.82
-25.80
-20.98
-14.88
-8.25
-1.92
3.42
7.36
9.80
10.97
11.29
11.23
11.21
11.47
12.05
12.83
13.62
14.24
14.64
14.86
15.06
15.38
15.87
16.47
17.00
17.29
17.22
16.76
15.96
14.90
13.69
12.37
10.96
9.47
7.96
6.47
5.11
3.92
2.95
2.16
1.47
0.78
0.04
-0.80
-1.71
-2.69
-3.76
-4.97
-6.41
-8.10
-9.95
-11.75
-13.30
-14.44
-15.22
-15.87
-16.75
-18.22
-20.43
-23.27
-26.25
-28.65
-29.73
-28.91
-26.02
-21.35
-15.52
-9.34
-3.57
1.30
5.05
7.71
9.51
10.68
11.48
12.09
12.60
13.04
13.38
13.60
13.70
13.78
13.92
14.20
14.56
14.88
15.06
14.98
14.69
14.24
13.72
13.14
12.44
11.53
10.37
8.98
7.43
5.87
4.44
3.24
2.27
1.47
0.72
-0.09
-1.00
-1.99
-2.94
-3.76
-4.39
-4.87
-5.30
-5.80
-6.47
-7.39
-8.56
-9.97
-11.54
-13.08
-14.41
-15.41
-16.12
-16.82
-17.90
-19.67
-22.16
-25.03
-27.62
-29.11
-28.87
-26.64
-22.58
-17.22
-11.28
-5.47
-0.30
3.88
6.99
9.03
10.12
10.48
10.37
10.05
9.76
9.62
9.71
10.01
10.52
11.20
11.97
12.74
13.42
13.97
14.42
14.81
15.11
15.22
14.94
14.14
12.85
11.32
9.83
8.60
7.70
6.99
6.30
5.48
4.48
3.27
1.90
0.40
-1.07
-2.29
-3.03
-3.24
-3.12
-3.12
-3.70
-5.09
-7.12
-9.31
-11.11
-12.16
-12.50
-12.51
-12.73
-13.62
-15.35
-17.74
-20.35
-22.60
-23.90
-23.78
-22.01
-18.63
-13.99
-8.63
-3.23
1.63
5.51
8.23
9.81
10.43
10.35
9.84
9.11
8.36
7.76
7.42
7.43
7.80
8.43
9.14
9.73
10.11
10.31
10.46
10.66
10.94
11.12
10.95
10.22
8.90
7.13
5.20
3.38
1.84
0.61
-0.38
-1.33
-2.41
-3.76
-5.39
-7.16
-8.83
-10.17
-11.06
-11.63
-12.18
-13.06
-14.56
-16.71
-19.29
-21.85
-23.82
-24.61
-23.75
-21.08
-16.75
-11.30
-5.48
-0.04
4.47
7.79
9.97
11.17
11.58
11.34
10.61
9.62
8.69
8.16
8.20
8.76
9.56
10.23
10.54
10.49
10.29
10.20
10.35
10.63
10.76
10.49
9.70
8.50
7.08
5.59
4.06
2.41
0.61
-1.27
-3.04
-4.52
-5.69
-6.66
-7.64
-8.80
-10.17
-11.62
-12.99
-14.22
-15.44
-16.93
-18.97
-21.61
-24.56
-27.22
-28.80
-28.70
-26.66
-22.83
-17.79
-12.17
-6.60
-1.47
2.97
6.60
9.30
11.02
11.81
11.84
11.44
10.98
10.77
10.95
11.50
12.26
13.03
13.64
14.00
14.16
14.23
14.34
14.57
14.92
15.29
15.53
15.45
14.89
13.79
12.19
10.19
7.98
5.75
3.68
1.85
0.29
-1.11
-2.50
-4.01
-5.75
-7.70
-9.77
-11.76
-13.50
-14.91
-16.05
-17.09
-18.35
-20.07
-22.39
-25.20
-28.07
-30.29
-31.10
-29.90
-26.50
-21.21
-14.71
-7.91
-1.62
3.60
7.51
10.12
11.63
12.29
12.44
12.39
12.46
12.86
13.68
14.84
16.17
17.45
18.50
19.22
19.56
19.56
19.28
18.83
18.30
17.79
17.36
17.02
16.69
16.25
15.56
14.51
13.07
11.33
9.45
7.59
5.89
4.41
3.15
2.06
1.07
0.09
-0.98
-2.23
-3.69
-5.35
-7.10
-8.81
-10.38
-11.79
-13.15
-14.62
-16.39
-18.59
-21.27
-24.28
-27.29
-29.76
-31.03
-30.51
-27.90
-23.36
-17.47
-11.08
-5.03
0.06
3.93
6.66
8.46
9.57
10.19
10.45
10.49
10.49
10.60
10.91
11.42
12.05
12.66
13.16
13.56
13.96
14.46
15.10
15.84
16.50
16.85
16.71
16.01
14.81
13.28
11.58
9.86
8.17
6.49
4.80
3.04
1.24
-0.59
-2.38
-4.10
-5.73
-7.27
-8.68
-9.97
-11.20
-12.49
-14.10
-16.21
-18.84
-21.69
-24.10
-25.20
-24.29
-21.10
-15.97
-9.75
-3.53
1.83
5.87
8.65
10.54
11.88
12.86
13.44
13.51
13.07
12.30
11.53
11.08
11.11
11.55
12.22
12.90
13.48
13.98
14.46
14.98
15.48
15.78
15.68
15.00
13.67
11.81
9.61
7.33
5.22
3.42
1.93
0.64
-0.63
-2.08
-3.81
-5.81
-7.96
-10.07
-11.95
-13.44
-14.52
-15.33
-16.13
-17.31
-19.18
-21.87
-25.15
-28.46
-31.00
-31.96
-30.84
-27.56
-22.53
-16.43
-10.01
-3.95
1.29
5.46
8.48
10.45
11.64
12.43
13.18
14.16
15.40
16.78
18.05
19.02
19.62
19.88
19.90
19.78
19.60
19.45
19.41
19.52
19.77
20.05
20.12
19.78
18.88
17.45
15.67
13.83
12.17
10.79
9.67
8.67
7.63
6.48
5.21
3.89
2.60
1.31
0.01
-1.32
-2.62
-3.80
-4.80
-5.64
-6.50
-7.58
-9.04
-10.88
-12.95
-15.02
-16.85
-18.30
-19.39
-20.31
-21.29
-22.61
-24.49
-27.01
-29.98
-32.92
-35.14
-35.80
-34.32
-30.50
-24.74
-17.88
-10.94
-4.80
0.05
3.54
5.95
7.67
9.06
10.36
11.73
13.18
14.63
15.92
16.89
17.46
17.68
17.67
17.59
17.56
17.63
17.78
18.01
18.25
18.47
18.55
18.34
17.72
16.65
15.21
13.56
11.89
10.38
9.14
8.16
7.42
6.83
6.28
5.65
4.85
3.81
2.50
0.96
-0.72
-2.37
-3.80
-4.88
-5.58
-6.05
-6.54
-7.29
-8.50
-10.16
-12.14
-14.20
-16.10
-17.67
-18.87
-19.81
-20.78
-22.10
-23.99
-26.35
-28.70
-30.24
-30.08
-27.65
-22.95
-16.57
-9.53
-2.87
2.65
6.71
9.43
11.13
12.11
12.52
12.48
12.06
11.49
11.04
10.96
11.41
12.33
13.52
14.71
15.71
16.42
16.84
17.05
17.11
17.03
16.77
16.29
15.55
14.54
13.33
11.98
10.59
9.23
7.95
6.75
5.58
4.38
3.08
1.67
0.21
-1.13
-2.17
-2.83
-3.17
-3.39
-3.74
-4.40
-5.37
-6.51
-7.62
-8.62
-9.53
-10.48
-11.58
-12.87
-14.31
-15.80
-17.36
-19.05
-20.96
-23.03
-24.93
-26.11
-25.93
-23.93
-20.06
-14.73
-8.72
-2.91
2.03
5.73
8.20
9.65
10.32
10.41
10.06
9.44
8.80
8.43
8.57
9.27
10.39
11.66
12.77
13.54
13.92
13.96
13.80
13.55
13.28
12.97
12.59
12.06
11.33
10.35
9.12
7.70
6.18
4.69
3.29
2.02
0.85
-0.25
-1.34
-2.43
-3.54
-4.65
-5.78
-6.93
-8.13
-9.39
-10.70
-11.99
-13.16
-14.11
-14.83
-15.39
-15.94
-16.78
-18.12
-20.07
-22.45
-24.85
-26.61
-27.08
-25.81
-22.72
-18.14
-12.70
-7.14
-2.07
2.16
5.48
8.01
9.90
11.28
12.17
12.53
12.41
11.91
11.27
10.79
10.66
10.92
11.46
12.01
12.40
12.54
12.56
12.63
12.87
13.22
13.47
13.35
12.71
11.63
10.36
9.14
8.11
7.18
6.15
4.85
3.27
1.58
0.05
-1.15
-2.02
-2.69
-3.36
-4.20
-5.25
-6.45
-7.68
-8.84
-9.88
-10.81
-11.68
-12.53
-13.42
-14.39
-15.51
-16.88
-18.62
-20.79
-23.30
-25.81
-27.77
-28.48
-27.35
-24.19
-19.29
-13.40
-7.46
-2.27
1.80
4.77
6.93
8.59
9.89
10.84
11.40
11.63
11.76
12.00
12.52
13.30
14.17
14.95
15.52
15.90
16.13
16.26
16.27
16.12
15.77
15.22
14.50
13.66
12.70
11.65
10.53
9.39
8.28
7.26
6.32
5.40
4.40
3.24
1.91
0.49
-0.89
-2.11
-3.12
-3.97
-4.77
-5.64
-6.62
-7.71
-8.84
-9.94
-10.94
-11.86
-12.76
-13.75
-14.98
-16.61
-18.71
-21.22
-23.81
-25.94
-26.97
-26.34
-23.77
-19.45
-13.93
-8.03
-2.57
1.85
5.01
7.01
8.21
8.94
9.46
9.86
10.11
10.12
9.88
9.46
9.00
8.67
8.57
8.72
9.08
9.56
10.11
10.68
11.24
11.72
11.99
11.88
11.29
10.21
8.75
7.11
5.51
4.09
2.89
1.88
0.94
-0.02
-1.03
-2.08
-3.13
-4.17
-5.20
-6.23
-7.25
-8.22
-9.13
-9.99
-10.92
-12.06
-13.53
-15.37
-17.50
-19.70
-21.67
-22.98
-23.23
-22.11
-19.51
-15.63
-10.91
-5.95
-1.29
2.68
5.76
7.93
9.23
9.82
9.88
9.69
9.50
9.46
9.54
9.61
9.54
9.38
9.28
9.47
10.03
10.85
11.65
12.14
12.15
11.69
10.88
9.90
8.82
7.64
6.30
4.77
3.09
1.40
-0.13
-1.34
-2.14
-2.64
-3.03
-3.60
-4.57
-6.03
-7.88
-9.89
-11.79
-13.35
-14.47
-15.22
-15.80
-16.48
-17.55
-19.15
-21.27
-23.68
-25.88
-27.30
-27.34
-25.63
-22.17
-17.32
-11.73
-6.14
-1.17
2.86
5.85
7.97
9.43
10.48
11.32
12.09
12.86
13.61
14.29
14.83
15.24
15.57
15.92
16.34
16.83
17.26
17.53
17.57
17.41
17.07
16.54
15.73
14.57
13.07
11.38
9.77
8.45
7.48
6.69
5.80
4.57
2.95
1.12
-0.68
-2.23
-3.53
-4.72
-6.01
-7.54
-9.27
-11.04
-12.71
-14.19
-15.60
-17.11
-18.88
-21.00
-23.36
-25.70
-27.62
-28.64
-28.34
-26.41
-22.87
-18.02
-12.45
-6.83
-1.74
2.48
5.76
8.17
9.88
11.01
11.67
12.01
12.17
12.29
12.47
12.71
13.00
13.31
13.66
14.10
14.66
15.28
15.87
16.30
16.52
16.53
16.36
15.99
15.37
14.45
13.23
11.84
10.50
9.37
8.49
7.70
6.77
5.52
3.96
2.27
0.78
-0.28
-0.86
-1.18
-1.56
-2.32
-3.60
-5.35
-7.31
-9.14
-10.62
-11.73
-12.70
-13.83
-15.43
-17.57
-20.08
-22.52
-24.35
-25.01
-24.11
-21.51
-17.39
-12.22
-6.62
-1.24
3.38
6.96
9.46
11.02
11.86
12.20
12.21
12.03
11.81
11.67
11.74
12.05
12.62
13.35
14.13
14.84
15.36
15.67
15.78
15.80
15.83
15.90
15.94
15.76
15.16
14.00
12.31
10.31
8.31
6.57
5.24
4.29
3.57
2.87
2.05
1.04
-0.16
-1.45
-2.71
-3.83
-4.74
-5.49
-6.21
-7.08
-8.20
-9.56
-11.06
-12.55
-13.89
-15.07
-16.19
-17.38
-18.81
-20.58
-22.72
-25.13
-27.59
-29.66
-30.79
-30.39
-28.07
-23.79
-17.98
-11.42
-5.01
0.43
4.46
7.06
8.54
9.37
9.97
10.61
11.33
12.06
12.71
13.26
13.79
14.40
15.15
15.96
16.69
17.16
17.29
17.15
16.90
16.67
16.55
16.49
16.33
15.93
15.17
14.05
12.64
11.07
9.52
8.11
6.94
6.01
5.27
4.69
4.18
3.70
3.17
2.50
1.63
0.52
-0.76
-2.07
-3.28
-4.35
-5.31
-6.27
-7.34
-8.53
-9.77
-10.93
-11.90
-12.77
-13.74
-15.08
-17.00
-19.49
-22.26
-24.82
-26.55
-26.94
-25.68
-22.76
-18.44
-13.21
-7.66
-2.39
2.15
5.66
8.05
9.46
10.15
10.45
10.63
10.87
11.24
11.73
12.32
13.02
13.86
14.84
15.94
17.06
18.04
18.74
19.16
19.44
19.82
20.48
21.42
22.43
23.23
23.59
23.49
23.14
22.84
22.81
23.12
23.67
24.40
25.31
26.49
28.06
29.95
32.00
33.93
35.57
36.97
38.37
40.08
42.34
45.15
48.22
51.08
53.21
54.19
53.75
51.83
48.55
44.18
39.16
34.18
30.07
27.70
27.73
30.36
35.26
41.65
48.62
55.38
61.32
65.92
68.62
68.79
65.90
59.77
50.73
39.55
27.15
14.28
1.40
-11.28
-23.58
-35.27
-45.99
-55.41
-63.27
-69.31
-73.29
-74.88
-73.95
-70.80
-66.34
-61.96
-59.20
-59.11
-61.88
-66.74
-72.19
-76.65
-78.99
-78.96
-77.11
-74.45
-72.01
-70.39
-69.67
-69.50
-69.35
-68.76
-67.43
-65.32
-62.60
-59.66
-57.01
-55.03
-53.71
-52.37
-49.76
-44.37
-35.08
-21.68
-5.03
13.15
30.78
46.11
58.10
66.77
73.08
78.66
84.96
92.50
100.44
106.86
109.82
108.60
104.43
100.10
98.77
102.37
110.82
122.07
132.94
140.12
140.89
133.37
116.54
90.43
56.29
16.44
-26.16
-69.04
-111.26
-153.96
-199.57
-249.92
-304.07
-357.05
-400.50
-425.18
-424.54
-397.46
-348.94
-288.33
-225.86
-169.38
-122.69
-86.03
-57.73
-36.00
-19.66
-7.84
0.71
7.97
16.27
27.28
41.30
57.10
72.22
84.09
91.12
93.22
91.72
88.70
86.11
85.12
85.89
88.04
91.09
94.87
99.34
104.11
107.92
108.55
103.27
89.75
67.08
36.30
0.37
-36.52
-70.05
-96.92
-115.69
-127.33
-134.93
-142.87
-155.40
-174.88
-200.64
-228.69
-252.69
-265.91
-263.40
-243.60
-208.74
-163.91
-115.36
-68.69
-27.71
5.95
32.46
52.93
68.60
80.27
88.23
92.77
94.50
94.58
94.52
95.45
97.64
100.33
102.14
101.81
98.84
93.59
86.99
80.07
73.45
67.34
61.76
56.78
52.68
49.88
48.75
49.43
51.72
55.02
58.53
61.40
63.08
63.46
62.99
62.46
62.70
64.18
66.79
69.92
72.72
74.44
74.68
73.42
70.86
67.23
62.60
56.89
50.01
41.96
33.00
23.60
14.37
5.95
-1.19
-6.79
-10.81
-13.44
-14.92
-15.49
-15.34
-14.51
-12.99
-10.75
-7.77
-4.07
0.31
5.23
10.46
15.64
20.30
24.02
26.52
27.78
27.98
27.38
26.20
24.62
22.73
20.70
18.73
17.05
15.77
14.86
14.13
13.34
12.31
11.02
9.61
8.31
7.46
7.40
8.38
10.42
13.29
16.40
19.02
20.48
20.43
19.02
16.77
14.36
12.29
10.72
9.55
8.50
7.42
6.31
5.34
4.70
4.46
4.58
4.89
5.21
5.44
5.60
5.74
5.89
5.99
5.87
5.33
4.21
2.48
0.24
-2.35
-5.16
-8.18
-11.55
-15.38
-19.68
-24.19
-28.44
-31.84
-33.84
-34.12
-32.58
-29.43
-25.02
-19.83
-14.35
-8.98
-4.10
0.08
3.46
6.03
7.83
8.93
9.38
9.30
8.83
8.16
7.53
7.10
6.95
7.03
7.22
7.34
7.26
6.88
6.15
5.08
3.72
2.13
0.44
-1.27
-2.94
-4.66
-6.56
-8.74
-11.19
-13.76
-16.19
-18.19
-19.49
-19.86
-19.15
-17.29
-14.34
-10.49
-6.13
-1.76
2.09
5.00
6.79
7.53
7.49
7.01
6.36
5.73
5.21
4.80
4.54
4.48
4.65
5.05
5.53
5.89
5.94
5.59
4.89
3.93
2.81
1.53
0.06
-1.61
-3.40
-5.12
-6.58
-7.67
-8.46
-9.18
-10.15
-11.60
-13.58
-15.92
-18.22
-19.89
-20.38
-19.30
-16.63
-12.75
-8.25
-3.75
0.31
3.78
6.65
8.95
10.62
11.56
11.69
11.10
10.07
8.95
8.07
7.58
7.51
7.75
8.16
8.61
8.98
9.23
9.31
9.26
9.12
8.90
8.61
8.25
7.85
7.45
7.09
6.71
6.21
5.47
4.47
3.27
2.07
0.99
0.13
-0.55
-1.09
-1.53
-1.89
-2.22
-2.56
-2.98
-3.50
-4.04
-4.42
-4.51
-4.29
-3.96
-3.79
-4.07
-4.94
-6.31
-8.00
-9.72
-11.26
-12.49
-13.32
-13.79
-14.00
-14.18
-14.57
-15.39
-16.65
-18.07
-19.11
-19.17
-17.78
-14.86
-10.79
-6.28
-2.12
1.15
3.40
4.88
5.98
6.99
8.00
8.92
9.58
9.93
9.99
9.91
9.75
9.52
9.15
8.64
8.09
7.71
7.67
8.00
8.51
8.92
8.94
8.46
7.55
6.40
5.24
4.19
3.25
2.31
1.31
0.25
-0.80
-1.73
-2.49
-3.04
-3.42
-3.68
-3.88
-4.10
-4.43
-4.90
-5.46
-5.98
-6.34
-6.51
-6.58
-6.79
-7.40
-8.48
-9.89
-11.29
-12.32
-12.79
-12.75
-12.47
-12.26
-12.39
-12.91
-13.63
-14.20
-14.21
-13.38
-11.64
-9.18
-6.36
-3.52
-0.86
1.59
3.90
6.06
7.90
9.15
9.59
9.21
8.24
7.13
6.25
5.78
5.67
5.71
5.75
5.73
5.76
6.01
6.53
7.26
7.99
8.54
8.81
8.78
8.55
8.22
7.85
7.47
7.06
6.58
6.01
5.36
4.66
3.98
3.36
2.75
2.11
1.38
0.52
-0.40
-1.28
-2.02
-2.60
-3.10
-3.61
-4.25
-5.03
-5.91
-6.81
-7.63
-8.30
-8.81
-9.11
-9.22
-9.09
-8.72
-8.14
-7.39
-6.53
-5.60
-4.56
-3.26
-1.52
0.74
3.41
6.20
8.72
10.63
11.82
12.34
12.39
12.09
11.53
10.75
9.86
9.08
8.63
8.63
9.04
9.68
10.37
11.07
11.89
12.94
14.17
15.36
16.11
16.07
15.10
13.24
10.74
7.86
4.85
1.89
-0.89
-3.41
-5.63
-7.56
-9.20
-10.49
-11.24
-11.21
-10.14
-7.99
-4.98
-1.65
1.26
2.99
2.96
0.89
-3.08
-8.54
-14.84
-21.29
-27.31
-32.47
-36.53
-39.41
-41.19
-42.04
-42.22
-41.91
-41.08
-39.55
-36.99
-33.15
-28.10
-22.26
-16.29
-10.93
-6.68
-3.70
-1.83
-0.73
-0.07
0.36
0.66
0.86
1.03
1.25
1.57
2.00
2.46
2.83
3.02
3.04
2.98
2.97
3.12
3.41
3.73
3.93
3.90
3.67
3.40
3.26
3.37
3.67
4.00
4.14
3.95
3.40
2.62
1.85
1.32
1.23
1.62
2.37
3.20
3.72
3.60
2.72
1.22
-0.49
-1.96
-2.82
-2.92
-2.34
-1.32
-0.16
0.78
1.18
0.80
-0.36
-1.98
-3.53
-4.38
-4.15
-2.83
-0.81
1.33
3.09
4.24
4.81
4.99
4.96
4.86
4.69
4.51
4.36
4.41
4.83
5.80
7.38
9.48
11.76
13.72
14.83
14.77
13.55
11.53
9.23
7.12
5.45
4.21
3.23
2.34
1.46
0.65
0.00
-0.38
-0.45
-0.23
0.15
0.47
0.49
0.04
-0.88
-2.07
-3.17
-3.87
-4.01
-3.65
-3.06
-2.57
-2.47
-2.99
-4.32
-6.57
-9.77
-13.69
-17.80
-21.35
-23.58
-24.00
-22.51
-19.51
-15.72
-11.89
-8.58
-6.05
-4.21
-2.82
-1.65
-0.55
0.45
1.27
1.81
2.08
2.17
2.25
2.48
2.91
3.53
4.23
4.97
5.75
6.63
7.63
8.64
9.50
10.01
10.02
9.54
8.71
7.74
6.83
6.06
5.41
4.79
4.10
3.30
2.39
1.45
0.50
-0.50
-1.58
-2.82
-4.16
-5.49
-6.63
-7.48
-8.09
-8.65
-9.43
-10.61
-12.22
-14.07
-15.84
-17.15
-17.66
-17.17
-15.62
-13.11
-9.85
-6.16
-2.42
1.05
4.00
6.32
7.98
9.10
9.79
10.20
10.43
10.54
10.56
10.47
10.31
10.17
10.16
10.35
10.76
11.32
11.90
12.32
12.48
12.36
12.00
11.51
10.91
10.17
9.20
7.88
6.20
4.25
2.27
0.51
-0.83
-1.73
-2.34
-2.92
-3.71
-4.80
-6.15
-7.60
-8.99
-10.21
-11.24
-12.16
-13.13
-14.29
-15.75
-17.52
-19.45
-21.26
-22.54
-22.85
-21.88
-19.49
-15.84
-11.32
-6.50
-2.00
1.74
4.48
6.30
7.44
8.17
8.61
8.74
8.47
7.71
6.54
5.20
4.00
3.28
3.26
3.99
5.40
7.26
9.29
11.13
12.45
13.05
12.89
12.11
10.90
9.43
7.76
5.90
3.82
1.60
-0.65
-2.81
-4.79
-6.60
-8.28
-9.86
-11.38
-12.83
-14.28
-15.85
-17.66
-19.77
-21.99
-23.92
-24.97
-24.58
-22.38
-18.34
-12.83
-6.53
-0.26
5.19
9.34
12.03
13.43
13.90
13.82
13.48
13.03
12.51
11.97
11.49
11.11
10.86
10.73
10.64
10.57
10.57
10.76
11.27
12.10
13.03
13.73
13.83
13.11
11.58
9.50
7.22
5.05
3.09
1.27
-0.60
-2.67
-4.96
-7.36
-9.66
-11.74
-13.58
-15.28
-16.99
-18.92
-21.23
-23.97
-26.98
-29.84
-31.90
-32.38
-30.71
-26.72
-20.75
-13.57
-6.15
0.65
6.28
10.55
13.56
15.59
16.96
17.91
18.60
19.04
19.19
18.99
18.52
17.96
17.58
17.56
17.96
18.63
19.36
19.93
20.23
20.27
20.10
19.71
19.00
17.79
15.95
13.56
10.88
8.29
6.14
4.55
3.37
2.25
0.84
-1.07
-3.41
-5.92
-8.25
-10.16
-11.59
-12.67
-13.67
-14.85
-16.46
-18.69
-21.63
-25.23
-29.19
-32.94
-35.67
-36.48
-34.72
-30.20
-23.40
-15.35
-7.28
-0.28
5.09
8.85
11.42
13.35
15.05
16.68
18.14
19.31
20.11
20.58
20.90
21.23
21.70
22.32
23.07
23.83
24.50
24.97
25.12
24.91
24.34
23.42
22.21
20.79
19.19
17.46
15.62
13.72
11.79
9.87
7.97
6.11
4.27
2.41
0.52
-1.41
-3.39
-5.41
-7.44
-9.43
-11.27
-12.87
-14.19
-15.31
-16.47
-17.95
-20.04
-22.87
-26.27
-29.83
-32.84
-34.53
-34.24
-31.57
-26.56
-19.71
-11.89
-4.11
2.72
8.06
11.82
14.28
15.93
17.20
18.34
19.37
20.18
20.69
20.90
20.92
20.94
21.11
21.48
22.04
22.69
23.30
23.78
24.02
24.02
23.79
23.40
22.87
22.14
21.13
19.75
18.02
16.09
14.21
12.60
11.35
10.33
9.24
7.84
6.02
3.95
1.97
0.40
-0.59
-1.13
-1.56
-2.28
-3.60
-5.58
-8.04
-10.62
-12.99
-14.93
-16.44
-17.65
-18.85
-20.31
-22.26
-24.80
-27.78
-30.75
-33.03
-33.86
-32.68
-29.30
-24.08
-17.71
-11.05
-4.80
0.62
5.08
8.60
11.26
13.16
14.36
14.97
15.10
14.91
14.55
14.16
13.90
13.89
14.23
14.91
15.85
16.87
17.81
18.55
19.03
19.24
19.18
18.83
18.15
17.10
15.71
14.06
12.31
10.66
9.26
8.14
7.17
6.11
4.77
3.05
1.07
-0.88
-2.51
-3.61
-4.20
-4.51
-4.90
-5.72
-7.15
-9.16
-11.49
-13.78
-15.72
-17.20
-18.37
-19.50
-20.93
-22.88
-25.34
-28.09
-30.66
-32.42
-32.69
-30.94
-27.03
-21.31
-14.57
-7.79
-1.82
2.84
6.18
8.44
9.99
11.09
11.83
12.27
12.43
12.41
12.35
12.39
12.68
13.29
14.21
15.35
16.51
17.49
18.15
18.45
18.44
18.23
17.85
17.31
16.55
15.52
14.22
12.67
10.91
9.01
7.08
5.26
3.69
2.42
1.44
0.55
-0.46
-1.70
-3.13
-4.51
-5.65
-6.46
-7.15
-8.02
-9.31
-11.05
-13.03
-14.92
-16.49
-17.73
-18.80
-19.94
-21.38
-23.19
-25.32
-27.61
-29.80
-31.48
-32.14
-31.25
-28.48
-23.86
-17.82
-11.09
-4.52
1.22
5.73
8.93
11.00
12.19
12.79
13.01
13.02
12.92
12.83
12.85
13.06
13.51
14.16
14.94
15.71
16.38
16.87
17.19
17.33
17.28
16.97
16.33
15.31
13.93
12.27
10.49
8.76
7.22
5.98
5.03
4.29
3.60
2.77
1.68
0.30
-1.21
-2.62
-3.71
-4.41
-4.84
-5.25
-5.91
-6.97
-8.44
-10.15
-11.90
-13.49
-14.86
-16.06
-17.25
-18.60
-20.28
-22.42
-25.04
-28.08
-31.21
-33.88
-35.37
-34.96
-32.23
-27.24
-20.54
-13.07
-5.82
0.39
5.17
8.54
10.78
12.27
13.30
14.04
14.56
14.91
15.14
15.33
15.57
15.89
16.28
16.68
17.02
17.25
17.36
17.38
17.38
17.39
17.39
17.33
17.05
16.37
15.18
13.50
11.51
9.53
7.89
6.75
6.05
5.50
4.77
3.60
1.94
-0.03
-2.03
-3.74
-4.96
-5.67
-6.03
-6.31
-6.81
-7.75
-9.16
-10.90
-12.77
-14.56
-16.18
-17.66
-19.10
-20.65
-22.42
-24.46
-26.72
-28.96
-30.73
-31.41
-30.39
-27.30
-22.20
-15.66
-8.58
-1.98
3.37
7.07
9.21
10.13
10.31
10.17
9.97
9.83
9.74
9.73
9.83
10.11
10.61
11.29
12.05
12.78
13.37
13.87
14.35
14.87
15.37
15.65
15.47
14.65
13.22
11.41
9.51
7.77
6.25
4.89
3.57
2.24
0.96
-0.19
-1.19
-2.11
-3.14
-4.42
-6.03
-7.93
-10.01
-12.12
-14.07
-15.68
-16.83
-17.54
-18.05
-18.81
-20.30
-22.77
-26.04
-29.42
-31.90
-32.53
-30.69
-26.44
-20.37
-13.41
-6.57
-0.59
4.12
7.45
9.58
10.78
11.35
11.58
11.68
11.81
12.02
12.32
12.67
13.02
13.40
13.82
14.34
14.94
15.59
16.20
16.74
17.14
17.36
17.31
16.90
16.10
14.96
13.58
12.10
10.61
9.13
7.61
6.00
4.34
2.73
1.33
0.18
-0.84
-2.00
-3.59
-5.79
-8.51
-11.44
-14.14
-16.18
-17.39
-17.84
-17.89
-18.07
-18.87
-20.67
-23.56
-27.29
-31.22
-34.44
-35.95
-34.99
-31.32
-25.30
-17.79
-9.92
-2.70
3.17
7.40
10.09
11.59
12.36
12.86
13.44
14.26
15.26
16.23
16.89
17.10
16.90
16.52
16.30
16.47
17.13
18.19
19.44
20.60
21.46
21.79
21.50
20.53
18.90
16.76
14.31
11.83
9.49
7.40
5.56
3.89
2.34
0.87
-0.52
-1.82
-3.06
-4.31
-5.63
-7.07
-8.62
-10.24
-11.92
-13.61
-15.31
-17.00
-18.66
-20.32
-22.10
-24.18
-26.71
-29.65
-32.63
-34.97
-35.92
-34.87
-31.61
-26.38
-19.77
-12.56
-5.48
0.87
6.10
10.03
12.67
14.22
14.99
15.30
15.43
15.55
15.76
16.10
16.65
17.45
18.47
19.56
20.52
21.13
21.28
21.00
20.44
19.78
19.14
18.51
17.79
16.85
15.67
14.32
12.94
11.60
10.31
8.95
7.40
5.62
3.69
1.79
0.10
-1.28
-2.35
-3.19
-3.93
-4.71
-5.63
-6.74
-8.09
-9.68
-11.43
-13.25
-15.10
-16.99
-19.03
-21.35
-24.06
-27.12
-30.21
-32.81
-34.19
-33.69
-30.95
-26.05
-19.53
-12.31
-5.37
0.52
4.89
7.71
9.26
9.99
10.39
10.80
11.39
12.13
12.90
13.60
14.21
14.86
15.61
16.48
17.31
17.93
18.22
18.26
18.21
18.23
18.32
18.30
17.91
17.00
15.63
14.01
12.36
10.82
9.33
7.76
5.96
3.95
1.89
0.03
-1.39
-2.32
-2.87
-3.29
-3.90
-4.94
-6.53
-8.57
-10.84
-13.02
-14.87
-16.24
-17.17
-17.88
-18.70
-20.01
-22.02
-24.67
-27.50
-29.77
-30.65
-29.54
-26.24
-21.06
-14.67
-7.93
-1.65
3.60
7.52
10.08
11.50
12.16
12.44
12.64
12.90
13.21
13.48
13.70
13.90
14.18
14.64
15.29
16.05
16.77
17.34
17.73
17.97
18.14
18.19
18.03
17.47
16.41
14.86
13.06
11.29
9.86
8.84
8.11
7.35
6.23
4.54
2.30
-0.25
-2.74
-4.85
-6.37
-7.33
-7.93
-8.45
-9.14
-10.10
-11.28
-12.56
-13.85
-15.14
-16.47
-17.89
-19.43
-21.10
-23.01
-25.23
-27.73
-30.21
-32.01
-32.28
-30.34
-25.98
-19.62
-12.20
-4.84
1.51
6.30
9.43
11.13
11.80
11.89
11.80
11.80
12.05
12.54
13.22
13.98
14.76
15.57
16.37
17.14
17.75
18.12
18.20
18.08
17.87
17.65
17.40
16.98
16.20
14.97
13.35
11.53
9.76
8.21
6.92
5.79
4.70
3.57
2.36
1.10
-0.17
-1.43
-2.62
-3.69
-4.58
-5.29
-5.92
-6.66
-7.71
-9.17
-10.95
-12.78
-14.36
-15.50
-16.27
-16.98
-18.05
-19.81
-22.39
-25.60
-29.00
-31.93
-33.61
-33.39
-30.85
-25.99
-19.32
-11.75
-4.38
1.89
6.56
9.59
11.35
12.29
12.79
13.08
13.22
13.28
13.36
13.58
14.02
14.69
15.46
16.14
16.57
16.70
16.61
16.49
16.53
16.77
17.09
17.26
17.02
16.25
15.05
13.64
12.28
11.11
10.16
9.31
8.43
7.37
6.08
4.56
2.85
1.05
-0.70
-2.24
-3.48
-4.45
-5.26
-6.08
-7.08
-8.36
-9.93
-11.71
-13.58
-15.42
-17.12
-18.66
-20.10
-21.63
-23.45
-25.62
-27.97
-30.00
-31.04
-30.44
-27.87
-23.42
-17.59
-11.13
-4.81
0.78
5.26
8.49
10.53
11.59
11.95
11.91
11.71
11.47
11.23
10.98
10.74
10.63
10.76
11.22
12.05
13.16
14.42
15.66
16.68
17.27
17.25
16.54
15.19
13.42
11.48
9.60
7.88
6.28
4.75
3.28
1.89
0.64
-0.48
-1.54
-2.66
-3.90
-5.19
-6.41
-7.45
-8.32
-9.13
-10.07
-11.27
-12.71
-14.21
-15.55
-16.61
-17.48
-18.44
-19.87
-22.03
-24.87
-27.97
-30.55
-31.74
-30.86
-27.65
-22.38
-15.76
-8.73
-2.12
3.45
7.70
10.64
12.43
13.33
13.58
13.40
12.95
12.36
11.75
11.27
11.09
11.34
12.07
13.17
14.37
15.41
16.12
16.55
16.90
17.38
18.00
18.50
18.46
17.51
15.60
13.04
10.39
8.16
6.59
5.55
4.68
3.60
2.17
0.55
-0.94
-1.98
-2.51
-2.75
-3.10
-3.96
-5.50
-7.61
-9.99
-12.29
-14.24
-15.82
-17.13
-18.34
-19.64
-21.20
-23.15
-25.62
-28.58
-31.70
-34.32
-35.53
-34.48
-30.80
-24.74
-17.26
-9.55
-2.72
2.57
6.21
8.53
9.95
10.85
11.48
11.96
12.38
12.82
13.32
13.89
14.49
15.02
15.44
15.80
16.20
16.76
17.53
18.43
19.30
19.95
20.20
19.98
19.34
18.40
17.26
16.07
14.91
13.87
13.04
12.47
12.14
11.91
11.58
10.92
9.86
8.48
7.04
5.88
5.25
5.17
5.47
5.83
6.01
5.98
5.87
5.98
6.54
7.59
8.99
10.42
11.54
12.14
12.29
12.42
13.26
15.70
20.51
28.09
38.34
50.72
64.41
78.49
92.08
104.35
114.56
122.15
126.93
129.23
129.77
129.44
128.82
127.93
126.21
122.82
117.12
108.96
98.75
87.29
75.44
63.96
53.43
44.19
36.36
29.76
23.90
18.25
12.48
6.73
1.54
-2.39
-4.62
-5.15
-4.26
-2.10
1.38
6.39
12.73
19.43
24.68
26.34
22.63
12.65
-3.64
-25.71
-52.71
-83.27
-115.22
-145.41
-170.12
-186.22
-192.47
-190.21
-183.02
-175.41
-171.10
-171.75
-176.72
-183.64
-189.49
-191.64
-188.41
-179.16
-164.06
-143.79
-119.28
-91.57
-61.82
-31.33
-1.40
26.78
52.41
75.06
94.68
111.33
125.01
135.70
143.42
148.54
151.69
153.69
155.13
155.96
155.25
151.25
141.73
124.86
100.01
68.35
33.01
-1.78
-31.91
-54.83
-70.38
-80.57
-88.54
-97.12
-107.92
-121.08
-135.94
-151.98
-169.32
-188.67
-210.67
-235.09
-260.47
-284.29
-303.75
-316.66
-322.07
-320.23
-312.16
-299.04
-281.72
-260.58
-235.65
-206.74
-173.73
-136.72
-96.38
-54.31
-13.13
23.98
54.18
76.03
89.91
97.73
101.94
104.41
105.81
105.80
103.77
99.49
93.46
86.69
80.15
74.42
69.59
65.46
61.85
58.69
55.95
53.49
50.98
47.93
43.81
38.27
31.23
22.99
14.11
5.27
-2.93
-10.09
-16.05
-20.84
-24.59
-27.47
-29.59
-30.95
-31.41
-30.80
-29.05
-26.34
-23.19
-20.31
-18.38
-17.82
-18.52
-20.02
-21.69
-23.16
-24.48
-26.13
-28.60
-32.06
-36.08
-39.65
-41.54
-40.66
-36.48
-29.07
-19.15
-7.76
3.89
14.65
23.61
30.30
34.88
38.08
41.09
45.08
50.84
58.48
67.37
76.43
84.50
90.67
94.54
96.23
96.31
95.57
94.78
94.42
94.61
95.10
95.40
94.98
93.43
90.56
86.35
80.91
74.42
67.20
59.64
52.28
45.65
40.24
36.34
34.03
33.14
33.31
34.10
35.07
35.91
36.40
36.43
35.84
34.48
32.13
28.67
24.10
18.56
12.39
6.01
-0.12
-5.50
-9.62
-11.98
-12.25
-10.39
-6.76
-2.06
2.88
7.31
10.74
13.04
14.36
15.02
15.31
15.39
15.33
15.06
14.52
13.69
12.68
11.68
10.93
10.60
10.70
11.09
11.52
11.74
11.57
11.00
10.10
8.97
7.69
6.27
4.69
2.92
0.92
-1.34
-3.90
-6.78
-9.91
-13.24
-16.65
-20.04
-23.26
-26.16
-28.56
-30.24
-30.95
-30.48
-28.71
-25.65
-21.51
-16.64
-11.54
-6.77
-2.89
-0.34
0.64
0.14
-1.38
-3.19
-4.44
-4.46
-2.88
0.24
4.46
9.18
13.78
17.77
20.81
22.73
23.52
23.37
22.60
21.54
20.47
19.48
18.52
17.51
16.44
15.37
14.47
13.83
13.48
13.33
13.28
13.24
13.21
13.20
13.18
13.05
12.65
11.83
10.57
8.96
7.20
5.51
4.04
2.82
1.79
0.83
-0.07
-0.89
-1.58
-2.16
-2.83
-3.85
-5.43
-7.55
-9.93
-12.16
-13.87
-14.97
-15.62
-16.18
-16.99
-18.27
-20.12
-22.49
-25.24
-28.00
-30.19
-31.06
-29.94
-26.50
-21.02
-14.33
-7.51
-1.48
3.22
6.61
8.98
10.68
11.91
12.68
12.95
12.79
12.39
12.03
11.94
12.18
12.64
13.11
13.45
13.59
13.60
13.61
13.72
14.00
14.39
14.77
14.96
14.73
13.95
12.58
10.79
8.88
7.15
5.82
4.90
4.19
3.42
2.38
1.02
-0.50
-1.89
-2.92
-3.53
-3.88
-4.35
-5.30
-6.90
-9.04
-11.37
-13.45
-15.01
-16.02
-16.69
-17.34
-18.22
-19.49
-21.18
-23.32
-25.87
-28.67
-31.37
-33.36
-33.93
-32.49
-28.82
-23.26
-16.55
-9.65
-3.39
1.77
5.78
8.84
11.22
13.09
14.47
15.35
15.78
15.90
15.94
16.04
16.25
16.43
16.46
16.28
15.99
15.80
15.88
16.29
16.91
17.48
17.75
17.54
16.86
15.81
14.57
13.31
12.16
11.14
10.22
9.32
8.35
7.26
6.05
4.81
3.66
2.69
1.95
1.38
0.90
0.38
-0.23
-0.95
-1.79
-2.72
-3.76
-4.87
-6.06
-7.30
-8.59
-9.96
-11.51
-13.38
-15.80
-18.88
-22.56
-26.44
-29.79
-31.73
-31.55
-28.97
-24.34
-18.46
-12.34
-6.79
-2.27
1.15
3.63
5.33
6.37
6.82
6.83
6.60
6.42
6.52
7.04
7.93
9.03
10.17
11.16
11.95
12.57
13.15
13.77
14.46
15.13
15.61
15.78
15.55
14.94
14.01
12.82
11.44
9.93
8.38
6.92
5.61
4.48
3.50
2.64
1.89
1.21
0.53
-0.29
-1.37
-2.79
-4.50
-6.30
-8.01
-9.50
-10.77
-11.96
-13.21
-14.66
-16.37
-18.36
-20.62
-23.08
-25.50
-27.46
-28.39
-27.73
-25.17
-20.78
-15.04
-8.69
-2.53
2.81
6.97
9.86
11.62
12.46
12.68
12.51
12.18
11.82
11.51
11.23
10.99
10.77
10.62
10.58
10.66
10.87
11.14
11.45
11.77
12.11
12.47
12.75
12.77
12.34
11.37
9.96
8.39
6.99
5.99
5.35
4.85
4.20
3.23
2.01
0.76
-0.28
-1.01
-1.53
-2.07
-2.87
-4.04
-5.54
-7.19
-8.84
-10.35
-11.73
-13.08
-14.48
-16.00
-17.65
-19.43
-21.35
-23.46
-25.70
-27.87
-29.49
-29.90
-28.50
-25.00
-19.65
-13.16
-6.50
-0.54
4.19
7.54
9.69
10.91
11.43
11.38
10.87
10.04
9.12
8.37
8.00
8.09
8.56
9.20
9.80
10.26
10.63
11.01
11.51
12.10
12.69
13.05
13.03
12.55
11.64
10.43
9.10
7.83
6.75
5.94
5.34
4.77
3.98
2.83
1.37
-0.16
-1.44
-2.28
-2.79
-3.31
-4.24
-5.78
-7.82
-10.01
-11.94
-13.43
-14.55
-15.60
-16.89
-18.58
-20.67
-23.05
-25.55
-28.02
-30.21
-31.72
-32.03
-30.65
-27.33
-22.23
-15.95
-9.35
-3.26
1.69
5.23
7.43
8.58
9.08
9.28
9.42
9.62
9.86
10.09
10.24
10.32
10.45
10.76
11.35
12.21
13.20
14.13
14.82
15.26
15.49
15.60
15.61
15.38
14.79
13.76
12.40
10.99
9.84
9.13
8.77
8.46
7.82
6.61
4.82
2.66
0.47
-1.44
-2.93
-4.01
-4.83
-5.61
-6.58
-7.90
-9.60
-11.56
-13.54
-15.31
-16.77
-18.06
-19.50
-21.45
-24.07
-27.15
-30.10
-32.11
-32.44
-30.70
-26.99
-21.83
-15.96
-10.16
-5.00
-0.77
2.49
4.87
6.54
7.62
8.20
8.38
8.26
8.03
7.84
7.83
8.05
8.45
8.96
9.54
10.21
11.02
12.01
13.11
14.19
15.07
15.62
15.82
15.69
15.31
14.73
13.97
13.01
11.87
10.60
9.32
8.10
7.02
6.05
5.15
4.24
3.27
2.20
1.05
-0.21
-1.58
-3.09
-4.75
-6.54
-8.38
-10.18
-11.92
-13.67
-15.59
-17.84
-20.44
-23.23
-25.74
-27.39
-27.59
-26.01
-22.66
-17.91
-12.40
-6.83
-1.80
2.26
5.12
6.80
7.49
7.51
7.23
6.85
6.47
6.02
5.44
4.77
4.22
4.07
4.50
5.48
6.77
8.04
9.06
9.79
10.38
10.95
11.48
11.75
11.52
10.68
9.35
7.85
6.48
5.39
4.50
3.59
2.47
1.10
-0.41
-1.85
-3.11
-4.16
-5.09
-6.04
-7.11
-8.40
-10.00
-12.00
-14.50
-17.46
-20.63
-23.49
-25.44
-25.86
-24.41
-21.11
-16.35
-10.80
-5.26
-0.39
3.38
5.96
7.49
8.26
8.59
8.68
8.62
8.43
8.11
7.72
7.36
7.18
7.27
7.66
8.28
9.04
9.82
10.54
11.16
11.61
11.83
11.75
11.31
10.52
9.47
8.28
7.09
5.98
5.00
4.20
3.58
3.13
2.74
2.20
1.26
-0.24
-2.30
-4.70
-7.10
-9.12
-10.56
-11.45
-12.04
-12.67
-13.69
-15.33
-17.71
-20.78
-24.22
-27.50
-29.89
-30.63
-29.20
-25.50
-20.01
-13.57
-7.15
-1.57
2.76
5.79
7.71
8.79
9.28
9.37
9.24
9.08
9.10
9.43
10.07
10.87
11.63
12.20
12.54
12.80
13.20
13.83
14.67
15.54
16.24
16.61
16.63
16.38
15.90
15.23
14.33
13.23
12.02
10.79
9.62
8.47
7.25
5.87
4.39
2.94
1.68
0.65
-0.29
-1.40
-2.87
-4.74
-6.89
-9.06
-11.07
-12.81
-14.36
-15.86
-17.48
-19.40
-21.74
-24.47
-27.35
-29.91
-31.48
-31.42
-29.37
-25.38
-19.94
-13.81
-7.83
-2.63
1.44
4.38
6.35
7.69
8.73
9.68
10.65
11.60
12.42
13.05
13.54
14.03
14.66
15.51
16.50
17.47
18.31
18.97
19.51
20.00
20.51
20.96
21.26
21.25
20.85
20.05
18.99
17.81
16.71
15.79
15.03
14.28
13.36
12.15
10.59
8.81
6.98
5.29
3.81
2.52
1.30
0.02
-1.44
-3.15
-5.11
-7.29
-9.60
-11.95
-14.24
-16.41
-18.46
-20.49
-22.67
-25.13
-27.88
-30.70
-33.12
-34.50
-34.30
-32.19
-28.28
-23.10
-17.35
-11.78
-6.85
-2.74
0.61
3.34
5.51
7.12
8.16
8.68
8.91
9.13
9.57
10.29
11.20
12.09
12.86
13.55
14.29
15.24
16.45
17.82
19.14
20.19
20.83
20.99
20.72
20.10
19.25
18.25
17.20
16.09
14.89
13.51
11.95
10.27
8.60
7.09
5.75
4.47
3.07
1.37
-0.70
-3.06
-5.57
-8.03
-10.32
-12.39
-14.25
-15.99
-17.65
-19.30
-21.02
-22.88
-24.96
-27.26
-29.62
-31.70
-32.97
-32.84
-30.85
-26.91
-21.31
-14.74
-8.04
-1.99
2.89
6.44
8.76
10.16
10.94
11.34
11.50
11.51
11.46
11.47
11.69
12.27
13.20
14.39
15.67
16.92
18.12
19.33
20.62
21.94
23.11
23.85
23.92
23.27
22.04
20.51
18.93
17.47
16.14
14.85
13.50
12.01
10.31
8.41
6.32
4.11
1.88
-0.26
-2.26
-4.15
-6.04
-8.11
-10.43
-12.99
-15.64
-18.18
-20.46
-22.40
-24.06
-25.56
-27.08
-28.81
-30.84
-33.08
-35.19
-36.61
-36.69
-34.93
-31.20
-25.87
-19.70
-13.56
-8.18
-3.84
-0.47
2.24
4.58
6.66
8.43
9.81
10.77
11.41
11.85
12.24
12.65
13.11
13.68
14.41
15.39
16.63
18.03
19.40
20.56
21.34
21.69
21.64
21.20
20.43
19.44
18.34
17.29
16.41
15.68
14.97
14.05
12.73
10.93
8.73
6.35
4.03
1.94
0.11
-1.54
-3.10
-4.65
-6.23
-7.84
-9.48
-11.17
-12.90
-14.65
-16.39
-18.13
-19.92
-21.88
-23.97
-25.92
-27.19
-27.13
-25.22
-21.32
-15.74
-9.14
-2.27
4.31
10.27
15.47
19.93
23.66
26.75
29.34
31.69
34.08
36.74
39.71
42.90
46.19
49.46
52.70
56.01
59.44
62.99
66.55
69.92
72.98
75.72
78.29
80.90
83.76
86.91
90.17
93.14
95.25
95.87
94.45
90.65
84.43
76.20
66.73
56.98
47.91
40.18
34.01
29.13
24.88
20.44
15.06
8.26
-0.14
-10.09
-21.46
-34.15
-48.18
-63.52
-79.94
-96.93
-113.68
-129.20
-142.57
-153.04
-160.16
-163.83
-164.26
-161.94
-157.58
-151.88
-145.28
-137.91
-129.60
-120.27
-110.19
-100.14
-91.21
-84.26
-79.49
-76.33
-73.67
-70.37
-65.71
-59.56
-52.18
-44.04
-35.43
-26.54
-17.55
-8.71
-0.39
7.03
13.27
18.29
22.24
25.34
27.74
29.40
30.13
29.68
27.91
24.90
21.00
16.71
12.55
8.96
6.18
4.29
3.22
2.77
2.57
2.11
0.87
-1.55
-5.14
-9.46
-13.64
-16.67
-17.65
-16.09
-12.00
-5.89
1.39
8.89
15.80
21.59
26.09
29.38
31.73
33.38
34.45
34.96
34.89
34.27
33.26
32.12
31.13
30.44
30.03
29.76
29.48
29.11
28.66
28.20
27.66
26.84
25.43
23.18
20.11
16.56
13.05
10.06
7.82
6.27
5.13
4.07
2.79
1.15
-0.84
-3.06
-5.28
-7.22
-8.71
-9.83
-10.86
-12.27
-14.40
-17.31
-20.69
-23.94
-26.43
-27.63
-27.22
-25.11
-21.40
-16.43
-10.73
-4.99
0.11
4.07
6.70
8.14
8.71
8.78
8.65
8.49
8.44
8.60
9.02
9.71
10.61
11.61
12.66
13.75
14.93
16.22
17.53
18.71
19.57
19.94
19.79
19.17
18.19
16.95
15.54
14.07
12.66
11.45
10.57
10.01
9.61
9.05
7.97
6.08
3.36
-0.02
-3.74
-7.53
-11.30
-15.05
-18.80
-22.33
-25.14
-26.52
-25.91
-23.16
-18.70
-13.43
-8.37
-4.27
-1.41
0.42
1.61
2.53
3.28
3.72
3.61
2.83
1.50
0.04
-1.08
-1.47
-1.00
0.24
2.01
4.02
6.10
8.20
10.40
12.77
15.21
17.45
19.15
20.03
19.92
18.98
17.63
16.43
15.76
15.71
16.07
16.53
16.85
16.57
15.33
13.13
10.44
8.13
7.11
8.20
11.88
18.14
25.60
32.45
37.36
39.97
40.83
40.82
40.78
41.22
42.36
42.65
40.27
34.03
24.05
11.41
-2.52
-16.56
-29.79
-41.67
-53.82
-68.26
-86.21
-107.39
-130.53
-154.64
-179.62
-206.23
-224.46
-226.05
-208.23
-176.15
-138.22
-100.48
-65.32
-33.24
-4.41
20.61
39.36
49.70
51.31
46.45
39.10
33.14
31.18
33.98
40.59
47.62
51.20
48.79
39.94
26.81
13.56
5.73
8.94
27.15
59.94
102.27
145.41
179.34
195.76
190.71
165.96
128.41
87.50
51.51
25.38
10.08
3.72
3.40
6.74
12.50
20.18
29.08
37.56
43.26
44.61
41.45
35.19
28.07
21.94
17.63
14.46
10.90
5.55
-2.08
-11.18
-20.13
-26.95
-30.14
-29.27
-25.04
-18.89
-12.31
-6.24
-0.70
4.54
10.23
17.04
25.19
34.33
43.78
52.83
61.11
68.86
76.02
83.03
90.41
98.40
106.85
115.25
122.96
129.59
135.23
139.55
142.83
145.53
147.79
149.03
147.87
142.04
128.36
110.39
89.37
66.78
44.14
22.44
1.73
-18.93
-41.06
-66.03
-94.16
-125.56
-158.88
-192.27
-224.08
-253.69
-281.62
-309.45
-339.29
-373.24
-413.24
-458.99
-507.13
-551.02
-581.89
-591.44
-574.92
-533.57
-474.66
-409.82
-350.58
-304.84
-275.01
-258.52
-249.88
-243.22
-233.93
-219.12
-197.59
-168.96
-133.67
-92.98
-49.02
-4.45
38.21
77.36
112.59
144.32
173.24
199.63
223.28
243.45
259.49
271.01
277.98
280.56
279.00
273.67
265.35
255.25
244.73
234.88
225.95
217.32
207.89
196.89
184.40
171.50
159.78
150.51
144.09
139.87
136.51
132.71
127.87
122.16
116.27
110.92
106.35
102.29
98.11
93.08
86.71
78.62
68.64
56.73
43.18
28.72
14.47
1.60
-9.18
-17.94
-25.44
-32.82
-41.11
-50.79
-61.77
-73.37
-84.51
-93.93
-100.45
-103.18
-101.82
-96.62
-88.25
-77.52
-65.16
-51.76
-37.95
-24.42
-11.91
-1.02
8.13
15.88
22.75
29.08
34.82
39.51
42.65
44.03
43.97
43.17
42.36
42.00
42.24
43.03
44.22
45.67
47.13
48.17
48.37
47.48
45.65
43.47
41.62
40.55
40.29
40.51
40.77
40.90
40.99
41.22
41.68
42.16
42.22
41.46
39.63
36.75
33.12
29.19
25.48
22.36
19.95
18.00
16.04
13.61
10.58
7.30
4.51
2.93
2.95
4.29
6.16
7.59
7.83
6.60
4.13
1.04
-1.99
-4.43
-6.00
-6.72
-6.75
-6.17
-4.92
-2.76
0.53
4.92
9.85
14.26
17.04
17.54
15.91
12.94
9.51
5.99
2.01
-3.07
-9.48
-16.44
-22.32
-25.44
-24.87
-20.96
-15.03
-8.68
-2.96
1.92
6.33
10.63
14.83
18.41
20.73
21.32
20.19
17.82
14.97
12.42
10.66
9.75
9.38
8.87
7.47
4.69
0.43
-4.94
-10.73
-16.26
-21.09
-25.28
-29.33
-33.96
-39.72
-46.76
-54.79
-63.26
-71.69
-79.84
-87.68
-95.25
-102.54
-109.45
-115.84
-121.68
-127.09
-132.27
-137.53
-143.34
-150.38
-159.54
-171.49
-186.42
-203.77
-222.42
-241.21
-259.52
-277.47
-295.69
-314.81
-335.18
-356.89
-380.01
-404.62
-430.23
-455.20
-476.39
-489.84
-492.04
-481.44
-459.06
-427.88
-391.47
-352.53
-312.25
-270.69
-227.58
-183.16
-138.21
-93.68
-49.99
-6.95
36.02
79.27
122.46
164.46
203.68
238.81
269.37
295.95
320.03
343.31
367.06
391.57
416.23
439.81
461.08
479.35
494.59
507.32
518.43
529.01
540.15
552.71
566.60
580.27
590.33
592.18
581.26
554.89
513.42
460.15
399.99
337.50
275.31
213.83
152.36
90.57
29.51
-28.48
-80.71
-124.88
-159.34
-182.58
-192.72
-187.56
-165.53
-127.21
-76.41
-20.13
32.97
74.87
100.60
109.43
104.80
92.67
79.16
68.41
61.48
56.53
50.11
38.90
20.97
-3.90
-34.64
-69.36
-105.53
-139.90
-168.55
-187.56
-194.27
-188.43
-172.73
-152.00
-131.34
-114.33
-101.97
-93.00
-85.10
-76.17
-65.17
-52.05
-37.10
-20.39
-1.65
19.34
42.35
66.47
90.22
112.08
130.97
146.49
158.95
169.08
177.84
185.93
193.50
200.03
204.43
205.40
201.91
193.59
180.86
164.57
145.65
124.72
102.05
77.77
52.27
26.35
1.09
-22.38
-43.25
-61.08
-75.73
-87.23
-95.75
-101.72
-105.74
-108.51
-110.59
-112.12
-112.78
-112.02
-109.38
-104.90
-99.13
-92.93
-87.13
-82.14
-77.97
-74.45
-71.44
-69.06
-67.61
-67.44
-68.66
-70.94
-73.50
-75.30
-75.34
-73.09
-68.66
-62.79
-56.48
-50.55
-45.34
-40.75
-36.55
-32.77
-30.00
-29.20
-31.21
-36.11
-42.82
-49.27
-53.11
-52.58
-47.18
-37.80
-26.28
-14.49
-3.59
6.29
15.84
25.87
36.71
47.97
58.65
67.70
74.29
77.96
78.51
75.96
70.60
63.25
55.42
49.07
45.98
46.97
51.38
57.27
62.23
64.30
62.73
58.06
51.70
45.26
40.01
36.68
35.52
36.38
38.82
42.15
45.45
47.73
48.11
46.07
41.70
35.65
29.01
22.79
17.64
13.51
9.86
6.13
2.40
-0.44
-0.84
2.71
10.81
22.70
36.31
48.83
57.63
61.00
58.49
50.79
39.41
26.21
12.95
1.00
-8.85
-16.62
-23.00
-29.29
-36.90
-46.96
-59.86
-75.16
-91.77
-108.33
-123.58
-136.51
-146.40
-152.70
-155.18
-153.96
-149.68
-143.45
-136.47
-129.75
-123.83
-118.71
-114.06
-109.37
-104.16
-98.10
-91.04
-83.12
-74.87
-67.18
-61.14
-57.78
-57.75
-61.06
-66.97
-74.00
-80.01
-82.53
-79.24
-68.71
-51.04
-28.06
-2.88
21.03
40.84
55.04
63.51
67.21
67.53
65.78
62.94
59.61
56.03
52.12
47.60
42.04
35.04
26.32
15.91
4.29
-7.58
-18.23
-25.98
-29.42
-28.02
-22.54
-14.99
-8.03
-4.19
-5.10
-11.06
-20.95
-32.57
-43.06
-49.32
-49.15
-42.63
-31.58
-19.16
-9.09
-4.19
-5.34
-11.33
-19.33
-26.56
-31.88
-35.26
-37.30
-38.90
-40.62
-42.43
-43.87
-43.68
-41.15
-37.92
-35.87
-36.56
-41.21
-49.65
-59.61
-66.87
-64.52
-47.16
-15.78
27.55
80.67
139.14
196.57
245.07
276.71
290.12
287.46
267.93
238.23
210.29
192.00
184.73
183.88
181.92
178.97
176.23
164.54
141.97
114.51
87.01
63.38
47.05
40.97
55.78
96.95
148.85
199.97
247.52
288.78
322.57
349.84
317.74
203.47
97.76
31.74
-16.62
-54.53
-87.26
-118.34
-149.37
-179.74
-198.10
-195.16
-180.60
-159.89
-131.90
-98.69
-63.76
-30.36
-0.44
32.07
71.09
105.78
129.47
142.81
146.67
142.33
130.91
112.68
91.20
68.56
39.28
3.01
-34.49
-67.96
-94.27
-113.19
-126.71
-135.42
-139.83
-143.49
-147.59
-151.06
-153.52
-155.26
-156.62
-157.52
-156.63
-152.72
-146.44
-138.66
-130.18
-122.26
-116.02
-111.88
-109.40
-107.51
-105.00
-101.03
-95.45
-88.81
-82.01
-75.91
-71.07
-67.63
-65.46
-64.22
-63.48
-62.76
-61.63
-59.76
-57.09
-53.86
-50.48
-47.41
-44.99
-43.32
-42.35
-42.00
-42.13
-42.71
-43.69
-44.98
-46.47
-47.99
-49.44
-50.78
-52.13
-53.62
-55.35
-57.30
-59.24
-60.93
-62.14
-62.89
-63.41
-64.09
-65.29
-67.18
-69.72
-72.68
-75.73
-78.55
-80.75
-81.94
-81.74
-79.95
-76.81
-72.97
-69.32
-66.58
-64.85
-63.56
-61.72
-58.57
-54.05
-48.68
-43.20
-37.91
-32.58
-26.76
-20.36
-13.71
-6.97
0.52
10.50
24.89
44.39
67.32
89.67
106.61
114.69
113.35
104.98
93.42
82.07
72.62
65.06
58.67
53.08
48.53
45.55
44.09
43.08
40.65
35.12
25.96
14.36
3.15
-4.23
-4.92
2.44
17.29
37.47
60.03
82.17
101.74
117.53
129.03
136.06
138.56
136.48
130.05
120.02
107.77
95.09
83.73
74.82
68.57
64.44
61.51
59.04
56.72
54.56
52.71
51.05
49.15
46.26
41.65
34.89
26.13
16.11
5.96
-3.10
-10.02
-14.14
-15.26
-13.55
-9.50
-3.79
2.90
10.16
17.91
26.39
35.84
46.16
56.76
66.71
75.20
81.97
87.40
92.14
96.61
100.56
103.11
103.27
100.50
95.11
88.15
80.95
74.57
69.40
65.06
60.70
55.37
48.42
39.74
29.70
18.82
7.55
-3.83
-15.09
-26.12
-37.00
-48.13
-60.03
-73.01
-86.68
-99.78
-110.41
-116.89
-118.63
-116.60
-112.96
-109.93
-108.74
-109.30
-110.54
-111.27
-111.04
-110.36
-110.41
-112.36
-116.29
-121.08
-125.06
-126.78
-125.60
-121.98
-117.33
-113.33
-111.48
-111.56
-111.93
-110.55
-105.83
-97.02
-84.36
-69.19
-53.97
-42.50
-37.87
-42.12
-56.03
-78.58
-106.30
-133.98
-156.14
-168.79
-170.75
-161.59
-141.27
-110.45
-70.56
-23.40
28.64
82.70
139.36
190.27
225.27
240.02
236.97
221.24
197.82
170.91
144.20
120.72
101.63
87.59
78.40
72.57
67.86
62.61
55.75
46.78
35.45
21.33
5.35
-10.32
-23.36
-33.22
-38.48
-38.90
-35.29
-29.06
-21.96
-15.41
-10.01
-5.93
-2.97
-0.34
2.63
6.48
11.40
16.98
21.99
25.26
26.09
24.64
21.81
18.60
15.83
13.86
13.34
12.99
10.71
4.50
-6.69
-22.94
-43.78
-68.38
-95.72
-119.49
-133.81
-135.97
-127.85
-113.47
-96.34
-78.67
-61.82
-46.63
-33.78
-24.59
-20.24
-22.12
-29.30
-40.68
-55.01
-70.42
-84.15
-93.00
-95.11
-90.07
-78.86
-63.03
-44.42
-24.83
-7.08
6.61
15.09
17.78
15.00
8.11
-0.50
-8.31
-13.56
-16.19
-18.17
-23.20
-35.66
-58.34
-90.23
-125.68
-155.89
-171.79
-167.32
-141.50
-98.89
-48.00
1.69
42.68
71.31
88.10
96.66
101.90
108.15
117.68
130.25
143.69
155.19
162.51
164.63
161.64
154.05
142.56
127.92
111.28
94.44
79.54
68.23
61.05
57.03
54.17
50.31
43.99
34.95
24.04
12.64
2.08
-6.65
-13.01
-16.75
-17.73
-15.96
-11.79
-5.94
0.49
6.43
11.14
14.40
16.47
17.79
18.68
19.20
19.21
18.51
17.10
15.27
13.42
11.98
11.17
10.98
11.20
11.54
11.83
12.09
12.50
13.33
14.76
16.81
19.21
21.56
23.44
24.61
25.04
24.87
24.28
23.36
22.15
20.63
18.85
16.98
15.19
13.61
12.22
10.87
9.38
7.59
5.46
3.01
0.37
-2.33
-4.92
-7.30
-9.50
-11.65
-14.02
-16.88
-20.30
-24.01
-27.41
-29.70
-30.16
-28.40
-24.53
-19.10
-12.92
-6.79
-1.28
3.36
7.08
9.93
11.92
13.04
13.24
12.57
11.28
9.71
8.27
7.20
6.63
6.50
6.72
7.25
8.09
9.19
10.42
11.56
12.37
12.73
12.70
12.54
12.61
13.22
14.54
16.46
18.71
20.89
22.64
23.72
24.10
23.90
23.34
22.64
21.89
21.09
20.05
18.59
16.54
13.85
10.65
7.20
3.90
1.11
-0.92
-2.27
-3.23
-4.20
-5.49
-7.14
-8.97
-10.63
-11.80
-12.37
-12.48
-12.51
-12.95
-14.24
-16.62
-19.92
-23.56
-26.64
-28.24
-27.76
-25.06
-20.62
-15.27
-9.96
-5.38
-1.87
0.62
2.38
3.67
4.65
5.30
5.58
5.54
5.38
5.38
5.80
6.66
7.77
8.87
9.71
10.30
10.85
11.67
12.93
14.59
16.38
17.92
18.92
19.24
18.88
17.96
16.57
14.75
12.51
9.91
7.12
4.36
1.89
-0.11
-1.64
-2.83
-3.88
-5.02
-6.40
-8.07
-10.03
-12.18
-14.35
-16.32
-17.88
-18.91
-19.49
-19.90
-20.50
-21.52
-22.87
-24.08
-24.37
-23.02
-19.69
-14.64
-8.71
-2.96
1.75
5.05
7.16
8.57
9.71
10.73
11.47
11.63
11.03
9.79
8.28
6.97
6.22
6.15
6.62
7.38
8.17
8.83
9.32
9.67
9.97
10.25
10.52
10.75
10.93
11.02
10.99
10.76
10.25
9.39
8.21
6.76
5.10
3.25
1.23
-0.89
-2.98
-4.88
-6.42
-7.65
-8.74
-9.97
-11.51
-13.33
-15.18
-16.68
-17.57
-17.85
-17.81
-17.89
-18.51
-19.87
-21.79
-23.80
-25.21
-25.40
-23.96
-20.87
-16.50
-11.48
-6.45
-1.93
1.80
4.68
6.76
8.13
8.85
9.03
8.77
8.14
7.26
6.15
4.86
3.49
2.19
1.17
0.55
0.35
0.45
0.60
0.50
-0.13
-1.52
-3.79
-6.87
-10.43
-13.92
-16.81
-18.84
-20.25
-21.81
-24.48
-29.01
-35.51
-43.37
-51.32
-58.09
-62.77
-65.25
-66.34
-67.53
-70.53
-76.76
-86.77
-99.89
-113.97
-125.51
-130.40
-125.23
-108.68
-82.40
-50.78
-19.54
6.34
24.37
35.12
41.36
46.35
52.28
59.50
67.03
73.54
78.27
81.23
82.80
83.13
81.87
78.46
72.64
64.90
56.56
49.29
44.43
42.38
42.40
42.95
42.37
39.53
34.31
27.53
20.63
15.03
11.70
10.83
11.82
13.67
15.35
16.40
17.02
18.01
20.23
24.11
29.41
35.35
41.07
46.08
50.43
54.46
58.40
61.98
64.45
64.89
62.74
58.15
51.94
45.31
39.36
34.65
31.08
27.99
24.63
20.57
16.09
12.08
9.66
9.60
11.89
15.62
19.33
21.54
21.25
18.22
12.92
6.25
-0.78
-7.32
-12.81
-17.03
-20.05
-22.14
-23.60
-24.67
-25.40
-25.71
-25.48
-24.68
-23.47
-22.11
-20.95
-20.27
-20.08
-20.25
-20.52
-20.61
-20.26
-19.37
-17.90
-16.00
-13.96
-11.99
-10.20
-8.62
-7.19
-5.78
-4.35
-2.92
-1.60
-0.61
0.09
0.53
0.78
0.88
0.94
1.07
1.41
1.95
2.40
2.87
3.43
4.02
4.43
4.66
4.58
4.61
5.07
6.01
8.28
12.50
18.18
23.82
27.83
28.56
26.24
21.92
16.72
12.87
11.52
11.41
9.62
4.01
-6.56
-19.58
-31.24
-38.10
-36.24
-23.63
-1.64
26.06
56.34
86.42
116.83
149.01
169.03
166.01
138.94
96.76
50.89
18.22
-2.60
-14.02
-18.88
-20.59
-25.01
-35.57
-55.16
-87.79
-129.55
-172.61
-207.55
-229.31
-236.77
-228.60
-202.03
-156.32
-95.27
-27.21
34.81
79.40
100.13
101.39
89.49
72.99
57.86
45.99
36.40
25.86
12.86
-1.86
-15.56
-25.20
-28.46
-25.55
-18.96
-10.99
-3.81
1.20
3.26
2.55
0.08
-1.76
-0.03
8.07
24.31
47.50
72.30
89.99
94.46
86.25
70.81
53.00
34.90
17.18
-1.20
-19.48
-35.05
-44.92
-48.21
-47.62
-46.29
-48.47
-56.73
-71.12
-89.68
-109.28
-126.77
-139.89
-148.00
-152.10
-152.50
-148.14
-137.22
-118.80
-93.16
-62.46
-31.15
-1.09
20.47
27.91
23.31
16.03
15.39
25.61
43.13
63.01
81.21
95.82
108.81
123.49
142.80
164.47
184.52
199.06
204.36
199.06
184.05
162.95
135.72
105.67
77.08
52.85
30.93
4.03
-33.24
-83.60
-142.40
-204.18
-263.35
-316.67
-362.45
-383.39
-369.51
-323.78
-260.57
-195.13
-137.47
-90.87
-55.61
-30.09
-11.74
0.32
7.21
10.34
11.40
10.93
8.87
4.73
-2.45
-13.59
-29.70
-49.90
-70.67
-86.76
-93.76
-85.97
-68.54
-46.51
-25.00
-7.56
5.33
16.65
31.59
48.23
62.53
75.22
84.35
82.77
69.27
47.90
25.29
6.25
-9.48
-26.15
-49.18
-80.36
-114.97
-142.46
-152.54
-140.48
-109.55
-69.12
-29.16
3.66
27.62
45.23
61.21
78.76
98.60
119.42
139.20
156.77
171.72
183.89
193.31
200.35
205.15
207.74
208.09
206.09
201.91
195.82
188.14
179.49
170.68
161.87
152.49
141.49
128.10
112.55
96.24
81.01
68.41
58.96
51.88
45.68
39.12
31.96
25.03
19.69
16.84
16.31
16.76
16.28
13.25
7.02
-1.94
-12.37
-22.87
-32.42
-40.49
-46.97
-51.84
-55.05
-56.69
-57.02
-56.58
-56.07
-55.97
-56.41
-57.06
-57.33
-56.69
-54.90
-52.14
-48.89
-45.71
-42.98
-40.79
-38.95
-37.13
-35.07
-32.71
-30.19
-27.80
-25.88
-24.65
-24.17
-24.32
-24.93
-25.75
-26.54
-27.06
-27.07
-26.42
-25.05
-23.02
-20.44
-17.37
-13.85
-9.87
-5.47
-0.84
3.74
7.89
11.35
14.00
15.92
17.28
18.17
18.56
18.28
17.12
14.92
11.63
7.35
2.25
-3.43
-9.42
-15.33
-20.75
-25.22
-28.42
-30.30
-31.15
-31.54
-32.14
-33.41
-35.46
-38.02
-40.55
-42.54
-43.66
-43.93
-43.61
-43.11
-42.76
-42.71
-42.94
-43.37
-43.99
-44.92
-46.35
-48.37
-50.87
-53.63
-56.42
-59.38
-62.89
-67.24
-72.02
-75.83
-76.62
-72.73
-63.82
-51.13
-36.84
-22.88
-9.94
2.55
15.56
29.40
43.17
55.18
64.16
70.13
74.41
78.75
84.05
89.70
93.95
94.99
92.12
86.21
79.26
73.45
70.16
69.38
69.94
70.19
68.70
64.85
58.87
51.57
43.81
36.13
28.66
21.25
13.91
6.96
1.04
-3.18
-5.40
-5.93
-5.59
-5.32
-5.76
-6.98
-8.58
-10.07
-11.08
-11.63
-11.90
-12.14
-12.42
-12.72
-12.91
-12.94
-12.87
-12.81
-12.90
-13.16
-13.54
-13.83
-13.80
-13.21
-11.92
-9.92
-7.40
-4.65
-1.93
0.60
2.90
5.03
7.03
8.81
10.22
11.09
11.28
10.78
9.68
8.15
6.42
4.68
3.10
1.81
0.92
0.40
0.16
-0.00
-0.28
-0.81
-1.68
-2.78
-3.92
-4.84
-5.27
-5.14
-4.50
-3.58
-2.61
-1.68
-0.78
0.25
1.47
2.87
4.32
5.64
6.71
7.50
8.04
8.33
8.29
7.84
6.93
5.63
4.05
2.18
-0.19
-3.45
-7.93
-13.62
-20.02
-26.27
-31.46
-35.02
-36.91
-37.50
-37.30
-36.61
-35.48
-33.77
-31.36
-28.38
-25.09
-21.80
-18.66
-15.63
-12.53
-9.28
-5.95
-2.82
-0.25
1.44
2.13
1.96
1.26
0.47
-0.02
0.00
0.56
1.50
2.69
4.01
5.43
6.90
8.33
9.59
10.53
11.11
11.36
11.44
11.45
11.44
11.31
10.94
10.24
9.21
8.00
6.83
5.94
5.48
5.46
5.80
6.26
6.62
6.71
6.46
5.94
5.28
4.54
3.72
2.75
1.52
0.07
-1.50
-2.97
-4.17
-4.99
-5.40
-5.45
-5.16
-4.55
-3.63
-2.41
-0.97
0.50
1.75
2.46
2.41
1.50
-0.12
-2.10
-4.00
-5.50
-6.49
-7.06
-7.41
-7.67
-7.84
-7.80
-7.42
-6.71
-5.85
-5.09
-4.64
-4.57
-4.75
-4.96
-5.00
-4.80
-4.46
-4.14
-4.03
-4.16
-4.46
-4.80
-5.05
-5.14
-4.99
-4.54
-3.74
-2.57
-1.14
0.28
1.27
1.42
0.41
-1.84
-5.11
-8.93
-12.65
-15.67
-17.56
-18.17
-17.57
-15.96
-13.46
-10.22
-6.37
-2.20
1.88
5.46
8.30
10.38
11.90
13.06
13.98
14.68
15.10
15.29
15.36
15.43
15.50
15.40
14.89
13.83
12.24
10.29
8.32
6.58
5.28
4.48
4.13
4.12
4.27
4.38
4.24
3.66
2.59
1.06
-0.67
-2.21
-3.22
-3.48
-3.08
-2.34
-1.67
-1.43
-1.73
-2.49
-3.44
-4.36
-5.08
-5.53
-5.70
-5.57
-5.09
-4.25
-3.12
-1.84
-0.67
0.15
0.42
0.11
-0.67
-1.66
-2.53
-3.08
-3.28
-3.27
-3.23
-3.25
-3.24
-3.02
-2.43
-1.41
-0.12
1.22
2.36
3.10
3.41
3.29
2.79
1.96
0.87
-0.36
-1.55
-2.53
-3.19
-3.51
-3.57
-3.50
-3.43
-3.47
-3.65
-3.94
-4.26
-4.52
-4.66
-4.69
-4.71
-4.79
-5.02
-5.37
-5.80
-6.21
-6.51
-6.73
-6.92
-7.15
-7.41
-7.63
-7.74
-7.71
-7.61
-7.61
-7.82
-8.26
-8.86
-9.43
-9.86
-10.11
-10.27
-10.48
-10.85
-11.40
-12.00
-12.39
-12.33
-11.68
-10.39
-8.56
-6.32
-3.78
-1.02
1.90
4.85
7.64
10.05
11.84
12.83
12.98
12.39
11.26
9.83
8.36
7.06
6.04
5.37
5.05
5.00
5.12
5.27
5.36
5.32
5.16
4.90
4.62
4.34
4.08
3.80
3.44
2.94
2.24
1.30
0.15
-1.13
-2.40
-3.45
-4.12
-4.35
-4.22
-4.00
-3.99
-4.38
-5.20
-6.22
-7.13
-7.67
-7.81
-7.73
-7.79
-8.30
-9.40
-11.00
-12.81
-14.48
-15.69
-16.29
-16.20
-15.43
-14.05
-12.23
-10.25
-8.46
-7.17
-6.50
-6.38
-6.56
-6.72
-6.60
-6.03
-4.91
-3.17
-0.79
2.11
5.23
8.06
10.10
11.07
11.04
10.28
9.07
7.44
5.16
2.10
-1.56
-5.21
-8.07
-9.60
-9.76
-9.03
-8.05
-7.23
-6.54
-5.62
-4.14
-2.15
-0.08
1.51
2.28
2.27
1.83
1.40
1.31
1.51
1.59
0.94
-0.96
-4.28
-8.87
-14.18
-19.54
-24.11
-27.36
-29.37
-30.74
-32.16
-34.10
-36.80
-40.43
-45.01
-49.93
-54.40
-57.48
-58.52
-57.22
-53.94
-49.44
-44.43
-38.91
-31.44
-20.55
-5.95
11.05
28.40
44.66
59.98
74.18
86.02
95.03
101.87
107.57
112.22
115.21
115.28
110.62
102.11
88.17
70.36
52.97
41.72
41.05
53.48
78.80
114.32
152.44
184.33
203.00
204.27
187.54
154.29
108.46
55.39
0.64
-51.14
-95.53
-127.92
-145.73
-149.36
-143.67
-134.63
-127.00
-122.85
-122.13
-122.32
-119.53
-111.61
-91.54
-60.78
-27.25
0.11
16.45
20.28
13.15
-1.12
-20.03
-40.76
-62.13
-82.21
-98.46
-108.99
-115.36
-120.78
-123.46
-124.30
-123.96
-121.75
-113.44
-93.27
-51.98
6.39
66.23
111.09
135.60
143.31
138.80
127.57
112.57
98.39
89.72
91.45
108.57
142.38
188.34
236.17
274.65
295.86
297.29
282.95
259.80
236.28
217.77
204.21
190.48
171.16
143.69
108.09
67.81
25.05
-13.04
-39.61
-64.09
-98.10
-149.03
-209.70
-271.60
-324.26
-364.04
-390.71
-406.83
-393.21
-341.94
-261.74
-171.96
-105.56
-57.57
-21.81
3.67
21.80
28.83
18.25
-13.84
-66.45
-134.81
-208.51
-279.68
-339.87
-380.94
-398.08
-392.18
-367.67
-329.99
-284.24
-231.84
-175.65
-117.19
-57.10
2.93
59.23
107.87
146.00
172.13
187.44
192.47
189.16
181.00
171.51
162.73
155.00
147.35
138.71
129.58
121.11
115.74
115.87
122.05
132.17
142.46
148.99
149.26
142.86
130.70
114.35
95.39
74.90
53.61
32.28
11.82
-6.60
-21.74
-32.56
-38.56
-40.39
-39.96
-39.86
-41.79
-45.22
-47.06
-42.89
-29.35
-6.37
22.43
51.49
76.03
94.34
108.10
120.35
133.29
146.57
157.30
161.45
156.09
141.01
119.18
95.85
76.45
64.61
60.72
62.15
64.63
64.47
60.32
53.40
46.33
41.37
39.30
39.28
39.80
39.71
38.70
37.28
36.38
37.22
41.43
50.72
66.02
86.52
109.11
128.48
138.61
134.75
114.90
80.31
34.88
-16.19
-67.72
-115.27
-155.69
-187.15
-209.29
-223.09
-230.32
-232.28
-228.23
-214.97
-188.25
-145.89
-90.70
-31.26
20.28
52.76
60.25
44.00
11.19
-28.32
-65.11
-91.86
-103.36
-96.35
-69.86
-26.33
27.60
82.34
128.57
160.79
179.42
190.00
199.63
213.21
231.03
248.96
260.85
261.83
250.17
227.38
196.66
160.85
121.51
79.39
35.69
-7.24
-46.05
-77.76
-101.12
-117.14
-128.38
-137.48
-145.81
-152.95
-157.24
-157.01
-151.80
-142.83
-132.59
-123.83
-118.48
-116.97
-118.30
-120.66
-122.36
-122.67
-121.95
-121.28
-121.83
-124.08
-127.83
-132.53
-137.64
-142.87
-148.33
-153.99
-159.44
-164.14
-167.72
-169.80
-169.64
-165.65
-155.49
-137.03
-109.29
-73.41
-32.88
7.38
42.67
69.95
88.42
99.07
103.28
102.57
98.52
92.87
87.87
86.14
89.84
99.55
113.07
124.68
128.35
120.23
100.21
71.73
40.51
12.42
-8.34
-20.08
-25.12
-25.09
-19.59
-7.30
11.92
36.21
62.37
87.02
107.46
118.77
118.98
109.24
91.53
66.34
32.61
-11.12
-65.59
-130.05
-205.50
-286.91
-362.83
-419.62
-447.47
-443.75
-412.74
-363.32
-279.93
-168.34
-51.27
47.90
120.22
168.64
198.89
214.99
219.89
216.70
204.57
185.90
166.65
153.41
149.59
154.79
164.79
174.28
178.35
169.68
146.24
112.86
78.70
52.77
40.78
44.40
62.03
89.74
119.03
143.30
159.18
165.56
162.56
150.62
130.62
104.18
73.18
36.00
-8.66
-60.21
-116.05
-172.91
-228.28
-280.38
-327.61
-354.07
-348.34
-309.65
-249.20
-182.02
-118.91
-64.86
-20.97
13.53
40.14
58.23
67.50
69.23
66.55
63.15
61.57
62.76
66.41
71.76
76.28
77.90
76.18
72.47
69.02
67.53
68.66
72.17
77.41
82.50
85.70
86.22
84.20
80.60
76.07
70.71
64.24
56.34
46.30
33.69
19.71
5.21
-8.52
-20.36
-29.65
-36.22
-40.24
-42.34
-43.22
-43.33
-43.00
-42.17
-40.80
-38.91
-36.70
-34.46
-32.56
-31.26
-30.49
-30.10
-29.64
-28.70
-27.11
-25.07
-23.09
-21.86
-21.84
-23.00
-24.90
-26.65
-27.43
-26.89
-25.37
-23.78
-23.29
-24.69
-27.98
-32.39
-36.52
-39.29
-40.13
-39.77
-38.94
-38.80
-40.29
-44.08
-50.53
-59.46
-69.52
-77.71
-79.88
-72.02
-52.56
-23.58
9.35
39.18
60.27
70.49
71.57
67.44
61.95
57.03
52.70
48.07
42.74
37.36
33.21
31.17
31.09
31.81
31.80
29.85
25.82
20.51
15.29
11.37
9.28
8.68
8.63
8.01
6.02
2.59
-1.75
-6.13
-9.79
-12.38
-14.10
-15.49
-17.21
-19.67
-22.96
-26.81
-30.78
-34.50
-37.81
-40.82
-43.77
-46.95
-50.46
-54.23
-57.97
-61.22
-63.54
-64.47
-63.67
-60.99
-56.20
-49.20
-40.04
-28.92
-16.16
-2.31
11.98
25.98
38.91
50.11
59.02
65.32
68.97
70.14
69.13
66.34
62.15
56.96
51.16
45.07
39.10
33.72
29.29
26.02
23.88
22.65
21.91
21.23
20.22
18.79
17.32
16.26
16.07
16.96
18.81
21.19
23.55
25.49
27.09
29.20
32.71
38.26
45.87
54.73
63.36
70.11
73.87
74.61
73.78
73.19
74.38
77.89
82.88
87.43
89.42
87.55
79.70
67.20
52.36
37.45
24.05
13.04
4.64
-2.02
-9.10
-20.33
-39.42
-69.69
-111.68
-161.92
-213.61
-259.10
-293.42
-315.81
-329.54
-338.68
-345.20
-346.99
-338.57
-314.31
-271.95
-214.80
-149.52
-82.33
-17.48
44.12
104.23
164.64
224.36
279.12
322.46
350.25
358.50
348.42
325.00
294.40
261.84
230.09
204.34
183.56
165.48
148.23
131.41
115.59
99.80
84.56
70.73
59.26
50.36
45.00
44.13
47.41
53.59
59.76
62.36
58.28
46.39
27.75
5.92
-15.18
-32.83
-46.27
-56.90
-65.87
-73.22
-77.75
-78.05
-72.96
-62.62
-48.45
-32.37
-15.89
0.75
18.82
39.40
62.56
86.96
109.68
127.00
135.80
134.68
124.65
108.31
88.47
67.00
44.37
20.11
-6.17
-33.87
-61.21
-85.90
-106.39
-122.76
-136.64
-150.37
-165.71
-183.08
-201.51
-219.44
-235.52
-249.15
-260.39
-269.18
-274.76
-275.57
-270.02
-257.38
-238.41
-215.22
-190.58
-167.16
-147.03
-131.55
-121.28
-115.69
-112.65
-108.19
-97.16
-74.70
-38.15
11.50
69.27
127.36
177.28
212.53
230.36
232.38
223.67
210.83
199.67
193.44
192.38
194.63
197.65
199.50
199.14
196.12
190.09
180.90
169.00
156.01
144.49
137.06
135.22
138.41
143.85
147.13
143.52
129.66
105.03
72.49
37.60
6.86
-14.73
-25.65
-28.41
-28.26
-30.89
-40.13
-56.71
-78.41
-101.05
-119.68
-129.52
-126.91
-110.25
-80.82
-42.94
-3.00
32.67
60.03
78.44
90.03
97.55
102.03
101.92
94.06
76.06
48.19
13.77
-22.36
-56.13
-86.03
-113.53
-141.91
-174.74
-214.46
-261.56
-314.06
-367.44
-415.06
-449.53
-465.24
-460.78
-439.86
-409.81
-378.55
-351.40
-329.75
-311.98
-295.75
-279.97
-265.09
-251.96
-240.33
-228.31
-213.35
-193.88
-170.57
-146.22
-124.67
-109.04
-100.57
-98.35
-99.79
-101.75
-101.41
-97.16
-88.84
-77.57
-64.82
-51.64
-37.90
-22.15
-2.12
24.33
58.14
98.52
142.99
188.30
231.34
270.09
304.05
334.00
361.48
388.43
416.96
449.03
485.59
525.30
563.78
594.05
608.45
601.58
572.63
525.83
468.86
409.84
354.59
305.55
262.49
224.12
189.45
158.04
129.32
101.67
72.42
38.74
-0.73
-44.66
-88.99
-127.90
-155.98
-170.13
-170.63
-160.86
-145.70
-129.80
-116.14
-105.59
-97.39
-90.06
-82.21
-73.19
-63.22
-53.20
-44.15
-36.80
-31.51
-28.42
-27.91
-30.76
-37.76
-49.01
-63.45
-78.87
-92.61
-102.49
-107.34
-107.02
-102.03
-93.25
-81.89
-69.65
-58.69
-51.10
-48.27
-50.18
-55.41
-61.70
-66.79
-68.91
-67.08
-61.15
-51.74
-40.16
-28.23
-17.77
-10.07
-5.43
-3.14
-1.91
-0.58
1.40
3.88
6.19
7.42
6.79
3.87
-1.09
-7.08
-12.28
-14.39
-11.33
-2.13
12.58
30.68
49.27
65.48
77.09
82.89
82.64
76.89
66.84
54.09
40.39
27.05
14.71
3.35
-7.44
-17.97
-28.32
-38.39
-48.16
-57.78
-67.29
-76.25
-83.47
-87.31
-86.35
-80.12
-69.36
-55.87
-41.85
-29.13
-18.65
-10.34
-3.47
2.84
9.10
15.23
20.70
24.88
27.48
28.56
28.50
27.71
26.46
24.85
22.87
20.52
17.95
15.36
12.88
10.50
8.06
5.32
2.12
-1.58
-5.75
-10.34
-15.31
-20.59
-26.07
-31.48
-36.36
-40.10
-42.10
-41.90
-39.43
-34.96
-29.23
-23.28
-18.20
-14.81
-13.38
-13.56
-14.55
-15.52
-16.00
-16.07
-16.09
-16.32
-16.45
-15.69
-13.00
-7.59
0.78
11.64
24.06
36.88
48.99
59.45
67.52
72.74
75.08
74.90
72.96
70.18
67.39
65.18
63.90
63.85
65.38
68.77
73.95
80.25
86.39
90.82
92.35
90.74
86.87
82.45
79.35
78.85
81.31
86.18
92.35
98.55
103.54
106.29
106.20
103.36
98.88
94.64
92.61
93.78
97.52
101.46
102.52
98.40
88.75
75.41
61.56
50.03
41.95
36.71
32.35
26.99
19.79
10.99
1.11
-9.99
-23.58
-41.73
-65.34
-93.70
-124.02
-152.26
-174.76
-189.90
-198.68
-204.27
-211.18
-222.69
-241.12
-266.76
-297.61
-329.41
-356.15
-371.22
-369.58
-350.01
-314.38
-268.23
-217.87
-167.77
-119.03
-69.86
-17.73
40.29
95.90
141.83
169.63
174.07
155.66
120.55
78.10
38.48
10.07
-3.26
-1.45
11.57
31.09
53.96
78.73
104.22
128.39
147.90
159.24
161.40
155.52
144.83
133.50
124.95
120.67
120.27
121.50
121.48
118.75
113.22
105.80
98.00
90.88
84.48
77.93
69.21
56.57
39.52
19.03
-3.38
-25.65
-46.16
-64.24
-80.08
-95.53
-112.52
-132.84
-153.55
-172.43
-187.32
-196.50
-198.94
-187.86
-160.10
-116.01
-59.89
1.90
62.54
117.22
163.46
200.58
229.10
249.02
261.53
267.63
268.62
265.66
260.11
253.14
245.55
237.54
227.82
216.35
202.91
187.83
171.71
155.74
141.46
130.50
124.35
123.50
127.82
136.34
147.75
160.72
174.11
187.21
199.50
210.44
218.78
222.65
219.56
207.24
184.36
151.11
109.24
61.41
10.27
-42.70
-97.45
-155.22
-217.56
-285.51
-359.21
-437.75
-519.07
-599.55
-673.98
-735.81
-778.56
-797.63
-791.92
-764.21
-720.18
-666.64
-609.87
-554.98
-505.85
-465.69
-436.69
-419.01
-409.85
-403.30
-391.35
-366.05
-322.20
-259.33
-182.77
-103.19
-34.16
11.63
26.70
11.86
-23.56
-64.97
-97.84
-112.87
-108.40
-88.85
-60.91
-29.52
3.87
39.99
79.07
118.96
155.36
183.96
202.78
212.98
218.17
222.68
230.11
242.64
260.91
283.40
305.69
320.52
319.70
297.55
254.61
199.09
144.78
105.59
89.87
97.20
119.72
147.08
172.17
194.25
217.77
248.10
286.69
328.80
365.10
385.86
385.20
363.32
325.60
279.79
232.53
187.33
144.40
102.15
59.35
17.08
-20.66
-47.77
-58.37
-49.86
-24.66
10.28
46.15
76.19
98.35
114.72
128.67
141.23
148.93
144.80
122.23
79.49
22.39
-36.44
-82.22
-104.45
-101.60
-81.56
-57.39
-40.67
-36.41
-42.15
-51.51
-59.15
-63.55
-66.03
-67.74
-67.50
-62.84
-53.57
-44.58
-44.71
-61.63
-95.64
-137.35
-171.16
-182.72
-166.12
-126.70
-78.09
-35.76
-12.04
-12.56
-36.67
-79.27
-132.65
-187.58
-234.34
-264.13
-271.09
-255.79
-225.37
-191.96
-168.18
-162.15
-174.27
-197.50
-220.59
-232.68
-228.19
-206.88
-172.66
-130.64
-84.54
-36.00
14.25
61.80
103.70
132.84
143.12
132.51
105.18
71.13
42.44
28.03
29.57
41.68
54.80
61.91
62.26
60.79
63.56
72.23
81.64
82.14
65.71
30.60
-16.22
-62.21
-95.02
-107.73
-100.99
-80.98
-55.12
-28.00
-0.26
30.70
67.56
110.25
154.72
194.48
223.76
240.54
247.63
250.96
256.71
268.27
284.64
301.27
311.92
310.85
294.17
260.47
210.84
149.48
83.85
24.20
-18.46
-35.75
-25.53
6.22
46.96
82.47
102.80
106.41
99.80
92.93
92.68
98.50
102.54
94.30
66.92
21.50
-33.02
-84.25
-122.61
-145.89
-159.44
-172.12
-190.37
-213.76
-234.99
-244.33
-236.03
-212.98
-186.64
-171.44
-176.97
-202.41
-236.83
-265.32
-276.93
-269.63
-249.88
-227.26
-208.39
-193.82
-179.58
-161.72
-140.23
-119.75
-106.37
-103.56
-109.53
-117.76
-120.37
-111.89
-91.47
-62.25
-28.95
5.28
38.87
70.96
100.16
123.85
139.08
144.11
139.51
128.36
117.30
113.44
122.50
146.57
182.62
222.54
254.99
269.06
258.72
228.76
191.95
164.29
158.05
176.52
213.16
255.62
291.56
313.60
324.70
332.68
345.70
368.22
400.08
438.99
483.66
535.38
573.57
581.83
548.96
474.96
371.02
253.18
135.27
26.13
-69.62
-150.14
-211.82
-252.84
-274.01
-279.36
-275.22
-268.10
-262.55
-260.47
-261.81
-262.73
-259.64
-250.58
-236.09
-218.85
-202.18
-188.55
-178.88
-172.88
-167.90
-161.44
-152.01
-139.74
-126.17
-113.25
-102.39
-94.04
-87.84
-82.26
-75.93
-68.16
-59.25
-50.30
-42.38
-36.08
-31.26
-27.19
-22.75
-17.21
-10.52
-3.39
3.16
8.46
12.46
15.70
19.06
23.29
28.82
35.76
44.48
53.52
60.92
63.87
59.38
45.54
22.86
-5.35
-33.95
-57.76
-73.69
-81.36
-82.77
-80.75
-77.37
-73.18
-67.71
-60.43
-51.70
-42.88
-35.48
-30.47
-27.78
-26.49
-25.29
-23.21
-20.06
-16.48
-13.48
-11.74
-11.31
-11.58
-11.65
-10.70
-8.47
-5.33
-2.09
0.44
1.85
2.28
2.29
2.40
3.05
4.38
6.15
7.93
9.22
9.74
9.47
8.69
7.59
6.47
5.57
4.86
4.04
2.62
0.11
-3.97
-8.76
-13.98
-19.30
-24.35
-28.93
-33.04
-36.67
-39.77
-42.26
-44.08
-45.71
-47.36
-48.79
-49.67
-49.69
-48.61
-46.15
-42.09
-36.42
-29.74
-22.65
-15.24
-7.47
0.98
10.93
23.86
41.33
65.39
94.43
124.26
150.61
170.35
181.55
182.80
173.49
154.35
128.22
100.56
75.60
57.65
48.56
47.43
51.09
55.43
56.72
52.34
40.82
23.35
2.49
-20.14
-42.98
-64.61
-83.56
-98.89
-110.55
-119.47
-126.77
-132.86
-139.55
-148.12
-159.15
-172.40
-187.65
-205.23
-225.75
-249.33
-262.60
-255.62
-225.50
-178.74
-126.22
-76.85
-34.95
-1.01
26.51
49.61
67.78
79.96
85.59
85.66
82.32
78.04
74.77
73.73
75.30
77.67
78.83
77.48
73.74
68.75
63.92
60.33
58.60
58.80
59.73
60.12
59.17
57.03
54.40
52.21
51.19
51.73
53.90
57.05
60.41
63.30
65.39
66.32
66.09
64.44
61.10
55.84
48.43
38.82
27.32
15.05
2.67
-8.99
-19.25
-27.66
-33.96
-38.18
-40.51
-41.26
-40.77
-39.51
-37.79
-35.88
-33.97
-32.12
-30.39
-28.82
-27.40
-26.03
-24.79
-23.66
-22.65
-21.77
-20.96
-20.27
-19.69
-19.24
-18.82
-18.53
-18.37
-18.33
-18.71
-19.26
-19.95
-20.81
-21.86
-23.04
-24.46
-26.16
-28.12
-30.28
-32.44
-34.42
-35.91
-36.97
-36.83
-35.14
-31.63
-26.17
-18.84
-9.85
0.35
11.23
22.07
32.35
41.48
49.01
54.73
58.56
60.61
61.12
60.39
58.82
56.86
54.79
52.82
51.14
49.80
48.82
48.10
47.57
47.14
46.83
46.41
45.78
44.87
43.60
41.97
40.06
38.07
36.26
35.00
34.16
33.66
33.34
32.87
31.87
30.09
27.50
24.42
21.54
19.19
17.87
17.95
19.57
22.65
27.10
32.87
40.09
49.11
59.49
70.57
81.23
89.82
94.40
93.20
84.82
68.16
47.31
24.39
0.85
-22.78
-46.91
-72.45
-100.18
-130.08
-161.00
-191.10
-218.99
-243.77
-265.51
-285.31
-305.05
-327.05
-353.84
-387.49
-428.57
-475.40
-522.65
-562.22
-585.55
-586.93
-565.83
-527.15
-479.11
-429.79
-384.66
-345.10
-309.67
-276.24
-243.82
-212.73
-183.70
-156.58
-129.81
-101.12
-68.53
-31.47
8.82
49.44
87.03
118.97
144.25
163.75
179.62
194.36
209.70
225.96
242.01
256.03
266.43
272.86
276.50
279.82
285.83
297.19
315.47
340.70
371.14
403.07
431.04
448.36
448.28
425.81
379.76
313.98
236.67
157.79
85.46
23.53
-28.62
-73.97
-114.94
-151.59
-181.77
-203.02
-214.52
-217.78
-215.69
-210.68
-203.44
-193.09
-178.68
-160.48
-140.64
-122.20
-107.52
-97.15
-89.62
-82.03
-71.46
-56.19
-36.38
-14.00
8.23
28.25
45.55
61.37
77.98
97.36
120.18
145.88
173.31
201.67
230.70
260.09
288.65
313.97
333.11
343.97
346.70
343.51
337.48
330.24
320.53
304.70
279.25
244.08
203.87
166.57
139.01
122.78
113.21
102.63
86.03
65.09
47.76
43.14
54.55
75.84
93.22
91.97
64.20
12.48
-52.37
-117.79
-175.82
-225.61
-270.72
-314.04
-353.69
-382.61
-391.93
-376.04
-335.82
-278.66
-215.24
-155.12
-103.46
-60.37
-22.32
14.72
53.11
93.23
134.89
178.76
226.87
281.16
341.33
404.21
462.74
508.08
533.18
535.89
519.54
491.67
459.96
429.19
402.06
377.89
354.11
328.22
299.25
267.36
234.37
201.76
170.30
143.37
123.59
111.76
106.91
107.12
109.43
112.32
113.73
111.24
106.55
101.33
96.01
89.92
82.83
74.43
67.20
63.15
39.99
-11.44
-84.73
-161.70
-225.29
-259.65
-272.58
-272.59
-266.55
-259.88
-254.68
-251.13
-249.96
-252.59
-259.78
-272.29
-288.19
-306.23
-326.54
-347.48
-368.97
-393.27
-423.89
-462.78
-508.95
-555.39
-592.58
-611.75
-606.13
-575.06
-524.55
-464.74
-405.47
-353.73
-311.29
-277.22
-250.19
-228.82
-212.68
-201.96
-196.41
-194.72
-195.16
-195.65
-195.12
-193.68
-191.80
-189.86
-187.85
-185.20
-181.02
-174.62
-165.78
-155.15
-144.15
-134.34
-126.82
-121.92
-119.15
-117.53
-116.09
-114.22
-111.90
-109.51
-107.63
-106.55
-106.21
-106.06
-105.31
-103.16
-98.93
-92.25
-83.00
-71.22
-56.95
-40.30
-21.41
-0.53
21.88
45.22
68.80
91.91
113.99
134.66
153.71
170.94
186.17
199.02
209.10
216.03
219.68
220.25
218.32
214.76
210.49
206.26
202.41
198.88
195.46
191.98
188.61
185.80
184.19
184.15
185.48
187.24
188.06
186.63
182.47
176.25
169.82
165.64
165.92
171.79
182.84
197.58
213.99
230.52
246.68
263.04
281.01
302.45
329.39
363.41
404.66
450.70
495.78
531.68
549.90
544.73
515.48
466.82
406.91
344.09
284.11
228.91
177.41
127.43
77.71
28.98
-16.23
-54.90
-85.07
-106.70
-121.30
-130.37
-133.95
-129.61
-113.33
-81.63
-33.83
26.62
92.81
156.41
210.12
249.28
272.24
279.69
273.80
257.46
233.78
205.54
174.68
142.26
108.95
75.90
45.24
19.64
1.17
-10.17
-17.12
-24.79
-38.83
-63.64
-100.94
-149.35
-204.52
-259.91
-307.87
-341.32
-355.63
-350.09
-328.56
-298.86
-270.70
-252.72
-249.56
-260.46
-279.86
-299.98
-314.67
-322.40
-326.47
-332.62
-344.61
-360.57
-372.50
-370.00
-346.29
-303.18
-251.21
-204.53
-173.36
-158.65
-151.73
-139.55
-111.94
-66.59
-9.50
48.67
98.02
133.32
154.42
164.34
166.05
160.19
144.83
117.34
76.96
26.84
-25.59
-70.26
-97.83
-103.30
-87.95
-58.83
-25.81
1.98
19.03
24.24
19.89
9.86
-1.87
-11.92
-17.98
-19.19
-16.66
-13.51
-14.25
-22.98
-41.42
-67.56
-95.63
-117.72
-126.18
-115.88
-85.65
-38.74
17.73
74.18
120.49
148.42
153.91
138.53
109.42
77.44
54.00
47.71
61.86
93.63
135.07
175.80
206.01
219.10
212.92
189.63
154.33
113.08
71.12
31.75
-3.85
-35.63
-63.32
-85.19
-97.68
-96.70
-80.05
-49.94
-13.81
17.73
35.27
35.12
21.16
2.62
-10.76
-13.56
-6.36
5.93
17.51
24.26
23.93
15.22
-3.17
-31.64
-67.53
-103.87
-130.28
-136.58
-117.08
-73.26
-13.08
52.00
110.57
153.89
176.39
175.78
153.25
113.83
66.24
21.40
-10.43
-22.86
-15.59
5.76
31.83
52.97
62.36
57.58
40.26
14.50
-15.39
-46.66
-79.33
-115.50
-157.69
-206.38
-258.27
-306.59
-343.45
-363.34
-365.74
-355.39
-339.88
-326.03
-317.38
-313.20
-310.27
-305.41
-297.14
-286.12
-274.06
-262.30
-251.02
-239.41
-226.41
-211.45
-194.91
-177.93
-161.87
-147.70
-135.76
-125.71
-116.59
-107.06
-95.99
-82.62
-66.91
-49.50
-31.21
-12.52
6.80
27.23
48.75
70.05
88.71
102.29
109.94
113.28
115.97
122.21
134.68
153.40
175.93
198.85
219.62
237.89
255.41
274.36
295.17
314.93
327.57
326.44
307.84
273.93
232.80
195.57
171.16
162.68
166.80
176.80
186.72
194.00
198.81
201.36
199.35
187.91
162.57
122.63
72.90
22.32
-20.00
-48.58
-63.44
-69.01
-71.16
-74.12
-78.83
-83.37
-84.71
-80.92
-72.65
-63.06
-56.57
-56.78
-64.83
-78.84
-94.85
-108.55
-116.81
-118.36
-113.49
-103.04
-87.70
-67.77
-43.69
-16.54
11.84
39.47
65.26
89.88
115.73
145.54
180.06
216.22
247.19
264.91
264.00
244.92
214.31
182.09
157.05
143.40
140.63
145.37
154.67
167.92
186.42
211.11
240.62
270.55
294.81
308.16
307.34
291.22
260.08
215.46
160.62
101.27
45.16
0.48
-25.87
-31.58
-20.07
0.66
21.21
34.55
38.57
35.79
30.48
27.64
28.08
28.13
21.98
5.91
-18.27
-42.94
-58.11
-56.38
-32.09
12.04
65.94
115.61
148.65
159.18
149.46
127.69
103.86
93.90
109.01
152.91
220.87
302.57
387.01
466.21
535.82
594.20
651.31
716.62
795.33
885.79
981.65
1076.77
1169.03
1260.08
1288.98
1212.14
1013.60
719.06
383.45
60.96
-216.45
-441.68
-623.94
-777.70
-903.20
-993.30
-1038.14
-1033.72
-987.37
-916.45
-842.44
-783.56
-749.00
-729.54
-709.81
-677.42
-630.53
-577.76
-531.36
-499.32
-482.07
-473.92
-462.59
-439.29
-402.30
-357.08
-312.52
-276.05
-250.18
-232.84
-219.83
-205.16
-185.32
-160.16
-132.34
-105.84
-83.48
-65.78
-51.43
-38.59
-25.46
-11.77
1.21
11.10
15.52
13.21
4.59
-8.51
-23.55
-38.05
-49.97
-57.83
-60.74
-58.11
-49.88
-36.46
-18.86
1.33
21.94
40.64
55.33
64.42
67.35
64.12
55.41
42.32
27.04
11.20
-3.88
-17.19
-28.22
-36.55
-42.51
-46.64
-49.62
-51.98
-54.04
-55.93
-57.41
-59.64
-60.70
-59.46
-55.04
-46.91
-34.98
-19.53
-1.59
17.38
35.52
51.58
64.15
72.16
75.05
72.79
66.06
55.43
43.19
29.87
16.48
3.80
-7.58
-17.06
-26.21
-33.28
-36.94
-36.10
-30.17
-18.38
-0.50
22.86
50.62
81.20
113.07
144.08
172.20
195.70
213.83
226.54
234.06
237.14
236.62
233.44
227.79
219.45
207.68
191.45
173.02
153.74
134.72
116.58
99.51
82.95
66.06
48.14
29.14
9.80
-9.06
-26.41
-41.77
-55.45
-68.93
-84.31
-103.50
-127.38
-155.39
-186.02
-216.88
-245.85
-271.81
-295.36
-318.88
-346.04
-380.41
-423.54
-473.27
-522.70
-561.36
-578.37
-566.71
-526.29
-464.17
-391.84
-320.43
-256.67
-201.13
-149.86
-97.42
-40.16
22.29
87.05
148.83
200.82
235.63
247.33
233.81
199.29
154.20
111.97
83.56
72.38
73.21
75.52
70.20
55.02
36.01
24.21
29.74
56.89
102.62
158.37
213.52
258.33
285.83
292.44
278.21
246.87
205.15
160.61
119.34
83.65
51.90
20.41
-13.08
-46.95
-75.37
-90.31
-85.44
-59.11
-15.58
36.14
85.10
121.62
139.29
135.42
110.53
67.62
11.76
-49.53
-106.29
-147.66
-164.74
-154.01
-119.36
-71.55
-24.62
9.06
23.29
19.60
5.61
-8.95
-16.73
-15.05
-5.87
6.47
17.72
25.32
28.52
27.40
21.54
9.47
-10.60
-39.33
-74.43
-109.97
-138.00
-151.78
-149.20
-134.27
-115.32
-100.59
-93.34
-90.01
-82.53
-63.80
-32.77
3.99
35.57
52.49
51.38
35.67
12.32
-12.43
-36.18
-60.19
-87.27
-119.41
-157.08
-200.09
-248.61
-302.80
-361.20
-418.92
-467.48
-497.16
-500.78
-476.77
-430.02
-370.03
-307.30
-249.98
-202.19
-164.29
-134.51
-110.71
-91.39
-75.60
-62.31
-49.99
-36.54
-19.84
1.60
28.25
59.21
92.52
125.65
156.23
182.71
204.96
224.12
242.18
261.27
282.90
307.71
335.41
364.88
393.95
419.39
437.10
443.06
435.20
415.02
388.13
362.56
345.25
338.65
338.99
337.91
326.71
301.13
264.07
224.40
192.42
174.52
169.86
170.66
166.10
147.14
110.15
57.47
-4.47
-67.91
-125.57
-171.16
-199.25
-205.61
-188.80
-152.05
-104.09
-57.24
-23.68
-11.29
-21.00
-47.00
-79.43
-108.06
-125.50
-128.33
-116.66
-92.70
-59.47
-20.43
20.57
59.22
91.12
112.74
122.32
120.65
110.86
97.43
84.81
76.04
72.00
71.39
71.39
68.56
60.18
45.22
24.89
2.19
-19.19
-36.21
-47.75
-54.48
-58.20
-60.63
-62.73
-64.47
-65.25
-64.23
-60.68
-54.02
-43.96
-30.88
-16.04
-1.53
10.71
19.85
26.52
32.32
38.56
45.02
49.84
50.15
43.31
27.71
2.78
-31.11
-72.62
-118.75
-164.29
-202.11
-224.95
-227.95
-211.20
-179.99
-143.17
-109.66
-85.36
-71.73
-66.21
-64.18
-61.13
-53.77
-40.46
-20.95
3.95
32.20
60.11
82.41
93.02
86.35
59.19
12.22
-49.68
-117.87
-181.56
-230.08
-255.71
-255.47
-231.94
-192.26
-145.70
-100.72
-62.94
-34.73
-16.21
-6.60
-4.70
-8.71
-15.71
-22.16
-25.16
-23.72
-19.00
-12.91
-6.02
3.85
21.04
49.24
88.25
132.37
171.89
196.59
200.14
182.78
151.13
115.64
86.80
72.08
74.05
90.47
115.74
142.92
165.63
179.17
180.97
170.40
148.83
119.66
88.13
60.65
43.15
39.04
47.36
62.84
78.03
86.50
85.05
73.93
55.07
29.79
-1.87
-39.55
-80.07
-116.05
-137.66
-136.91
-111.95
-68.41
-16.66
33.22
75.86
111.68
144.09
175.00
201.82
218.12
217.19
196.21
158.15
110.18
59.78
11.38
-34.39
-78.40
-120.16
-156.73
-184.42
-201.67
-210.68
-216.17
-221.89
-227.41
-227.77
-216.29
-188.77
-146.36
-95.07
-43.08
2.61
37.84
61.25
72.95
73.91
66.04
52.56
37.29
22.98
9.83
-4.92
-25.70
-56.58
-99.27
-152.04
-209.83
-265.20
-309.83
-336.15
-339.69
-320.72
-284.75
-241.00
-199.03
-165.19
-140.29
-120.20
-98.97
-72.87
-43.19
-15.92
1.08
2.15
-13.17
-39.69
-69.15
-93.95
-110.27
-118.64
-122.03
-122.97
-121.46
-115.02
-100.61
-77.35
-48.06
-18.60
4.51
17.21
19.46
15.29
10.70
11.12
19.64
36.81
61.82
93.76
131.70
173.55
214.59
247.63
265.41
264.36
247.67
224.94
208.62
208.67
228.49
264.57
309.83
358.24
407.50
458.26
510.65
560.92
601.04
621.61
616.49
586.19
537.97
482.86
431.02
388.22
354.73
326.94
300.21
271.27
239.20
204.99
170.34
136.67
104.67
74.25
44.77
15.44
-14.41
-45.09
-76.49
-108.44
-141.09
-175.03
-210.36
-245.50
-276.56
-298.09
-305.26
-296.40
-274.19
-244.73
-214.58
-187.51
-162.78
-136.43
-104.49
-66.49
-26.67
7.85
30.94
41.07
42.28
42.05
47.17
59.87
76.63
89.84
91.73
78.28
50.91
15.23
-22.01
-56.05
-85.61
-112.34
-138.76
-166.67
-196.53
-227.89
-259.97
-291.87
-321.92
-347.37
-364.79
-371.04
-364.41
-344.98
-314.37
-275.12
-230.15
-182.68
-136.06
-93.57
-57.66
-29.50
-8.76
5.78
15.55
21.92
26.11
29.41
33.04
37.48
41.94
45.02
45.73
44.45
43.02
43.88
48.79
58.13
71.23
86.74
103.07
118.16
129.24
133.06
126.73
109.09
81.49
47.63
12.49
-18.99
-42.62
-55.27
-55.03
-41.80
-17.60
13.46
46.30
76.39
100.76
117.97
127.15
127.08
115.84
91.66
54.06
4.65
-53.05
-114.33
-174.29
-228.61
-273.98
-308.54
-332.36
-347.39
-356.63
-362.53
-365.40
-363.30
-353.49
-334.73
-308.86
-280.56
-255.24
-236.63
-225.16
-218.21
-211.83
-202.62
-188.76
-170.04
-147.05
-120.55
-91.20
-59.65
-26.81
6.05
37.53
66.46
92.18
115.10
136.77
159.56
185.65
215.69
247.99
278.82
303.83
319.87
326.55
326.29
323.23
321.36
323.00
328.29
335.80
343.50
349.49
352.06
349.51
340.11
322.90
298.74
270.70
243.39
220.87
204.55
192.03
177.82
155.93
122.75
78.71
28.14
-22.62
-67.49
-102.34
-125.25
-136.14
-136.17
-127.41
-113.17
-97.95
-86.78
-83.68
-89.89
-102.99
-117.63
-127.93
-130.43
-125.56
-116.91
-108.51
-101.99
-95.53
-85.16
-67.67
-42.93
-14.21
13.75
37.25
54.90
66.89
73.12
72.17
62.04
42.20
15.30
-12.98
-35.59
-46.89
-44.42
-28.94
-3.35
28.61
62.88
95.03
120.36
134.79
136.49
127.17
111.63
95.58
82.65
72.47
61.21
44.15
18.60
-14.36
-50.55
-84.80
-113.23
-134.24
-148.12
-155.74
-157.83
-154.84
-147.28
-135.93
-121.79
-106.22
-91.19
-79.64
-75.06
-80.07
-94.69
-115.42
-136.06
-150.17
-153.62
-145.68
-128.16
-103.56
-73.95
-41.39
-8.87
19.39
39.37
49.39
51.41
50.09
50.10
53.41
58.60
62.61
63.28
60.82
57.21
54.28
52.52
51.61
51.96
55.53
64.81
80.42
99.65
117.38
128.76
131.64
126.95
116.86
102.46
83.02
57.53
27.09
-3.97
-29.60
-45.64
-52.71
-56.49
-64.82
-83.51
-113.17
-148.68
-181.63
-204.24
-212.65
-208.18
-196.26
-183.44
-174.30
-169.89
-168.38
-167.14
-165.16
-163.77
-165.63
-172.46
-183.13
-193.33
-197.11
-189.66
-169.50
-139.09
-103.72
-69.08
-38.80
-13.06
11.18
37.88
68.79
101.14
127.88
140.87
135.51
114.06
85.32
60.65
48.33
49.89
60.28
71.68
78.30
79.08
76.96
75.67
76.59
77.97
76.67
70.80
61.14
50.44
41.35
34.54
28.43
20.78
10.66
-0.61
-10.04
-14.86
-14.01
-8.38
0.43
11.67
26.20
45.45
69.51
95.38
117.32
129.14
127.49
113.64
93.07
72.49
56.63
46.53
40.35
35.60
31.31
28.59
29.57
35.89
47.70
64.11
84.08
107.02
132.34
158.48
182.49
200.46
208.91
205.83
190.95
165.04
129.04
83.69
30.05
-29.57
-90.87
-148.09
-195.13
-227.44
-243.26
-243.91
-232.89
-214.31
-191.60
-166.67
-140.06
-111.58
-81.41
-50.76
-21.91
2.48
20.64
32.90
42.27
53.99
74.07
107.49
156.36
218.90
289.26
358.56
416.84
455.42
469.24
458.09
426.44
381.54
330.83
279.45
229.47
180.58
132.03
84.15
38.78
-1.54
-35.19
-62.53
-85.90
-109.01
-135.88
-169.91
-212.60
-262.46
-313.98
-357.99
-383.72
-382.72
-352.99
-301.23
-241.95
-192.96
-169.46
-178.91
-219.04
-279.30
-344.77
-400.60
-435.34
-442.99
-423.68
-383.26
-331.46
-279.62
-237.32
-209.82
-196.87
-193.48
-192.41
-187.22
-174.50
-154.35
-130.29
-107.67
-91.65
-85.13
-87.56
-95.21
-102.58
-104.49
-96.56
-77.35
-48.54
-14.01
21.83
55.20
83.48
105.07
119.20
128.83
137.91
149.99
166.62
187.02
209.00
229.82
247.10
259.19
270.14
284.79
306.49
335.18
367.60
399.37
426.65
446.81
458.65
468.25
482.43
506.19
540.57
583.11
630.97
682.53
737.56
759.77
723.23
619.54
465.25
292.03
128.11
-11.00
-121.96
-208.25
-275.44
-323.01
-350.03
-357.39
-349.49
-333.85
-317.25
-304.09
-296.16
-293.07
-288.99
-278.55
-259.09
-229.59
-196.20
-164.94
-139.98
-123.18
-113.80
-107.07
-98.50
-85.29
-67.59
-48.29
-30.27
-15.66
-5.27
2.17
10.03
21.05
37.59
61.41
93.10
132.38
177.30
219.61
251.60
266.67
259.73
230.77
185.21
131.60
78.41
30.79
-9.97
-43.94
-72.55
-99.40
-126.44
-153.36
-178.30
-199.46
-216.56
-230.39
-240.82
-249.01
-259.26
-274.49
-294.81
-317.98
-341.32
-363.66
-384.88
-403.74
-395.33
-344.22
-251.65
-135.70
-18.04
87.37
175.15
239.76
288.64
325.80
349.55
358.39
352.98
335.85
311.49
282.43
250.14
216.76
181.48
142.10
99.13
56.04
17.57
-12.75
-33.94
-46.80
-52.12
-55.34
-61.05
-69.52
-77.65
-82.36
-83.14
-82.31
-83.39
-89.07
-107.15
-141.34
-188.52
-241.07
-292.09
-338.48
-380.52
-420.00
-458.79
-506.21
-566.59
-635.34
-700.81
-750.13
-773.85
-767.50
-731.87
-624.79
-442.33
-220.20
-10.71
152.79
265.74
339.08
385.59
414.25
430.02
428.67
410.78
383.94
359.47
346.26
347.07
359.49
378.40
397.71
405.96
396.45
370.31
331.92
288.38
245.74
208.04
176.97
151.87
126.73
97.33
63.84
30.23
1.28
-20.42
-34.98
-44.40
-51.35
-59.86
-71.96
-86.92
-101.85
-113.64
-120.65
-122.90
-121.50
-118.17
-115.32
-114.68
-116.57
-119.73
-121.99
-121.15
-115.66
-105.00
-90.04
-73.13
-57.75
-47.55
-45.07
-50.97
-63.78
-80.34
-96.93
-110.31
-118.91
-123.23
-125.20
-126.33
-127.73
-129.84
-132.66
-135.83
-138.46
-139.61
-138.81
-135.52
-128.02
-115.59
-99.01
-80.35
-61.56
-42.64
-22.65
-1.53
20.48
44.50
70.29
96.04
118.82
135.96
147.09
152.70
152.45
147.78
144.61
148.72
163.81
190.18
225.67
268.72
317.33
368.04
397.44
388.89
339.08
262.18
179.28
105.72
48.72
18.23
5.17
1.96
8.74
26.84
56.94
98.75
142.19
183.59
221.15
253.32
280.70
307.55
333.94
355.40
364.25
354.25
325.57
282.08
230.56
166.23
97.11
34.40
-14.16
-48.69
-74.01
-91.78
-107.82
-125.81
-146.59
-167.23
-186.90
-204.93
-221.94
-238.43
-253.78
-270.34
-290.23
-313.98
-338.22
-359.42
-375.04
-384.34
-388.17
-375.29
-342.47
-294.02
-239.52
-186.34
-138.02
-95.19
-57.77
-25.76
1.13
21.28
34.70
42.76
48.24
53.15
58.02
62.51
66.19
69.14
70.23
69.27
66.88
64.48
63.15
63.17
64.27
66.15
68.78
71.33
73.50
75.34
77.08
78.74
79.58
78.63
74.92
68.13
58.33
46.51
34.30
23.63
16.28
13.05
14.11
18.27
24.23
31.02
38.01
44.59
50.13
54.14
55.72
54.50
49.09
39.35
27.02
15.07
6.10
1.51
1.77
5.67
11.76
15.89
15.04
8.27
-3.70
-20.54
-43.29
-67.82
-91.85
-113.08
-133.45
-155.03
-178.60
-203.31
-227.94
-251.28
-271.89
-289.28
-282.60
-244.26
-183.15
-117.05
-58.36
-10.26
29.08
62.14
89.88
112.80
128.07
134.77
135.14
133.39
133.00
135.45
140.86
148.07
156.02
160.68
159.29
151.63
139.40
124.33
107.35
88.83
68.87
49.46
30.14
10.82
-7.48
-23.02
-34.53
-41.74
-45.12
-45.44
-43.48
-40.96
-38.96
-37.67
-36.62
-35.36
-33.73
-31.80
-29.61
-27.18
-24.98
-23.21
-21.83
-20.57
-19.28
-17.96
-16.70
-15.56
-14.54
-13.65
-12.77
-11.78
-10.60
-9.36
-8.27
-7.61
-7.57
-8.08
-8.96
-9.71
-9.98
-9.57
-8.72
-7.96
-7.93
-9.08
-11.41
-14.40
-17.15
-18.90
-19.32
-18.81
-18.29
-18.91
-21.44
-25.89
-31.79
-37.46
-41.79
-44.20
-45.09
-45.51
-46.60
-49.33
-54.33
-62.00
-72.06
-83.26
-92.65
-96.14
-89.90
-72.33
-45.58
-15.19
11.83
29.99
37.25
35.34
28.15
19.39
11.00
2.90
-5.65
-14.92
-23.85
-30.65
-33.88
-33.03
-28.75
-21.77
-12.86
-1.97
11.51
28.39
49.06
72.84
98.03
122.31
143.30
159.14
168.96
172.74
171.24
165.55
156.49
144.62
130.36
114.14
96.57
78.49
60.87
44.10
29.38
16.93
6.53
-2.39
-10.45
-18.08
-25.51
-32.69
-39.44
-45.40
-50.49
-54.60
-57.74
-59.98
-61.44
-62.27
-62.67
-62.83
-62.90
-63.13
-63.66
-64.50
-65.80
-67.29
-68.72
-69.79
-70.16
-69.46
-67.43
-63.91
-58.86
-52.53
-45.02
-36.72
-28.10
-19.71
-12.05
-5.55
-0.55
2.80
4.53
4.84
4.00
2.30
0.10
-2.28
-4.57
-6.59
-8.25
-9.50
-10.30
-10.67
-10.67
-10.36
-9.84
-9.12
-8.29
-7.44
-6.67
-6.12
-5.84
-5.91
-6.42
-7.40
-8.84
-10.72
-13.04
-15.83
-19.20
-23.10
-27.51
-32.44
-37.81
-43.56
-49.61
-55.95
-62.64
-69.85
-77.48
-85.48
-93.82
-102.37
-110.89
-119.17
-127.07
-134.59
-141.96
-149.09
-155.97
-162.42
-167.98
-171.88
-173.18
-170.91
-164.21
-155.09
-144.78
-134.24
-123.95
-113.72
-102.84
-90.41
-75.90
-59.54
-42.36
-25.57
-10.40
2.53
13.65
24.28
36.09
50.24
66.79
84.51
101.78
116.90
128.98
138.20
145.82
153.87
164.86
181.24
204.90
235.77
270.13
300.48
317.31
313.01
285.42
239.23
184.45
132.33
91.10
63.43
46.78
35.97
26.05
13.99
-1.19
-19.11
-38.46
-57.01
-71.61
-78.65
-75.34
-60.84
-36.63
-6.07
26.86
58.36
85.53
106.68
121.40
130.34
135.24
138.74
144.07
154.70
173.43
201.54
238.30
280.47
322.74
358.86
383.30
393.06
388.38
372.45
349.91
325.37
302.26
282.57
266.98
255.02
245.25
235.50
223.27
206.49
184.32
157.40
127.57
97.13
68.07
41.52
17.88
-3.00
-21.63
-38.85
-55.98
-74.44
-95.13
-118.06
-142.38
-166.60
-189.19
-209.26
-226.76
-242.80
-259.67
-280.34
-307.57
-342.35
-382.56
-422.56
-454.50
-470.66
-466.08
-440.06
-396.00
-339.98
-278.82
-218.70
-164.58
-120.02
-87.22
-66.69
-57.02
-55.08
-57.05
-59.76
-61.61
-62.64
-63.72
-65.70
-69.06
-73.83
-79.82
-87.04
-95.59
-105.33
-115.47
-124.30
-129.52
-129.15
-122.47
-110.41
-95.11
-78.68
-61.99
-44.67
-26.03
-6.61
11.05
23.08
26.25
20.13
7.82
-5.06
-12.80
-11.74
-0.96
18.58
45.45
78.53
116.43
156.24
192.89
220.09
232.58
228.37
209.80
182.62
153.65
128.42
109.74
97.72
90.89
87.44
85.96
85.53
85.44
85.00
83.71
81.36
78.03
73.75
68.31
61.29
52.31
41.54
29.88
18.76
9.47
2.62
-2.19
-6.13
-10.51
-16.12
-22.92
-30.09
-36.33
-40.31
-41.08
-38.23
-31.97
-23.20
-13.36
-4.36
1.84
3.79
1.08
-5.54
-14.33
-23.39
-31.13
-36.59
-39.41
-39.63
-37.56
-33.70
-28.77
-23.52
-18.58
-14.30
-10.60
-7.13
-3.52
0.39
4.51
8.62
12.58
16.42
20.19
23.83
27.01
29.26
30.04
28.91
25.64
20.40
13.81
6.94
1.00
-3.00
-4.66
-4.30
-2.83
-1.41
-0.98
-1.99
-4.22
-7.04
-9.73
-11.92
-13.70
-15.49
-17.70
-20.47
-23.71
-27.11
-30.25
-32.59
-33.39
-31.86
-27.48
-20.40
-11.64
-2.91
3.99
7.82
8.36
6.33
3.05
-0.16
-2.17
-2.20
0.34
5.75
13.91
24.17
35.51
46.86
57.49
67.13
75.93
84.17
91.97
99.28
105.91
111.70
116.48
120.05
122.00
121.91
119.59
115.44
110.43
105.92
103.07
102.40
103.67
106.13
108.94
111.35
112.62
111.59
106.65
95.90
78.01
52.96
22.35
-11.11
-44.74
-76.98
-107.67
-137.23
-165.49
-190.61
-209.28
-217.89
-214.41
-199.52
-176.67
-150.56
-125.42
-103.67
-85.72
-70.86
-58.36
-48.11
-40.48
-35.67
-33.27
-32.20
-31.13
-29.06
-25.67
-21.37
-16.97
-13.29
-10.77
-9.26
-8.02
-6.07
-2.59
2.59
8.76
14.53
18.49
19.88
18.88
16.49
13.90
11.98
10.97
10.80
11.19
11.93
12.79
13.49
13.74
13.27
11.90
9.60
6.44
2.66
-1.31
-4.96
-7.94
-10.26
-12.40
-14.98
-18.29
-21.87
-24.65
-25.63
-24.73
-23.07
-22.53
-24.81
-30.47
-38.74
-47.98
-56.37
-62.47
-65.33
-64.43
-59.70
-51.55
-41.05
-29.76
-19.29
-10.68
-4.21
0.61
4.61
8.61
13.11
18.31
23.90
29.09
32.79
33.94
31.98
27.19
20.69
13.99
8.42
4.65
2.61
1.77
1.56
1.58
1.66
1.62
1.05
-0.64
-3.86
-8.49
-13.80
-18.68
-22.19
-23.98
-24.35
-24.01
-23.47
-22.77
-21.62
-20.09
-18.97
-19.67
-23.43
-30.40
-39.22
-47.49
-52.76
-53.80
-51.24
-47.16
-44.09
-43.78
-46.48
-51.05
-55.67
-58.36
-58.11
-55.24
-51.00
-46.99
-44.33
-43.08
-42.31
-40.89
-37.67
-32.76
-27.34
-22.58
-18.71
-14.65
-8.70
0.18
11.44
24.34
37.67
50.91
64.79
80.83
100.24
122.99
147.45
170.89
192.70
213.77
236.69
264.66
299.97
342.81
391.30
442.65
483.20
502.44
493.52
455.13
391.52
310.84
222.97
137.95
64.51
8.17
-28.88
-49.96
-62.40
-74.29
-91.09
-113.97
-140.54
-167.22
-191.48
-211.21
-225.39
-233.26
-234.18
-228.14
-216.12
-200.33
-183.71
-169.32
-158.45
-151.04
-145.74
-140.52
-133.58
-123.95
-111.92
-98.71
-85.96
-74.63
-64.87
-56.11
-47.53
-38.76
-30.34
-23.57
-19.85
-19.87
-23.01
-27.65
-31.83
-33.92
-33.15
-29.66
-24.29
-18.22
-12.64
-8.59
-6.74
-7.41
-10.33
-14.86
-20.17
-25.55
-30.49
-34.56
-37.27
-37.86
-35.77
-31.00
-24.24
-16.77
-10.09
-5.50
-3.86
-5.47
-9.80
-15.42
-20.02
-20.96
-16.02
-4.64
11.39
28.41
42.07
49.21
49.00
43.09
34.60
26.52
20.48
16.32
12.77
8.45
2.74
-3.92
-10.33
-15.11
-17.51
-17.66
-16.48
-15.02
-13.97
-13.22
-12.19
-10.48
-8.23
-6.43
-6.38
-8.83
-13.41
-18.68
-22.75
-24.13
-22.45
-18.42
-13.34
-8.48
-4.65
-2.12
-0.79
-0.41
-0.53
-0.83
-1.09
-1.34
-1.79
-2.74
-4.37
-6.47
-8.59
-10.15
-10.93
-11.03
-10.85
-10.65
-10.24
-9.07
-6.46
-2.47
2.40
7.15
10.70
12.49
12.75
12.32
12.14
12.64
13.61
14.44
14.46
13.39
11.38
8.97
6.82
5.49
5.37
6.58
9.06
12.47
16.15
19.25
20.90
20.55
18.12
14.08
9.19
4.28
-0.06
-3.49
-5.86
-7.14
-7.39
-6.82
-5.74
-4.62
-3.90
-3.77
-4.10
-4.44
-4.34
-3.64
-2.57
-1.65
-1.38
-1.98
-3.29
-4.91
-6.44
-7.71
-8.73
-9.57
-10.15
-10.22
-9.53
-8.05
-6.09
-4.27
-3.27
-3.54
-5.13
-7.70
-10.69
-13.44
-15.49
-16.53
-16.58
-15.75
-14.26
-12.32
-10.02
-7.39
-4.43
-1.20
2.22
5.63
8.83
11.63
13.84
15.24
15.62
14.88
13.14
10.85
8.63
7.06
6.46
6.78
7.75
8.96
10.14
11.11
11.84
12.27
12.34
12.03
11.41
10.64
9.90
9.25
8.62
7.84
6.78
5.43
3.91
2.36
0.94
-0.32
-1.46
-2.61
-3.77
-4.89
-5.82
-6.44
-6.84
-7.24
-7.90
-8.95
-10.27
-11.53
-12.37
-12.66
-12.49
-12.04
-11.38
-10.28
-8.29
-5.08
-0.65
4.53
9.62
13.86
16.76
18.23
18.49
17.94
16.88
15.54
14.12
12.71
11.41
10.28
9.38
8.79
8.59
8.79
9.23
9.65
9.73
9.29
8.35
7.14
6.02
5.24
4.90
4.86
4.86
4.61
3.98
2.99
1.87
0.92
0.36
0.22
0.28
0.20
-0.26
-1.12
-2.15
-3.10
-3.83
-4.37
-4.90
-5.52
-6.15
-6.65
-6.93
-7.14
-7.54
-8.36
-9.53
-10.64
-11.12
-10.49
-8.67
-5.94
-2.82
0.15
2.56
4.21
5.08
5.28
4.97
4.28
3.37
2.41
1.59
1.14
1.19
1.76
2.70
3.74
4.61
5.18
5.49
5.73
6.11
6.67
7.35
8.01
8.53
8.87
9.07
9.12
8.98
8.60
7.99
7.25
6.57
6.15
6.11
6.51
7.35
8.56
10.03
11.63
13.23
14.74
16.16
17.60
19.24
21.30
23.95
27.18
30.82
34.48
37.76
40.39
42.50
44.62
47.58
52.16
58.76
67.11
76.37
85.35
92.90
98.29
101.18
101.70
100.20
97.12
92.91
87.80
81.71
73.89
62.90
46.83
23.91
-6.53
-43.44
-83.98
-124.21
-160.34
-189.97
-212.54
-228.96
-240.54
-248.12
-251.83
-251.32
-246.28
-236.55
-222.05
-202.62
-178.07
-148.52
-114.93
-79.26
-44.14
-12.31
14.13
34.18
47.91
56.06
59.69
59.78
57.00
51.62
43.72
33.38
21.28
8.89
-1.65
-8.22
-9.50
-5.55
2.23
11.69
20.72
27.91
32.68
35.04
35.25
33.57
30.39
26.43
22.87
21.03
21.94
25.84
32.14
39.69
47.31
54.18
59.94
64.58
68.22
71.04
73.28
75.22
77.14
79.18
81.28
83.28
85.04
86.62
88.20
89.97
91.95
93.94
95.61
96.65
96.88
96.33
95.27
94.08
93.06
92.26
91.23
88.90
83.79
74.61
60.75
42.84
22.65
2.55
-15.31
-29.70
-40.55
-48.63
-54.95
-60.20
-64.49
-67.51
-68.94
-68.87
-68.00
-67.50
-68.42
-71.22
-75.31
-79.34
-81.75
-81.59
-78.90
-74.58
-69.79
-65.38
-61.85
-59.54
-59.06
-61.25
-66.56
-74.14
-81.65
-85.76
-83.60
-74.28
-59.57
-43.66
-31.65
-27.74
-33.81
-49.01
-70.23
-93.31
-114.21
-129.85
-138.42
-139.09
-131.59
-116.20
-93.83
-66.36
-36.48
-7.29
18.66
39.99
56.65
69.39
79.03
85.86
89.51
89.30
84.65
75.51
62.49
46.83
30.25
14.77
2.55
-4.69
-6.30
-2.97
3.35
10.24
15.62
18.34
18.31
16.04
12.12
6.84
0.16
-7.95
-17.29
-27.31
-37.16
-45.95
-52.95
-57.82
-60.56
-61.50
-61.02
-59.25
-55.99
-50.91
-44.12
-36.48
-29.63
-25.22
-24.17
-26.15
-29.84
-33.92
-37.99
-42.65
-48.80
-56.42
-64.11
-69.60
-70.98
-67.78
-61.18
-53.15
-45.16
-37.41
-29.13
-19.48
-8.51
2.85
13.50
23.23
33.02
44.37
57.93
72.73
86.48
96.96
103.49
107.48
111.70
118.66
128.97
140.68
150.18
153.81
149.58
137.87
121.20
102.96
86.07
71.88
60.08
49.34
38.37
26.67
14.71
3.32
-7.26
-17.48
-28.08
-39.00
-48.69
-54.48
-53.93
-46.20
-32.74
-16.60
-0.96
12.15
22.15
29.46
34.61
37.79
39.09
38.86
37.83
36.73
35.82
34.59
32.23
28.30
23.15
17.82
13.37
10.32
8.37
6.76
4.90
2.71
0.59
-0.95
-1.71
-1.94
-2.24
-3.13
-4.86
-7.30
-10.09
-12.90
-15.50
-17.80
-19.84
-21.61
-23.04
-23.99
-24.33
-23.97
-22.94
-21.36
-19.45
-17.54
-15.97
-15.04
-14.78
-14.90
-15.02
-14.93
-14.85
-15.32
-16.81
-19.32
-22.20
-24.45
-25.26
-24.48
-22.70
-20.68
-18.82
-16.76
-13.67
-8.83
-2.35
4.61
10.28
13.10
12.47
8.93
3.89
-0.98
-4.22
-5.10
-3.83
-1.42
0.84
1.96
1.73
0.87
0.67
2.58
7.11
13.35
19.09
21.79
19.66
12.31
0.86
-12.62
-25.21
-34.80
-40.59
-43.18
-43.74
-43.33
-42.83
-43.29
-45.83
-49.62
-53.09
-54.46
-52.42
-46.52
-37.63
-27.83
-19.31
-12.50
-2.24
18.30
53.51
101.93
156.66
208.23
248.70
274.57
287.31
295.01
304.83
319.25
335.87
351.35
364.06
374.43
382.33
364.22
303.98
201.05
74.31
-49.46
-149.56
-217.59
-254.98
-269.43
-269.11
-255.81
-229.76
-192.38
-147.83
-101.42
-57.61
-18.88
12.83
37.82
60.45
82.95
103.03
108.86
93.41
54.87
-2.32
-69.79
-142.10
-211.10
-270.43
-317.05
-350.04
-370.26
-379.51
-365.61
-328.75
-275.53
-214.22
-153.81
-106.45
-71.85
-47.45
-29.79
-14.48
1.21
20.63
48.46
84.30
122.06
153.50
171.76
175.30
167.72
153.16
135.56
117.34
98.42
78.41
59.01
43.15
34.56
34.88
42.50
53.96
64.66
69.25
63.95
48.55
25.46
-1.24
-27.84
-53.01
-77.63
-99.36
-116.65
-128.27
-132.86
-129.53
-118.39
-101.18
-81.23
-62.21
-46.74
-36.30
-30.47
-27.28
-24.61
-21.19
-16.98
-12.71
-9.37
-7.49
-7.45
-9.11
-11.83
-14.55
-15.96
-14.56
-9.04
1.11
15.11
30.51
44.13
53.34
57.17
56.56
53.65
50.56
48.40
47.05
45.61
43.72
41.53
40.05
40.21
41.99
44.25
45.25
43.45
38.36
30.72
22.11
14.23
8.08
3.77
0.80
-1.42
-3.28
-4.83
-5.88
-6.12
-5.23
-3.05
0.10
3.65
6.85
8.97
9.72
9.29
8.27
7.37
6.90
6.50
5.59
3.80
1.14
-1.98
-5.12
-8.15
-11.56
-14.46
-16.92
-19.05
-20.73
-21.72
-21.82
-21.05
-19.67
-18.03
-16.44
-15.25
-14.53
-14.10
-13.73
-13.27
-12.72
-12.17
-11.64
-11.05
-10.39
-9.55
-8.56
-7.58
-6.83
-6.41
-6.16
-5.61
-4.21
-1.67
1.84
5.85
9.63
12.60
14.63
15.99
17.19
18.62
20.24
21.63
22.26
21.84
20.48
18.66
16.95
15.82
15.47
15.75
16.48
17.45
18.62
19.95
21.21
22.04
22.17
21.69
21.21
21.68
23.97
28.40
34.41
40.52
44.75
45.49
41.94
34.28
23.45
10.60
-2.93
-15.98
-27.94
-38.54
-47.66
-55.26
-61.44
-66.50
-71.00
-75.08
-78.80
-82.74
-87.85
-94.76
-103.55
-113.67
-124.19
-134.03
-141.25
-143.92
-141.43
-134.59
-124.99
-114.47
-104.77
-97.02
-91.25
-84.83
-73.73
-54.66
-26.10
11.70
56.61
104.83
152.71
189.57
206.41
203.12
186.40
163.27
137.93
111.94
85.81
60.00
35.18
12.99
-7.39
-27.80
-49.34
-69.90
-84.71
-88.69
-80.01
-61.08
-36.07
-9.65
14.33
35.09
55.38
77.19
100.04
118.58
126.37
121.80
112.28
101.16
87.96
69.53
40.15
-3.54
-61.89
-131.08
-197.90
-244.18
-256.21
-231.19
-177.89
-111.69
-47.68
3.38
37.69
58.02
69.79
76.85
80.83
82.92
82.02
78.26
72.96
67.86
63.75
59.37
51.91
40.03
25.63
13.03
7.36
11.80
26.57
48.14
70.42
87.08
94.47
92.55
83.73
71.52
58.80
47.32
37.91
30.75
25.46
21.25
17.11
11.91
5.01
-3.62
-13.19
-22.28
-29.17
-32.35
-30.99
-25.23
-16.31
-6.13
3.22
10.04
13.50
13.76
11.76
8.63
5.27
2.03
-1.22
-4.81
-8.94
-13.47
-17.96
-21.81
-24.60
-26.21
-26.90
-27.02
-26.90
-26.58
-25.92
-24.73
-22.93
-20.67
-18.32
-16.36
-15.12
-14.64
-14.69
-14.93
-15.12
-15.26
-15.62
-16.60
-18.39
-20.83
-23.43
-25.58
-26.81
-26.99
-26.39
-25.50
-24.86
-24.83
-25.64
-27.28
-29.64
-32.40
-35.01
-36.69
-36.56
-33.91
-28.42
-20.43
-10.85
-0.96
7.96
14.96
19.58
21.89
22.28
21.30
19.47
17.15
14.65
12.19
9.97
8.14
6.80
5.94
5.51
5.41
5.55
5.90
6.47
7.21
7.95
8.41
8.25
7.26
5.35
2.68
-0.45
-3.68
-6.68
-9.32
-11.62
-13.72
-15.80
-17.95
-20.10
-22.05
-23.67
-24.94
-26.03
-27.24
-28.79
-30.78
-33.09
-35.51
-37.74
-39.47
-40.36
-40.09
-38.49
-35.70
-32.10
-28.08
-23.71
-18.53
-11.86
-3.32
6.68
16.72
24.83
29.27
29.25
25.16
18.32
10.27
2.40
-4.27
-8.88
-10.53
-8.32
-1.73
9.09
23.10
38.56
53.50
66.22
75.64
81.39
83.67
83.16
80.73
77.30
73.56
69.80
65.89
61.34
55.66
48.57
40.12
30.75
21.05
11.57
2.60
-5.80
-13.82
-21.75
-29.71
-37.49
-44.38
-49.26
-51.00
-48.87
-42.96
-34.25
-24.30
-14.75
-6.83
-1.09
2.49
4.30
4.83
4.49
3.56
2.24
0.76
-0.69
-1.89
-2.70
-3.13
-3.27
-3.30
-3.33
-3.36
-3.25
-2.83
-2.06
-1.06
-0.12
0.39
0.24
-0.65
-2.17
-4.16
-6.48
-9.04
-11.80
-14.68
-17.60
-20.45
-23.09
-25.39
-27.20
-28.35
-28.69
-28.14
-26.78
-24.91
-23.00
-21.61
-21.16
-21.80
-23.21
-24.59
-24.84
-22.83
-17.85
-9.96
0.00
10.65
20.47
28.32
33.76
36.91
38.28
38.36
37.44
35.58
32.82
29.35
25.54
21.85
18.71
16.30
14.63
13.61
13.11
13.01
13.19
13.44
13.46
12.98
11.78
9.87
7.39
4.59
1.70
-1.11
-3.73
-6.13
-8.27
-10.23
-12.06
-13.82
-15.50
-16.99
-18.12
-18.75
-18.89
-18.72
-18.50
-18.48
-18.80
-19.49
-20.52
-21.82
-23.29
-24.62
-25.26
-24.54
-21.87
-17.09
-10.62
-3.38
3.55
9.33
13.60
16.41
17.96
18.42
17.79
16.07
13.40
10.14
6.75
3.65
1.04
-1.05
-2.58
-3.45
-3.47
-2.54
-0.84
1.14
2.78
3.59
3.43
2.57
1.47
0.51
-0.21
-0.95
-2.07
