1721064507.00
64.000000
-0.00
-0.00
-0.00
-0.00
-0.00
-0.00
-0.00
-0.00
-0.00
-0.00
0.00
0.01
0.01
-0.00
-0.03
-0.05
-0.05
0.00
0.13
0.36
0.66
1.01
1.37
1.72
2.06
2.40
2.79
3.24
3.80
4.42
5.06
5.66
6.20
6.68
7.15
7.68
8.31
9.14
10.09
11.04
11.88
12.56
13.14
13.76
14.65
15.96
17.91
20.32
22.90
25.38
27.58
29.57
31.68
34.32
37.81
42.54
48.15
54.10
59.83
64.97
69.58
74.14
79.34
85.71
93.76
103.00
112.62
121.73
129.77
136.75
143.30
150.75
157.77
166.64
177.95
191.79
206.97
220.57
228.25
225.36
208.53
176.87
132.76
80.05
23.07
-34.94
-92.44
-149.16
-205.23
-260.37
-313.74
-363.87
-409.83
-450.91
-486.50
-515.74
-537.23
-549.22
-549.96
-538.37
-514.21
-478.67
-433.88
-382.45
-327.02
-269.84
-212.64
-156.66
-102.95
-52.36
-5.88
35.62
71.48
101.43
125.61
144.52
158.88
169.38
176.65
181.09
182.97
182.52
180.02
175.81
170.29
163.88
156.92
149.65
142.22
134.70
127.12
119.53
111.99
104.58
97.36
90.39
83.70
77.30
71.22
65.45
60.01
54.91
50.15
45.74
41.69
37.98
34.61
31.57
28.86
26.48
24.42
22.67
21.23
20.10
19.25
18.68
18.38
18.32
18.48
18.86
19.42
20.16
21.08
22.17
23.41
24.78
26.25
27.75
29.21
30.52
31.55
32.13
32.12
31.36
29.77
27.28
23.90
19.72
14.80
9.38
3.68
-2.02
-7.46
-12.40
-16.63
-20.01
-22.46
-23.96
-24.55
-24.34
-23.45
-22.05
-20.28
-18.28
-16.14
-13.95
-11.74
-9.52
-7.29
-5.06
-2.81
-0.52
1.85
4.31
6.88
9.56
12.41
15.32
18.27
21.23
24.20
27.17
30.19
33.28
36.54
40.05
43.74
47.59
51.59
55.73
60.05
64.55
69.28
74.29
79.70
85.31
91.02
96.77
102.55
108.37
114.23
120.17
126.25
132.55
138.73
144.54
149.71
153.97
156.97
158.26
157.21
152.93
147.06
140.14
132.53
124.50
116.26
107.99
99.85
91.99
84.56
77.76
71.34
65.17
59.16
53.23
47.33
41.43
35.56
29.77
24.18
18.65
13.15
7.69
2.35
-2.76
-7.53
-11.81
-15.46
-18.34
-20.54
-22.13
-23.16
-23.75
-23.99
-23.99
-23.82
-23.54
-23.13
-22.64
-22.06
-21.33
-20.35
-19.03
-17.28
-15.02
-12.21
-8.82
-4.91
-0.54
4.17
9.08
14.03
18.82
23.29
27.25
30.56
33.12
34.86
35.77
35.92
35.41
34.36
32.93
31.28
29.56
27.89
26.36
25.02
23.92
23.03
22.31
21.68
21.02
20.19
19.12
17.75
16.12
14.33
12.52
10.83
9.38
8.23
7.40
6.91
6.79
7.06
7.77
8.92
10.43
12.07
13.53
14.47
14.57
13.68
11.77
9.06
5.74
1.95
-2.42
-7.70
-14.35
-22.77
-33.10
-45.06
-58.08
-71.53
-84.98
-98.57
-112.90
-128.83
-147.13
-167.98
-190.83
-214.53
-237.82
-259.88
-280.77
-301.43
-323.22
-347.29
-373.88
-402.00
-429.96
-455.81
-478.21
-496.93
-512.80
-527.53
-543.38
-563.04
-588.99
-622.39
-661.76
-702.05
-735.26
-752.66
-747.98
-719.93
-672.75
-614.36
-553.12
-494.95
-442.19
-394.43
-350.39
-309.46
-271.94
-238.42
-208.66
-181.32
-154.49
-126.73
-97.83
-68.83
-41.71
-18.22
0.73
15.54
27.60
38.63
50.00
62.18
74.67
86.36
96.13
103.37
108.34
111.98
115.58
120.27
126.57
134.29
142.68
150.76
157.82
163.69
168.84
174.19
180.76
189.22
199.73
211.81
224.71
237.65
250.18
262.34
274.54
287.47
301.97
319.01
339.42
363.46
390.10
416.75
439.48
454.07
457.42
448.67
429.39
403.00
373.32
343.45
315.10
288.78
264.34
241.57
220.39
200.79
182.66
165.68
149.46
133.73
118.42
103.66
89.81
77.16
65.72
55.17
44.89
34.35
23.51
13.08
4.33
-1.30
-2.94
-0.66
4.38
10.34
15.45
18.60
19.63
19.12
17.90
16.56
15.31
14.06
12.67
11.22
9.88
8.89
8.25
7.89
7.68
7.56
7.63
7.90
8.20
8.02
6.67
3.64
-1.09
-6.82
-12.32
-16.35
-18.18
-18.10
-17.31
-17.47
-19.96
-25.29
-32.91
-41.45
-49.24
-54.68
-56.52
-53.93
-46.58
-34.95
-20.48
-5.55
7.29
16.20
20.91
22.78
24.12
27.03
32.28
39.05
45.51
49.84
51.18
49.86
46.97
43.64
40.61
38.40
37.36
37.65
38.72
38.86
35.49
26.32
10.78
-9.02
-28.69
-43.66
-51.38
-52.34
-49.32
-45.45
-42.63
-41.50
-42.68
-47.73
-59.52
-80.97
-113.10
-153.52
-196.69
-235.80
-265.00
-280.99
-282.53
-270.46
-247.01
-215.59
-179.93
-143.37
-108.23
-75.39
-44.09
-11.16
27.23
73.64
127.45
184.40
237.74
280.45
307.86
313.91
298.08
266.19
228.35
193.90
167.22
147.45
131.57
117.26
103.72
91.74
81.70
72.71
63.13
51.82
38.98
26.05
14.78
5.87
-0.61
-5.53
-10.20
-15.68
-22.15
-29.03
-35.00
-39.12
-41.39
-42.22
-42.62
-44.02
-48.05
-55.59
-65.84
-75.25
-78.48
-70.44
-48.60
-14.99
23.98
59.87
85.72
98.61
100.57
96.31
90.27
84.79
79.78
74.01
66.59
59.12
51.81
45.53
40.23
34.87
28.11
19.01
7.75
-4.47
-15.94
-25.40
-32.14
-36.60
-40.08
-44.16
-49.85
-57.38
-66.21
-75.27
-83.65
-90.57
-95.85
-99.83
-103.04
-105.65
-107.53
-108.31
-107.59
-105.24
-101.36
-96.49
-91.55
-87.69
-85.55
-85.66
-88.26
-93.35
-100.70
-109.88
-120.35
-131.62
-143.32
-154.58
-164.81
-173.54
-180.32
-184.73
-186.24
-184.09
-177.15
-168.14
-158.25
-148.39
-139.16
-130.63
-122.36
-113.56
-103.37
-91.25
-77.28
-61.57
-44.83
-27.92
-11.41
4.59
20.43
36.58
53.10
69.41
84.64
97.68
107.54
114.04
117.95
120.92
124.94
131.73
142.30
156.94
174.82
193.69
210.11
220.46
222.45
215.97
202.90
186.05
167.77
149.34
131.01
113.17
97.42
87.18
86.07
96.18
116.98
145.11
176.16
205.42
228.51
242.00
245.19
239.13
226.43
210.70
194.55
180.36
167.71
153.05
131.65
103.09
70.01
37.85
13.25
-0.09
0.96
14.83
34.48
51.04
61.12
64.83
65.45
67.95
74.13
88.66
113.83
148.29
189.56
239.58
297.89
359.60
415.71
452.41
465.52
458.03
438.20
381.87
281.85
148.39
5.33
-97.86
-162.93
-200.20
-217.20
-227.30
-234.47
-235.41
-228.38
-215.04
-199.74
-190.76
-188.69
-191.25
-196.31
-200.96
-200.44
-193.18
-180.94
-167.32
-158.17
-152.75
-147.85
-141.02
-130.09
-113.85
-94.58
-76.93
-65.88
-66.03
-76.83
-95.21
-122.10
-153.98
-183.37
-203.01
-210.68
-212.47
-217.38
-230.90
-252.80
-278.48
-297.67
-300.39
-280.48
-237.29
-176.62
-107.63
-40.73
16.68
61.51
96.09
125.38
154.48
187.39
224.58
264.79
294.19
299.68
275.49
227.57
168.58
109.79
63.13
27.20
1.40
-12.73
-11.01
9.93
48.37
97.21
140.75
162.63
152.25
112.38
56.46
2.45
-35.93
-53.80
-54.80
-47.16
-37.70
-29.96
-23.02
-14.99
-4.87
6.75
18.24
27.99
34.97
39.75
43.45
47.86
53.73
60.43
66.87
72.08
75.81
78.55
81.69
86.64
94.57
105.56
118.13
130.46
140.92
148.64
153.41
155.63
155.59
152.91
150.10
147.47
144.76
141.59
137.73
133.15
128.02
122.57
116.94
111.26
105.01
97.89
89.83
81.01
71.78
62.53
53.70
45.65
38.76
32.89
27.95
23.89
20.63
18.11
16.22
14.88
13.97
13.40
12.81
11.92
10.52
8.50
5.82
2.47
-1.57
-6.27
-11.58
-17.51
-23.90
-30.40
-36.55
-41.78
-45.62
-47.72
-47.98
-46.61
-44.08
-40.97
-37.84
-35.67
-34.04
-33.01
-32.62
-33.00
-34.37
-36.98
-40.92
-45.99
-52.24
-58.38
-63.90
-68.76
-73.52
-79.18
-86.72
-96.61
-108.47
-122.60
-136.04
-147.88
-158.24
-168.35
-179.91
-194.16
-210.98
-228.87
-249.72
-268.15
-285.04
-302.70
-323.16
-345.99
-367.24
-380.50
-379.81
-370.74
-346.70
-313.48
-277.35
-242.79
-212.05
-186.46
-168.06
-159.38
-173.91
-193.80
-210.42
-213.48
-196.69
-162.32
-121.45
-89.39
-78.82
-111.03
-163.66
-227.80
-295.31
-362.88
-432.50
-508.32
-592.64
-577.23
-586.73
-588.89
-572.78
-532.43
-468.91
-390.15
-308.35
-235.99
-181.20
-162.05
-155.01
-151.06
-141.30
-120.20
-86.63
-42.56
9.29
67.20
117.63
173.40
231.43
286.60
333.53
369.29
395.34
417.40
443.16
470.55
509.61
555.80
599.72
629.95
636.19
612.27
558.31
481.83
393.02
313.68
259.47
238.40
247.52
273.94
300.03
310.60
298.27
263.10
213.94
158.76
101.88
44.22
-13.60
-68.30
-113.65
-143.36
-155.53
-154.35
-147.42
-142.67
-142.88
-143.88
-136.86
-113.29
-70.08
-12.03
49.47
101.67
132.13
133.84
107.46
61.44
9.74
-32.10
-52.01
-44.18
-8.52
46.12
106.85
160.78
198.88
217.54
218.45
208.79
191.89
176.20
164.79
157.69
152.57
146.67
137.42
122.44
96.95
57.01
11.73
-29.48
-59.01
-75.34
-80.81
-77.56
-66.54
-51.19
-43.21
-40.66
-43.79
-53.60
-71.05
-96.37
-129.78
-153.80
-163.18
-158.47
-142.12
-120.75
-100.38
-84.68
-74.44
-68.25
-63.60
-60.61
-58.82
-56.25
-53.23
-50.86
-50.14
-51.44
-54.57
-59.24
-67.11
-78.16
-89.26
-96.10
-93.82
-79.00
-51.74
-16.32
19.95
48.46
64.03
66.78
60.33
49.55
38.37
28.60
20.38
13.40
7.67
4.28
4.24
9.07
19.02
33.31
50.44
68.76
86.64
102.58
115.35
124.06
128.33
127.94
123.05
113.98
101.16
85.03
66.16
45.23
23.17
1.58
-17.73
-32.67
-41.03
-40.88
-31.20
-13.37
8.22
26.35
33.27
23.34
-3.92
-43.14
-84.82
-118.59
-136.45
-135.14
-117.84
-91.88
-65.39
-44.44
-32.49
-30.39
-34.74
-41.86
-47.38
-47.58
-40.96
-29.56
-17.95
-11.67
-14.59
-26.69
-44.55
-62.54
-74.87
-76.67
-65.78
-40.07
1.69
55.77
115.70
172.84
219.23
249.95
263.63
261.94
248.61
227.91
203.91
180.22
159.12
141.62
127.40
115.23
103.75
92.24
80.63
69.51
60.09
53.37
49.79
48.87
49.36
49.85
49.38
47.58
44.73
41.62
39.11
38.24
40.13
45.65
54.53
64.62
71.54
70.08
56.43
30.47
-3.23
-36.92
-62.88
-76.82
-79.08
-74.53
-68.95
-66.85
-70.27
-79.26
-93.29
-111.83
-133.38
-154.93
-171.36
-176.63
-166.78
-142.15
-108.01
-72.76
-44.30
-26.98
-20.52
-21.12
-23.98
-25.82
-25.72
-24.45
-23.21
-22.59
-22.24
-21.59
-20.26
-18.30
-16.09
-14.37
-13.61
-14.07
-15.64
-17.98
-20.43
-22.29
-22.83
-21.69
-19.06
-15.37
-11.23
-6.91
-2.33
3.09
10.05
18.92
29.60
41.68
54.76
68.32
81.08
90.22
91.86
82.31
60.04
27.47
-9.13
-41.59
-62.94
-69.42
-62.53
-47.01
-28.06
-9.33
7.77
22.92
35.50
43.96
46.70
42.51
31.87
16.86
0.06
-16.08
-30.29
-42.44
-52.90
-61.78
-68.42
-71.27
-68.05
-58.20
-42.42
-22.95
-3.03
14.17
26.46
33.17
35.14
33.78
30.55
25.71
18.75
8.85
-4.39
-21.08
-40.66
-61.72
-81.60
-96.51
-101.73
-93.38
-70.35
-35.64
3.78
39.43
64.60
76.80
77.93
73.00
67.30
64.29
65.00
68.50
73.47
79.08
84.96
90.41
94.03
93.89
87.03
73.50
54.63
32.88
11.19
-7.77
-22.37
-32.33
-38.53
-42.41
-45.12
-47.57
-49.93
-51.95
-53.14
-53.33
-52.73
-51.92
-51.51
-51.78
-52.91
-54.70
-56.78
-58.77
-60.51
-62.08
-63.77
-65.85
-68.53
-71.99
-76.15
-80.72
-85.28
-89.30
-92.13
-93.28
-91.78
-86.85
-78.01
-65.11
-48.39
-28.49
-6.40
16.70
39.02
59.32
76.60
90.14
99.61
105.09
107.01
105.99
102.83
98.32
93.18
87.86
82.62
77.54
72.65
68.44
64.68
61.32
58.46
56.20
54.51
53.24
52.27
51.46
50.86
50.49
50.45
51.17
52.12
52.61
51.84
49.22
44.54
38.23
31.15
24.54
19.51
16.63
15.69
15.83
16.00
15.41
13.93
11.95
10.17
8.57
7.48
6.29
3.79
-0.91
-8.15
-17.20
-26.70
-35.11
-41.01
-43.23
-40.93
-33.94
-23.13
-11.17
-2.25
-0.80
-9.39
-26.86
-48.24
-66.33
-75.28
-72.90
-61.30
-45.17
-29.13
-15.75
-5.14
3.78
11.76
18.27
22.04
21.87
17.49
9.60
-0.58
-11.70
-22.95
-33.85
-44.19
-53.59
-61.44
-66.95
-69.42
-68.41
-64.10
-57.20
-48.55
-39.08
-29.79
-21.45
-14.63
-9.68
-6.71
-5.76
-7.49
-12.81
-22.58
-36.48
-51.84
-63.47
-65.29
-53.20
-26.60
8.18
41.72
65.19
73.62
67.28
50.78
30.39
11.56
-1.89
-8.22
-6.18
3.97
19.80
36.24
46.87
46.11
31.71
6.21
-23.48
-48.05
-59.17
-52.28
-27.94
8.39
48.26
82.01
102.31
106.54
96.90
78.45
56.96
36.97
20.97
9.62
2.68
-0.29
0.04
2.58
5.70
7.92
8.56
7.83
6.92
7.12
9.18
12.87
16.95
19.84
20.54
19.12
16.79
15.56
17.30
22.81
31.03
38.91
42.25
37.53
23.60
2.53
-20.83
-40.91
-53.86
-59.02
-58.78
-57.16
-57.63
-61.61
-68.34
-74.90
-77.77
-73.97
-62.36
-44.46
-25.14
-11.40
-10.07
-24.89
-53.83
-89.57
-121.83
-141.18
-142.39
-125.86
-96.25
-59.41
-22.06
11.49
39.63
62.74
82.15
99.35
114.16
125.05
129.44
124.65
109.94
87.40
61.60
37.85
21.14
12.96
11.30
12.03
11.18
7.11
1.02
-4.46
-7.45
-7.89
-8.14
-10.63
-16.11
-23.13
-29.20
-33.09
-36.33
-42.41
-54.24
-71.69
-90.38
-102.97
-103.09
-88.36
-61.28
-27.77
5.70
34.51
56.49
71.61
80.35
82.85
78.20
66.04
47.76
27.32
10.79
3.38
6.62
16.57
25.04
24.37
12.06
-7.01
-23.35
-28.24
-18.76
1.23
23.99
42.54
53.56
57.08
54.21
45.84
33.08
18.67
7.24
3.36
8.69
20.30
32.09
38.46
37.69
31.87
24.90
19.48
15.39
10.14
1.46
-11.08
-25.85
-40.46
-53.24
-63.69
-71.91
-77.90
-81.85
-84.00
-84.53
-82.90
-77.27
-65.23
-44.48
-15.09
19.60
53.51
80.05
94.50
94.78
83.70
66.07
46.68
28.58
12.92
-0.36
-11.34
-19.49
-24.32
-24.98
-21.49
-14.37
-4.50
7.30
20.54
35.14
51.79
70.76
90.98
108.87
118.90
115.64
96.53
63.82
24.37
-12.78
-40.17
-54.64
-57.94
-54.65
-49.49
-45.14
-41.82
-38.59
-34.67
-30.46
-27.11
-25.64
-26.08
-27.40
-28.17
-27.12
-24.00
-19.54
-15.08
-11.84
-10.45
-10.62
-11.41
-11.66
-10.56
-8.01
-4.55
-1.12
1.43
2.73
2.99
2.80
2.92
3.85
5.75
8.39
11.39
14.32
16.99
19.38
21.55
23.57
25.34
26.63
27.11
26.52
24.68
21.63
17.52
12.62
7.26
1.75
-3.57
-8.40
-12.49
-15.70
-18.02
-19.54
-20.46
-21.03
-21.51
-22.01
-22.49
-22.80
-22.73
-22.10
-20.71
-18.41
-15.01
-10.41
-4.40
3.24
12.51
23.12
34.16
44.40
52.30
56.38
55.64
49.85
39.68
26.37
12.08
-2.07
-15.42
-27.83
-39.46
-50.38
-60.28
-68.41
-73.99
-76.64
-76.75
-75.26
-73.34
-71.90
-71.42
-72.23
-74.79
-79.50
-85.82
-91.53
-92.56
-84.38
-64.23
-33.15
3.74
38.92
65.44
79.63
82.13
77.01
69.18
62.45
58.31
56.36
55.49
54.95
54.71
55.28
56.37
56.65
53.75
45.18
30.48
12.12
-4.72
-14.86
-15.49
-8.27
1.71
8.85
10.57
9.07
9.49
16.02
28.14
40.67
46.03
38.99
20.08
-4.30
-24.86
-34.10
-29.07
-13.16
7.60
27.48
43.62
55.96
65.62
73.48
78.48
78.46
71.43
57.08
36.86
13.57
-9.20
-29.20
-45.48
-58.71
-70.24
-81.34
-92.28
-102.67
-111.57
-118.16
-122.64
-125.17
-126.61
-127.73
-129.35
-130.43
-129.62
-125.46
-116.78
-103.23
-85.21
-63.90
-40.17
-16.25
6.43
26.84
44.26
58.30
68.73
75.67
79.51
80.82
80.17
78.43
76.14
73.56
70.69
67.47
63.97
60.43
57.26
54.71
53.09
52.25
51.67
50.66
48.71
45.75
42.24
38.92
36.53
35.43
35.27
35.04
33.51
29.79
23.74
16.08
8.00
0.49
-5.81
-11.14
-16.34
-22.43
-30.04
-39.56
-51.13
-64.31
-77.61
-88.06
-91.49
-84.05
-64.24
-34.20
0.22
31.69
54.21
65.34
66.50
61.48
53.99
45.68
37.10
27.44
16.34
4.61
-6.19
-14.77
-20.89
-25.42
-29.59
-34.50
-40.45
-46.82
-52.40
-56.22
-57.95
-58.14
-57.99
-58.65
-60.75
-64.16
-67.93
-70.55
-70.70
-67.06
-59.11
-46.98
-31.43
-13.35
6.15
25.88
44.60
61.00
73.85
82.02
84.74
81.83
73.81
61.84
47.45
32.29
17.86
5.35
-4.69
-12.28
-17.94
-22.55
-27.04
-32.26
-38.64
-46.08
-53.73
-60.33
-64.45
-64.85
-60.93
-52.71
-40.97
-26.90
-11.90
2.90
16.59
28.37
37.42
42.82
43.81
39.94
31.52
19.70
6.80
-4.60
-12.38
-15.47
-14.27
-10.36
-5.86
-2.74
-2.14
-3.66
-6.21
-8.40
-8.77
-5.87
1.80
15.21
34.68
55.53
73.23
83.48
83.81
75.18
61.99
50.25
44.75
46.97
54.76
64.50
73.00
79.22
84.05
88.85
93.79
97.27
96.97
91.83
83.42
75.50
71.94
74.25
80.30
84.98
82.77
70.69
50.22
26.15
4.30
-12.02
-23.38
-33.32
-45.82
-62.81
-83.29
-103.95
-123.40
-139.87
-151.52
-155.90
-150.49
-134.19
-109.08
-80.33
-52.57
-28.75
-8.89
9.07
27.57
47.15
65.42
78.16
77.97
62.02
32.32
-4.40
-39.17
-64.04
-74.63
-70.99
-56.44
-35.39
-10.93
15.00
41.55
67.76
91.87
111.12
122.27
122.79
111.91
91.88
66.80
41.93
21.77
8.61
1.71
-2.14
-7.08
-16.36
-30.97
-49.71
-69.68
-87.02
-97.95
-99.49
-90.37
-71.81
-47.63
-23.62
-6.28
-0.45
-7.28
-23.37
-41.72
-54.45
-56.03
-45.44
-26.42
-5.62
10.36
17.63
16.00
8.36
-1.54
-10.79
-18.46
-25.05
-31.36
-37.38
-42.00
-44.43
-45.43
-47.45
-53.28
-64.10
-78.03
-90.51
-95.91
-89.43
-70.06
-40.93
-8.05
22.58
47.11
64.70
76.31
83.35
87.88
90.76
91.73
90.14
86.19
81.26
78.01
78.85
85.32
99.37
121.13
148.31
176.75
201.89
219.81
228.42
226.40
205.32
163.23
106.13
45.11
-9.92
-53.10
-86.83
-113.55
-135.55
-154.73
-168.73
-175.73
-176.39
-173.27
-169.20
-166.32
-164.90
-165.27
-167.26
-169.03
-168.04
-163.39
-155.35
-144.00
-128.90
-104.49
-69.27
-26.44
16.58
58.48
98.95
135.57
164.95
184.10
192.03
188.16
173.10
144.32
104.00
56.84
8.61
-35.18
-74.81
-110.79
-143.98
-172.53
-194.53
-207.73
-211.97
-208.74
-200.06
-187.80
-172.58
-154.97
-135.33
-114.16
-91.20
-66.99
-42.70
-19.62
1.08
19.06
34.11
46.20
55.24
61.75
66.01
68.05
67.95
65.98
62.84
59.31
55.99
53.15
51.08
49.73
48.79
47.97
47.00
45.95
44.98
44.27
43.85
43.70
43.73
43.82
43.95
44.25
44.98
46.46
48.78
51.72
54.71
57.06
58.14
57.67
55.76
52.86
49.55
46.19
42.71
38.62
33.24
26.04
17.08
7.14
-2.46
-10.27
-15.43
-18.04
-19.09
-20.23
-23.02
-28.48
-36.78
-47.14
-57.86
-66.46
-70.08
-66.26
-54.32
-36.27
-16.91
-2.37
2.33
-4.31
-19.20
-35.91
-47.29
-48.51
-38.59
-20.15
2.46
25.16
45.33
61.70
73.73
81.00
83.28
80.94
75.14
67.45
59.19
50.81
42.06
32.68
23.35
15.95
12.94
16.19
25.80
39.85
54.78
66.76
72.74
71.19
62.31
47.78
30.40
13.46
0.11
-7.48
-8.71
-4.69
2.25
9.45
14.83
17.33
16.96
14.36
10.52
6.66
4.04
3.74
6.18
10.65
15.43
18.35
18.03
14.66
10.14
7.24
8.14
13.38
21.51
29.84
35.85
38.13
36.73
32.58
26.62
19.24
10.44
0.43
-9.85
-18.60
-23.76
-23.91
-18.92
-10.38
-1.13
5.56
7.04
2.22
-8.11
-21.40
-34.20
-43.24
-46.52
-43.79
-36.44
-26.76
-17.05
-8.90
-3.07
0.28
1.25
-0.19
-4.05
-9.97
-16.95
-23.21
-26.72
-25.89
-20.34
-11.36
-1.59
5.83
8.42
5.07
-3.55
-15.23
-27.01
-36.01
-40.13
-38.69
-32.61
-24.15
-16.26
-11.55
-11.38
-15.36
-21.72
-28.16
-32.70
-34.41
-33.30
-30.01
-25.36
-20.16
-15.18
-11.17
-8.74
-8.20
-9.48
-12.19
-15.89
-20.04
-24.08
-27.17
-28.33
-26.82
-22.69
-17.13
-12.05
-9.30
-9.71
-12.80
-17.20
-21.41
-24.72
-27.35
-30.05
-33.41
-37.27
-40.78
-42.61
-41.77
-38.05
-32.29
-26.14
-21.62
-20.46
-23.76
-31.64
-43.22
-56.70
-69.59
-79.15
-83.12
-80.63
-72.84
-63.13
-56.16
-56.31
-65.84
-83.60
-105.05
-123.47
-131.90
-125.09
-100.82
-60.54
-9.21
45.59
95.32
132.69
153.79
159.26
153.70
143.51
134.16
128.13
124.65
121.18
115.36
106.66
96.36
86.60
78.94
73.83
70.64
68.36
66.15
63.41
59.74
54.94
49.06
42.50
36.00
30.17
25.38
21.69
19.06
17.50
17.02
17.33
17.78
17.49
15.87
13.01
9.69
6.89
5.21
4.70
5.07
6.28
8.84
13.28
19.53
26.44
31.87
33.72
30.97
24.23
15.61
7.79
2.99
2.27
5.48
11.39
18.30
24.57
28.90
30.74
30.34
28.62
26.81
25.82
25.95
26.81
27.57
27.26
25.04
20.41
13.43
4.85
-3.82
-10.62
-13.71
-12.32
-7.43
-1.43
2.70
2.88
-1.09
-7.39
-13.07
-15.35
-12.81
-5.88
3.38
11.99
17.04
16.41
9.45
-2.91
-18.34
-33.82
-46.43
-54.15
-56.13
-52.70
-45.03
-34.79
-24.01
-15.07
-10.28
-11.23
-17.93
-28.20
-37.84
-41.85
-36.43
-20.96
1.06
23.00
37.47
39.51
28.69
9.27
-11.80
-27.86
-35.13
-33.57
-25.85
-15.60
-5.76
1.91
6.39
6.94
2.99
-5.40
-16.91
-28.92
-38.26
-42.34
-40.29
-33.24
-23.82
-15.10
-9.46
-8.00
-10.37
-15.39
-21.49
-27.34
-31.84
-34.16
-33.79
-30.63
-25.23
-18.81
-13.04
-9.39
-8.40
-9.31
-10.31
-9.36
-5.31
1.35
8.78
14.76
17.84
17.95
16.09
13.36
10.31
7.00
3.47
0.51
-0.55
1.45
6.51
12.90
18.12
19.95
17.76
12.49
5.96
-0.25
-5.35
-9.11
-11.35
-11.66
-9.78
-6.11
-1.83
1.56
3.08
2.80
1.59
0.19
-1.17
-3.02
-5.96
-9.92
-14.03
-16.97
-17.78
-16.36
-13.48
-10.13
-6.96
-4.00
-0.67
3.50
8.58
13.88
18.21
20.17
18.80
13.90
6.43
-1.59
-7.46
-8.64
-3.75
6.69
19.92
31.79
38.09
36.40
27.24
13.70
0.25
-9.30
-13.12
-11.53
-6.31
0.49
7.11
12.16
14.50
13.25
8.35
1.04
-6.30
-11.02
-11.38
-7.48
-1.16
4.97
8.83
9.64
8.08
5.71
4.13
4.38
6.64
10.29
14.22
17.31
18.87
18.69
17.08
14.66
12.06
9.86
8.48
8.15
8.86
10.30
11.94
13.27
14.20
15.11
16.60
18.94
21.59
23.16
22.04
17.19
8.92
-0.83
-9.13
-13.06
-10.87
-2.97
7.99
17.97
23.11
21.38
13.65
3.08
-6.28
-11.46
-11.75
-8.43
-3.60
1.16
5.41
9.37
13.16
16.44
18.69
19.76
20.04
19.88
18.99
16.34
10.95
3.23
-4.60
-9.32
-8.72
-3.19
4.09
8.74
7.79
1.24
-7.96
-15.81
-19.72
-19.81
-18.48
-18.59
-21.48
-26.11
-29.84
-30.18
-26.43
-20.19
-14.53
-12.35
-15.00
-21.87
-31.01
-40.29
-48.34
-54.72
-59.29
-61.60
-60.68
-55.54
-46.13
-33.73
-20.97
-10.79
-5.29
-4.91
-8.33
-13.25
-17.31
-18.92
-17.59
-13.76
-8.48
-3.08
1.24
3.67
4.15
3.36
2.31
1.85
2.13
2.62
2.53
1.52
0.02
-1.00
-0.72
0.97
3.48
5.95
7.80
8.93
9.39
8.79
6.23
0.70
-8.03
-18.88
-29.62
-37.92
-42.32
-42.91
-41.04
-38.49
-36.57
-35.84
-36.43
-38.48
-42.34
-48.17
-55.29
-62.04
-66.31
-66.67
-63.50
-59.17
-56.93
-59.30
-66.84
-77.90
-89.69
-99.92
-107.85
-114.19
-119.91
-124.62
-125.74
-119.06
-100.72
-69.38
-27.62
18.49
61.59
95.93
119.48
134.20
144.21
153.04
161.52
167.43
167.11
157.98
140.42
118.01
96.11
79.57
70.96
69.92
73.84
79.23
82.98
83.02
78.64
70.27
59.27
47.85
38.43
33.11
32.65
36.18
41.32
45.21
45.82
42.56
36.44
29.27
22.79
18.33
16.62
18.10
22.74
29.56
36.24
39.72
37.35
28.36
14.37
-1.34
-15.29
-25.15
-30.10
-30.32
-26.04
-17.50
-5.42
8.28
20.23
26.91
26.17
18.66
7.59
-2.53
-8.05
-7.67
-2.48
4.68
10.54
12.40
8.88
0.47
-10.57
-20.59
-25.73
-23.51
-14.20
-0.96
11.33
18.46
18.78
13.74
6.79
1.33
-0.95
-0.60
0.70
1.38
1.05
0.43
0.40
1.27
2.50
3.07
1.92
-1.52
-7.28
-14.89
-23.44
-31.76
-38.77
-43.85
-46.87
-47.96
-47.06
-43.65
-37.30
-28.20
-17.84
-8.55
-2.68
-1.39
-4.12
-8.98
-13.69
-16.56
-16.79
-14.28
-9.45
-3.29
2.43
5.32
3.11
-5.21
-18.58
-33.85
-46.89
-53.94
-52.93
-43.99
-29.20
-11.83
4.56
16.99
23.63
24.00
18.78
9.51
-1.98
-13.85
-24.52
-32.74
-37.57
-38.52
-35.66
-29.65
-21.85
-13.81
-7.00
-2.29
0.37
2.01
4.37
9.17
17.39
28.72
41.28
52.16
58.38
58.04
51.21
40.12
28.32
19.31
15.09
15.50
18.72
22.46
25.36
27.33
29.01
30.74
31.84
30.92
26.74
19.29
10.07
1.56
-4.16
-6.24
-5.25
-2.71
-0.19
1.29
1.36
0.06
-2.47
-6.04
-10.48
-15.46
-20.50
-24.95
-28.08
-29.12
-27.64
-23.90
-18.96
-14.45
-11.92
-12.19
-14.91
-18.79
-22.21
-23.81
-22.98
-19.79
-14.80
-8.86
-2.92
2.11
5.64
7.58
8.37
8.76
9.30
10.03
10.45
9.90
8.14
5.66
3.63
3.48
6.18
11.75
18.96
25.68
29.79
29.91
26.02
19.37
12.10
6.32
3.67
4.93
10.00
17.99
27.29
35.85
41.65
43.11
39.59
31.59
20.41
7.70
-4.79
-15.46
-23.04
-26.71
-26.51
-23.53
-19.60
-16.59
-15.53
-16.12
-17.01
-16.68
-14.21
-9.86
-4.70
0.13
4.02
7.11
9.91
12.54
14.43
14.46
11.79
6.63
0.45
-4.60
-6.76
-5.64
-2.51
0.39
1.01
-1.67
-7.04
-13.43
-18.79
-21.47
-20.67
-16.55
-10.24
-3.75
0.39
-0.32
-7.40
-20.75
-38.29
-56.57
-71.66
-80.33
-80.85
-73.12
-58.55
-39.76
-20.06
-3.19
7.55
10.13
4.71
-6.08
-17.77
-25.61
-26.43
-19.93
-8.78
2.51
9.74
10.73
6.30
-0.21
-4.50
-3.22
4.51
16.47
28.32
35.18
33.69
23.37
6.87
-10.97
-24.74
-30.27
-25.97
-13.05
4.82
22.63
35.54
40.19
35.82
24.55
10.71
-0.83
-6.51
-5.30
1.16
9.80
17.48
22.01
22.29
18.27
10.96
2.66
-3.01
-2.30
6.81
22.86
40.69
53.40
55.68
46.48
29.46
11.02
-2.94
-9.57
-9.46
-5.15
0.77
6.97
13.16
19.16
24.18
26.83
25.85
20.99
13.25
4.57
-3.05
-8.44
-11.70
-14.06
-17.09
-21.66
-27.15
-31.68
-33.06
-30.30
-24.52
-18.58
-15.69
-17.60
-23.40
-29.98
-33.57
-31.71
-24.45
-14.13
-4.00
3.15
5.89
4.22
-0.73
-6.90
-11.59
-11.95
-6.15
5.51
20.16
33.31
40.83
40.82
34.38
24.66
15.19
8.34
5.04
5.49
9.76
17.93
29.31
41.78
52.01
56.74
54.32
45.43
32.59
18.89
6.61
-3.39
-11.18
-17.23
-21.74
-24.61
-25.62
-24.66
-21.87
-17.58
-12.52
-7.70
-4.45
-3.95
-6.71
-12.15
-18.73
-24.55
-28.07
-28.51
-25.93
-21.10
-15.15
-9.50
-5.55
-4.35
-6.05
-9.47
-12.42
-12.38
-7.89
0.61
10.67
18.68
21.42
17.43
7.84
-4.00
-13.75
-17.93
-15.60
-8.89
-2.11
0.61
-2.58
-10.19
-18.51
-23.89
-25.01
-23.30
-21.58
-21.88
-24.01
-26.01
-25.76
-22.64
-17.97
-14.12
-12.93
-14.68
-18.11
-21.19
-22.07
-19.85
-14.72
-7.79
-0.78
4.73
7.97
9.30
10.21
12.31
16.25
21.21
25.30
26.84
25.48
22.47
19.57
17.91
17.05
15.38
11.35
4.59
-3.68
-11.29
-16.42
-18.33
-17.57
-15.38
-12.97
-11.16
-10.29
-10.34
-10.83
-10.66
-8.44
-3.08
5.16
14.29
21.27
23.28
19.41
11.16
1.66
-5.76
-9.03
-7.89
-3.37
3.00
9.92
16.40
21.56
24.56
24.83
22.39
18.03
13.05
8.65
5.48
3.68
3.03
3.30
4.26
5.58
6.81
7.44
7.18
6.18
4.92
3.99
3.80
4.30
5.03
5.31
4.67
3.07
0.99
-0.75
-1.52
-1.27
-0.73
-1.14
-3.42
-7.68
-12.91
-17.44
-19.87
-19.71
-17.61
-14.76
-12.30
-10.81
-10.45
-11.26
-13.33
-16.41
-19.55
-20.98
-18.94
-12.54
-2.62
8.43
17.68
22.98
23.69
20.62
15.45
9.89
5.45
3.44
4.95
10.49
19.48
29.91
38.78
43.28
41.99
35.62
26.67
18.21
12.59
10.58
11.38
13.42
15.28
16.37
16.81
17.08
17.39
17.57
17.24
16.26
14.93
13.81
13.21
12.80
11.55
8.31
2.42
-5.74
-14.86
-23.08
-28.70
-30.71
-28.99
-24.29
-18.10
-12.23
-8.42
-7.81
-10.57
-15.79
-21.85
-27.05
-30.30
-31.44
-31.09
-30.19
-29.21
-28.10
-26.16
-22.96
-18.92
-15.31
-13.62
-14.44
-16.83
-18.58
-17.61
-13.22
-6.74
-0.70
2.70
2.87
1.11
-0.48
-0.38
1.40
3.73
5.28
5.52
4.90
4.23
3.88
3.48
2.39
0.26
-2.55
-5.10
-6.53
-6.37
-5.10
-3.58
-2.58
-2.34
-2.28
-1.46
0.82
4.34
7.82
9.38
7.33
1.23
-7.39
-15.58
-20.10
-19.10
-13.29
-5.40
1.17
4.26
3.85
1.31
-2.06
-6.11
-11.51
-18.35
-24.62
-26.57
-20.82
-7.26
9.57
21.90
22.70
9.81
-12.43
-35.01
-48.71
-48.37
-34.90
-14.12
6.50
21.27
28.01
27.72
23.17
17.06
11.15
6.46
3.65
3.42
6.45
12.78
21.38
30.07
36.14
37.31
32.81
23.76
12.77
3.07
-2.78
-3.85
-1.08
3.13
5.87
4.92
-0.49
-9.32
-19.26
-27.70
-32.93
-34.78
-34.65
-34.81
-37.49
-43.94
-54.02
-66.25
-78.39
-88.10
-93.69
-94.59
-91.57
-86.49
-81.67
-79.04
-79.47
-82.66
-87.56
-93.02
-97.92
-100.95
-100.05
-92.29
-74.72
-45.75
-6.48
38.96
84.45
123.76
152.56
169.18
174.44
170.49
159.82
144.85
128.05
112.06
99.43
91.67
88.55
87.93
86.57
81.56
71.70
58.10
43.76
32.21
25.97
25.59
29.44
34.39
36.99
34.61
26.36
13.21
-2.43
-17.57
-29.52
-36.67
-38.73
-36.60
-31.84
-26.24
-21.31
-18.14
-17.18
-18.31
-20.92
-24.03
-26.59
-27.71
-26.90
-24.17
-19.98
-15.15
-10.67
-7.42
-5.94
-6.25
-7.82
-9.71
-10.95
-10.86
-9.33
-6.80
-3.94
-1.39
0.51
1.78
2.63
3.38
4.21
5.17
6.13
6.92
7.43
7.60
7.52
7.32
7.17
7.20
7.53
8.20
9.25
10.69
12.53
14.75
17.29
20.04
22.83
25.51
27.89
29.88
31.40
32.44
33.02
33.15
32.89
32.27
31.36
30.27
29.11
27.95
26.80
25.61
24.21
22.45
20.19
17.46
14.41
11.32
8.38
5.70
3.20
0.69
-1.98
-4.78
-7.57
-10.05
-11.99
-13.24
-13.82
-13.89
-13.72
-13.63
-13.84
-14.48
-15.49
-16.65
-17.68
-18.35
-18.60
-18.55
-18.46
-18.57
-19.00
-19.67
-20.26
-20.28
-19.26
-16.84
-13.18
-8.98
-5.43
-3.81
-4.97
-8.74
-13.90
-18.48
-20.55
-19.13
-14.60
-8.64
-3.43
-0.71
-1.14
-4.09
-8.19
-12.06
-14.93
-16.75
-17.86
-18.61
-18.96
-18.65
-17.47
-15.43
-12.65
-9.09
-4.53
1.19
7.52
13.11
16.10
15.09
9.99
2.41
-5.02
-9.71
-10.32
-7.13
-1.58
4.70
10.49
15.20
18.39
19.61
18.48
15.12
10.47
6.16
3.89
4.54
7.84
12.48
16.66
19.10
19.39
18.08
16.26
14.92
14.52
14.92
15.51
15.45
14.10
11.22
7.23
3.15
0.31
-0.18
1.92
5.68
9.28
10.92
9.70
6.20
2.15
-0.66
-1.31
-0.22
1.37
2.33
2.39
2.09
2.16
2.73
2.96
1.54
-2.48
-9.08
-17.12
-24.92
-30.89
-34.01
-34.07
-31.60
-27.66
-23.58
-20.54
-19.22
-19.57
-20.94
-22.48
-23.56
-24.01
-23.98
-23.68
-23.19
-22.40
-21.26
-19.89
-18.72
-18.19
-18.44
-19.30
-20.26
-20.80
-20.55
-19.42
-17.52
-15.13
-12.51
-9.94
-7.61
-5.64
-4.06
-2.84
-1.86
-1.00
-0.16
0.74
1.70
2.71
3.70
4.65
5.51
6.30
7.07
7.89
8.84
10.00
11.43
13.17
15.23
17.58
20.16
22.89
25.65
28.32
30.78
32.94
34.74
36.14
37.13
37.72
37.93
37.76
37.27
36.49
35.48
34.33
33.11
31.82
30.40
28.76
26.77
24.37
21.61
18.63
15.64
12.82
10.26
7.95
5.81
3.71
1.52
-0.79
-3.15
-5.39
-7.29
-8.67
-9.52
-10.04
-10.59
-11.53
-13.04
-14.96
-16.88
-18.30
-18.87
-18.56
-17.61
-16.46
-15.46
-14.87
-14.75
-14.99
-15.32
-15.35
-14.62
-12.84
-10.06
-6.88
-4.26
-3.26
-4.49
-7.72
-11.97
-15.81
-18.06
-18.23
-16.71
-14.39
-12.24
-10.75
-9.89
-9.31
-8.70
-8.00
-7.34
-6.87
-6.62
-6.57
-6.73
-7.13
-7.57
-7.40
-5.63
-1.42
5.19
12.93
19.60
23.02
22.12
17.50
11.05
5.09
1.27
0.20
1.59
4.91
9.80
15.88
22.41
27.78
29.81
26.55
17.49
4.22
-9.73
-20.29
-24.62
-22.49
-16.36
-10.17
-7.29
-8.97
-13.97
-19.38
-22.35
-21.43
-17.04
-11.02
-5.57
-2.35
-1.91
-3.71
-6.52
-8.88
-9.55
-7.83
-3.91
1.35
6.58
10.44
12.16
11.73
9.89
7.74
6.31
6.14
7.30
9.33
11.45
12.70
12.11
9.13
3.96
-2.09
-6.86
-8.04
-4.26
4.01
14.55
24.06
29.57
29.42
23.75
14.17
3.05
-7.27
-14.96
-18.99
-19.35
-17.08
-13.93
-11.86
-12.21
-15.19
-19.92
-24.91
-28.78
-30.75
-30.66
-28.73
-25.41
-21.17
-16.71
-12.88
-10.59
-10.30
-11.78
-14.09
-15.89
-16.14
-14.43
-11.15
-7.25
-3.76
-1.40
-0.42
-0.61
-1.51
-2.67
-3.78
-4.74
-5.63
-6.56
-7.63
-8.81
-9.89
-10.63
-10.75
-10.01
-8.36
-5.87
-2.70
0.90
4.62
8.20
11.37
13.90
15.68
16.76
17.31
17.66
18.13
19.06
20.63
22.91
25.78
29.04
32.42
35.64
38.47
40.70
42.21
42.97
42.98
42.35
41.17
39.59
37.65
35.36
32.66
29.49
25.83
21.70
17.23
12.57
7.81
3.05
-1.67
-6.32
-10.84
-15.15
-19.12
-22.62
-25.58
-27.95
-29.74
-31.05
-32.08
-33.13
-34.53
-36.54
-39.24
-42.45
-45.80
-48.81
-51.01
-52.08
-51.89
-50.52
-48.17
-45.15
-41.73
-38.09
-34.29
-30.28
-25.94
-21.21
-16.11
-10.75
-5.38
-0.31
4.16
7.75
10.26
11.69
12.18
12.10
12.01
12.58
14.41
17.94
23.27
30.13
37.93
45.79
52.83
58.21
61.42
62.36
61.25
58.68
55.37
52.09
49.50
48.07
47.95
49.02
50.88
52.86
54.22
54.20
52.19
47.87
41.20
32.50
22.34
11.59
1.19
-7.90
-14.95
-19.62
-22.05
-22.76
-22.46
-21.84
-21.29
-20.91
-20.60
-20.23
-19.84
-19.70
-20.22
-21.73
-24.41
-28.05
-32.09
-35.71
-37.94
-37.90
-35.03
-29.41
-21.88
-14.05
-7.87
-5.04
-6.40
-11.54
-18.99
-26.69
-32.85
-36.41
-37.21
-35.73
-32.66
-28.68
-24.29
-19.94
-16.06
-13.02
-10.99
-9.91
-9.46
-9.22
-8.85
-8.18
-7.26
-6.34
-5.68
-5.47
-5.69
-6.09
-6.33
-6.05
-5.14
-3.73
-2.22
-1.02
-0.44
-0.50
-1.03
-1.74
-2.39
-2.85
-3.14
-3.36
-3.63
-4.06
-4.74
-5.67
-6.81
-8.04
-9.22
-10.19
-10.90
-11.33
-11.58
-11.71
-11.79
-11.88
-11.95
-11.98
-11.92
-11.67
-11.14
-10.21
-8.81
-6.87
-4.40
-1.43
1.97
5.68
9.58
13.57
17.53
21.38
25.03
28.41
31.46
34.14
36.42
38.30
39.79
40.93
41.74
42.24
42.45
42.38
42.07
41.54
40.83
39.91
38.76
37.30
35.47
33.22
30.56
27.56
24.31
20.93
17.54
14.26
11.18
8.41
5.99
3.93
2.21
0.71
-0.68
-2.10
-3.64
-5.35
-7.21
-9.13
-10.97
-12.59
-13.82
-14.52
-14.65
-14.17
-13.17
-11.79
-10.17
-8.52
-7.02
-5.80
-4.92
-4.35
-4.01
-3.83
-3.79
-3.93
-4.32
-4.99
-5.86
-6.74
-7.42
-7.77
-7.81
-7.71
-7.72
-8.05
-8.76
-9.80
-10.97
-12.06
-12.92
-13.53
-14.04
-14.65
-15.61
-17.06
-18.88
-20.72
-21.95
-21.90
-20.15
-16.91
-13.13
-10.27
-9.86
-12.71
-18.50
-25.61
-31.57
-33.93
-31.13
-23.08
-11.26
1.69
12.71
19.19
19.78
15.02
7.21
-0.31
-4.38
-3.25
2.78
11.70
20.67
27.13
29.60
27.94
23.18
17.08
11.70
8.71
8.80
11.36
14.65
16.54
15.53
11.61
6.20
1.47
-0.79
-0.08
2.79
6.25
8.81
9.79
9.47
8.81
8.84
10.11
12.40
14.62
15.48
14.03
10.18
4.86
-0.55
-4.92
-8.01
-10.47
-13.29
-17.05
-21.30
-24.81
-26.23
-25.08
-22.17
-19.29
-18.20
-19.76
-23.35
-27.27
-29.27
-27.44
-20.85
-9.78
4.16
18.30
29.46
34.75
32.65
23.63
10.17
-4.30
-16.56
-24.82
-28.94
-29.97
-29.18
-27.44
-25.03
-22.00
-18.56
-15.24
-12.64
-11.14
-10.64
-10.58
-10.28
-9.29
-7.55
-5.40
-3.22
-1.32
0.28
1.76
3.41
5.47
8.08
11.17
14.50
17.76
20.58
22.68
23.93
24.37
24.24
23.80
23.28
22.75
22.15
21.27
19.97
18.28
16.43
14.73
13.41
12.35
11.17
9.33
6.44
2.45
-2.32
-7.28
-11.83
-15.41
-17.57
-18.10
-17.01
-14.82
-12.50
-11.25
-12.09
-15.26
-20.08
-25.14
-28.92
-30.48
-29.76
-27.49
-24.79
-22.59
-21.48
-21.60
-22.72
-24.42
-25.99
-26.57
-25.27
-21.50
-15.07
-6.53
2.89
11.61
18.24
22.13
23.56
23.57
23.31
23.38
23.55
23.10
21.48
18.92
16.51
15.51
16.51
18.78
20.54
19.90
15.93
9.56
3.23
-0.06
1.77
8.61
18.00
25.78
27.89
22.24
9.63
-6.63
-22.19
-33.38
-38.52
-37.98
-33.17
-25.71
-16.80
-7.39
1.27
7.68
10.41
8.91
4.07
-2.00
-6.70
-7.98
-5.03
1.41
9.47
16.79
21.31
22.10
19.63
15.40
11.24
8.36
6.95
6.32
5.44
3.79
1.59
-0.20
-0.54
1.26
5.11
9.96
14.32
16.63
15.91
12.16
6.53
0.85
-2.93
-3.70
-1.41
2.87
7.69
11.79
14.42
15.38
14.88
13.52
12.36
12.72
15.83
22.02
30.27
38.31
43.50
44.05
39.86
32.59
24.88
19.20
17.00
18.41
22.45
27.53
31.80
33.47
31.03
23.77
12.24
-1.60
-14.71
-23.83
-26.60
-22.70
-14.06
-4.35
2.44
3.48
-1.80
-11.62
-22.70
-31.69
-36.47
-36.78
-33.93
-29.91
-26.47
-24.62
-24.57
-26.09
-28.82
-32.35
-36.14
-39.41
-41.28
-41.05
-38.49
-34.01
-28.63
-23.53
-19.67
-17.39
-16.38
-15.88
-15.12
-13.63
-11.36
-8.57
-5.64
-2.94
-0.70
0.87
1.64
1.59
0.91
0.05
-0.44
-0.13
1.09
2.89
4.68
5.86
6.15
5.66
4.81
4.10
3.82
4.01
4.44
4.71
4.47
3.55
2.00
0.13
-1.66
-2.89
-3.21
-2.66
-1.70
-1.18
-1.97
-4.58
-8.77
-13.63
-17.95
-20.72
-21.51
-20.48
-18.06
-14.57
-10.18
-5.14
-0.16
3.55
4.70
2.71
-1.74
-6.91
-10.84
-12.53
-12.42
-11.95
-12.23
-12.91
-12.08
-7.45
1.73
13.55
23.94
28.81
26.36
18.17
8.21
0.51
-2.95
-2.81
-1.01
1.03
3.49
7.67
14.32
22.30
28.58
29.69
23.83
12.07
-1.91
-13.59
-19.64
-19.34
-14.55
-8.63
-4.73
-4.56
-7.99
-13.60
-19.75
-25.53
-31.13
-37.41
-45.13
-54.23
-63.74
-72.14
-78.10
-80.99
-81.15
-79.68
-78.03
-77.76
-80.14
-85.79
-94.34
-104.15
-112.67
-117.16
-115.76
-108.39
-96.70
-83.19
-69.92
-57.35
-44.26
-28.62
-8.82
15.52
43.82
75.36
110.10
148.24
188.90
228.36
259.66
274.33
265.84
233.02
181.50
121.83
65.46
20.39
-11.00
-31.17
-44.34
-53.48
-58.88
-59.08
-53.18
-42.57
-30.69
-21.05
-15.33
-12.59
-10.37
-6.97
-2.94
-0.76
-2.92
-9.75
-18.54
-24.76
-24.72
-17.54
-5.82
5.92
13.44
14.45
9.08
-0.70
-12.24
-23.17
-31.87
-37.85
-41.83
-45.33
-49.82
-55.76
-61.71
-64.64
-61.19
-49.43
-30.34
-7.76
12.86
26.23
29.09
20.71
2.93
-20.62
-45.03
-64.80
-74.30
-69.13
-47.62
-12.18
30.51
71.27
101.55
116.42
116.07
105.04
89.67
75.28
64.57
57.66
53.60
51.39
50.57
50.77
51.38
51.40
49.60
45.31
38.62
30.87
23.80
18.96
17.30
19.17
24.34
31.91
40.23
47.12
51.52
52.68
50.74
46.90
43.33
43.11
49.36
64.12
87.39
118.15
152.65
185.60
211.52
226.65
230.44
225.30
215.14
203.59
194.88
190.92
191.86
195.99
200.25
201.15
195.68
182.34
149.88
96.13
27.76
-40.92
-96.41
-132.98
-153.12
-163.41
-169.85
-175.58
-176.69
-172.73
-164.55
-154.60
-145.62
-139.12
-134.90
-131.79
-128.52
-122.87
-115.72
-107.81
-100.49
-95.02
-91.75
-90.01
-88.66
-86.82
-83.30
-78.20
-71.93
-65.55
-60.15
-56.22
-53.52
-51.47
-49.59
-47.26
-44.65
-41.90
-39.46
-37.77
-36.88
-36.51
-36.14
-35.34
-33.70
-31.19
-27.81
-23.73
-19.24
-14.51
-9.68
-4.88
-0.29
3.88
7.34
9.94
11.63
12.41
12.40
11.72
10.50
8.85
6.93
4.90
2.92
1.08
-0.59
-2.17
-3.74
-5.39
-7.11
-8.81
-10.37
-11.64
-12.50
-12.92
-12.88
-12.44
-11.68
-10.74
-9.76
-8.94
-8.45
-8.44
-9.01
-10.20
-11.96
-14.18
-16.67
-19.22
-21.54
-23.40
-24.59
-25.03
-24.77
-23.92
-22.67
-21.18
-19.57
-17.91
-16.23
-14.50
-12.70
-10.76
-8.60
-6.12
-3.26
-0.01
3.56
7.30
11.02
14.53
17.66
20.31
22.46
24.08
25.21
25.81
25.85
25.30
24.24
22.87
21.56
20.66
20.35
20.51
20.74
20.56
19.65
18.08
16.25
14.64
13.49
12.61
11.54
9.90
7.68
5.35
3.51
2.46
1.93
1.21
-0.33
-2.76
-5.45
-7.50
-8.25
-7.79
-6.84
-6.18
-6.08
-5.98
-4.91
-2.11
2.31
7.35
11.64
14.14
14.71
14.06
13.32
13.36
14.42
16.10
17.74
18.81
19.20
19.21
19.29
19.77
20.67
21.75
22.60
22.87
22.34
21.01
19.01
16.58
13.97
11.37
8.93
6.69
4.67
2.97
1.67
0.87
0.56
0.65
0.91
1.12
1.07
0.71
0.09
-0.66
-1.38
-1.97
-2.39
-2.68
-2.93
-3.23
-3.64
-4.21
-4.94
-5.80
-6.76
-7.78
-8.82
-9.80
-10.66
-11.36
-11.85
-12.19
-12.41
-12.59
-12.77
-12.94
-13.09
-13.17
-13.16
-13.08
-13.01
-12.98
-13.01
-13.07
-13.07
-12.90
-12.53
-11.99
-11.42
-11.03
-11.02
-11.51
-12.55
-13.99
-15.64
-17.28
-18.84
-20.41
-22.18
-24.36
-27.04
-30.09
-33.11
-35.59
-37.09
-37.48
-36.96
-36.08
-35.44
-35.37
-35.71
-35.78
-34.64
-31.45
-25.87
-18.25
-9.52
-0.82
6.91
13.30
18.64
23.73
29.38
36.04
43.24
49.85
54.39
55.85
54.24
50.54
46.40
43.31
42.08
42.51
43.65
44.24
43.18
39.91
34.66
28.56
23.40
21.04
22.47
26.83
31.05
30.65
21.66
2.97
-22.38
-47.57
-64.67
-68.31
-58.56
-41.64
-27.53
-25.46
-39.65
-67.03
-98.41
-122.16
-129.00
-115.55
-85.56
-48.41
-15.73
2.59
1.70
-16.56
-44.29
-70.29
-84.05
-79.39
-56.67
-22.34
13.65
41.66
55.60
54.55
42.51
26.52
14.04
10.49
17.54
32.80
51.04
66.37
74.61
74.76
68.94
61.00
54.49
51.36
51.59
54.03
57.48
61.22
64.81
67.32
66.89
61.22
48.79
30.21
8.64
-11.07
-24.15
-27.94
-23.00
-12.72
-1.81
5.82
8.39
6.54
2.44
-1.49
-3.63
-3.44
-1.22
2.30
6.23
9.70
12.12
13.42
14.29
16.06
20.12
27.20
36.72
46.89
55.39
60.40
61.39
59.12
55.05
50.48
46.04
41.67
37.05
32.07
27.01
22.39
18.67
15.99
14.09
12.42
10.43
7.80
4.54
0.96
-2.49
-5.47
-7.87
-9.80
-11.50
-13.24
-15.14
-17.14
-19.03
-20.60
-21.69
-22.30
-22.54
-22.59
-22.60
-22.60
-22.56
-22.38
-22.00
-21.49
-20.98
-20.68
-20.77
-21.36
-22.43
-23.91
-25.64
-27.46
-29.23
-30.78
-32.00
-32.81
-33.20
-33.20
-32.98
-32.72
-32.61
-32.83
-33.47
-34.54
-35.99
-37.70
-39.53
-41.29
-42.82
-43.93
-44.48
-44.37
-43.56
-42.08
-40.02
-37.50
-34.66
-31.65
-28.55
-25.43
-22.32
-19.22
-16.11
-12.96
-9.71
-6.34
-2.82
0.82
4.51
8.16
11.62
14.76
17.47
19.63
21.12
21.84
21.71
20.67
18.75
16.09
12.92
9.50
6.11
3.04
0.54
-1.22
-2.12
-2.10
-1.19
0.53
2.92
5.83
9.09
12.57
16.16
19.78
23.37
26.88
30.23
33.34
36.06
38.20
39.55
39.92
39.17
37.23
34.14
30.00
25.02
19.41
13.37
7.09
0.72
-5.61
-11.89
-18.14
-24.43
-30.78
-37.25
-43.79
-50.27
-56.47
-62.11
-66.88
-70.45
-72.57
-73.09
-71.94
-69.20
-65.03
-59.68
-53.44
-46.61
-39.44
-32.16
-24.90
-17.71
-10.61
-3.57
3.41
10.33
17.11
23.67
29.84
35.40
40.17
43.92
46.54
47.98
48.28
47.57
46.02
43.83
41.22
38.35
35.37
32.38
29.42
26.49
23.55
20.52
17.40
14.16
10.88
7.61
4.46
1.54
-1.05
-3.23
-4.89
-5.97
-6.43
-6.27
-5.55
-4.39
-2.90
-1.17
0.76
2.89
5.21
7.72
10.40
13.22
16.15
19.14
22.12
24.98
27.59
29.80
31.47
32.49
32.83
32.53
31.67
30.34
28.63
26.59
24.27
21.66
18.77
15.61
12.26
8.80
5.40
2.19
-0.74
-3.31
-5.49
-7.31
-8.78
-9.91
-10.71
-11.16
-11.28
-11.11
-10.70
-10.07
-9.23
-8.17
-6.88
-5.37
-3.66
-1.77
0.24
2.29
4.29
6.10
7.52
8.41
8.64
8.23
7.29
6.05
4.76
3.61
2.74
2.22
2.02
2.09
2.32
2.56
2.63
2.28
1.36
-0.26
-2.53
-5.28
-8.29
-11.36
-14.36
-17.17
-19.74
-21.97
-23.80
-25.19
-26.20
-26.97
-27.67
-28.36
-28.99
-29.37
-29.29
-28.63
-27.44
-25.92
-24.33
-22.90
-21.70
-20.67
-19.64
-18.48
-17.12
-15.56
-13.89
-12.18
-10.46
-8.70
-6.82
-4.74
-2.42
0.10
2.74
5.42
8.07
10.59
12.88
14.78
16.12
16.78
16.70
15.90
14.45
12.44
9.95
7.04
3.82
0.43
-2.93
-6.13
-9.11
-11.91
-14.59
-17.12
-19.41
-21.26
-22.48
-22.92
-22.52
-21.36
-19.60
-17.49
-15.26
-13.12
-11.23
-9.66
-8.43
-7.53
-6.93
-6.55
-6.28
-6.00
-5.59
-5.03
-4.41
-3.92
-3.73
-3.91
-4.41
-5.10
-5.81
-6.42
-6.86
-7.04
-6.85
-6.11
-4.65
-2.36
0.72
4.41
8.40
12.34
15.91
18.83
20.95
22.20
22.58
22.17
21.10
19.57
17.81
16.04
14.50
13.29
12.47
11.96
11.61
11.26
10.72
9.86
8.60
6.94
4.93
2.66
0.24
-2.18
-4.50
-6.58
-8.34
-9.69
-10.60
-11.09
-11.20
-11.01
-10.61
-10.03
-9.23
-8.13
-6.54
-4.35
-1.45
2.12
6.26
10.74
15.32
19.81
24.03
27.89
31.28
34.18
36.50
38.25
39.37
39.90
39.92
39.55
38.93
38.14
37.14
35.77
33.81
31.15
27.83
24.10
20.35
16.89
13.90
11.30
8.93
6.59
4.17
1.65
-0.98
-3.65
-6.27
-8.67
-10.58
-11.72
-12.00
-11.68
-11.45
-12.24
-14.81
-19.30
-24.95
-30.36
-34.05
-35.15
-33.83
-31.17
-28.57
-27.06
-26.93
-27.78
-28.93
-29.78
-29.98
-29.41
-28.00
-25.70
-22.54
-18.74
-14.63
-10.55
-6.76
-3.44
-0.80
0.83
1.13
-0.02
-2.33
-5.07
-7.37
-8.45
-7.96
-6.06
-3.23
-0.04
3.01
5.65
7.75
9.33
10.36
10.83
10.66
9.80
8.28
6.31
4.22
2.35
0.84
-0.33
-1.37
-2.35
-3.25
-4.01
-4.81
-6.25
-9.14
-14.07
-20.90
-28.57
-35.51
-40.19
-41.96
-41.25
-39.40
-37.92
-37.83
-39.23
-41.42
-43.31
-43.99
-42.97
-40.34
-36.51
-31.97
-27.07
-22.00
-16.82
-11.61
-6.58
-2.09
1.57
4.22
6.02
7.33
8.57
10.03
11.72
13.35
14.52
14.79
13.92
11.94
9.12
5.86
2.56
-0.51
-3.22
-5.48
-7.27
-8.50
-9.05
-8.74
-7.47
-5.21
-2.12
1.51
5.34
9.02
12.32
15.13
17.43
19.30
20.86
22.23
23.50
24.72
25.85
26.88
27.75
28.44
28.95
29.33
29.62
29.88
30.16
30.49
30.90
31.47
32.21
33.20
34.49
36.10
37.97
39.93
41.75
43.20
44.12
44.38
44.06
43.39
42.68
42.12
41.69
41.15
40.17
38.50
35.89
32.47
28.62
24.83
21.43
18.30
15.03
11.08
6.09
-0.22
-7.52
-15.22
-22.70
-29.67
-36.45
-43.71
-52.00
-61.50
-72.00
-82.54
-92.04
-99.72
-105.23
-108.51
-109.21
-106.33
-96.23
-77.51
-52.54
-27.78
-10.25
-3.58
-6.89
-16.43
-28.13
-39.78
-51.25
-60.92
-65.30
-59.65
-40.05
-5.85
39.37
89.15
133.61
162.92
172.68
164.97
146.06
122.75
99.75
79.30
64.03
53.57
48.12
48.45
54.74
65.88
79.27
90.85
93.60
82.84
57.52
22.03
-15.18
-45.43
-63.43
-69.07
-66.51
-61.26
-56.89
-54.38
-52.27
-48.69
-43.14
-36.80
-31.37
-28.25
-27.69
-28.37
-28.75
-27.50
-24.20
-19.50
-14.71
-11.09
-9.31
-9.19
-9.70
-9.79
-8.69
-6.29
-3.11
0.03
2.44
3.81
4.35
4.66
5.30
6.62
8.58
10.87
13.06
14.86
16.17
17.13
18.02
19.10
20.53
22.30
24.33
26.48
28.72
31.08
33.63
36.36
39.19
41.94
44.26
45.77
46.09
44.97
42.21
37.75
31.58
23.85
14.85
5.03
-4.70
-13.94
-22.17
-28.94
-33.97
-37.30
-39.15
-39.88
-39.83
-39.33
-38.57
-37.58
-36.59
-35.34
-33.97
-32.79
-32.17
-32.30
-33.17
-34.54
-35.92
-36.83
-36.98
-36.65
-36.45
-37.09
-39.10
-42.48
-46.71
-50.86
-54.03
-55.74
-56.44
-57.23
-59.36
-63.65
-70.02
-77.34
-83.80
-88.13
-88.95
-86.33
-81.23
-74.95
-68.71
-63.44
-59.77
-57.82
-56.64
-53.71
-45.56
-28.92
-2.61
31.09
66.77
97.87
119.34
129.63
130.86
127.00
121.63
116.55
111.54
105.81
99.24
92.91
88.52
87.45
89.89
94.70
99.72
102.12
99.32
89.71
73.39
52.20
29.41
8.50
-8.01
-19.27
-26.07
-29.86
-31.89
-32.60
-31.88
-29.64
-26.41
-23.32
-21.50
-21.64
-23.43
-25.87
-27.78
-28.28
-27.19
-24.97
-22.38
-20.08
-18.42
-17.31
-16.32
-14.95
-12.93
-10.34
-7.53
-4.98
-3.06
-1.97
-1.66
-1.86
-2.21
-2.43
-2.41
-2.31
-2.53
-3.46
-5.23
-7.56
-9.83
-11.31
-11.57
-10.68
-9.08
-7.42
-6.17
-5.51
-5.32
-5.41
-5.68
-6.14
-6.75
-7.37
-7.77
-7.71
-7.19
-6.41
-5.74
-5.51
-5.81
-6.49
-7.20
-7.56
-7.34
-6.60
-5.56
-4.50
-3.52
-2.55
-1.35
0.30
2.48
5.01
7.59
9.93
11.85
13.28
14.28
14.86
15.01
14.79
14.35
13.91
13.72
13.86
14.23
14.59
14.65
14.25
13.36
12.13
10.76
9.49
8.41
7.46
6.49
5.30
3.82
2.26
1.06
0.72
1.50
3.23
5.38
7.25
8.33
8.54
8.23
7.95
8.11
8.80
9.65
10.12
9.74
8.32
6.14
3.69
1.50
-0.14
-1.34
-2.43
-3.76
-5.43
-7.18
-8.60
-9.36
-9.44
-9.19
-9.02
-9.23
-9.85
-10.59
-11.22
-11.60
-11.84
-12.13
-12.57
-13.05
-13.25
-12.81
-11.54
-9.52
-7.04
-4.61
-2.76
-1.73
-1.55
-1.92
-2.39
-2.56
-2.34
-1.98
-1.98
-2.74
-4.36
-6.47
-8.48
-9.91
-10.65
-11.06
-11.64
-12.67
-14.12
-15.57
-16.66
-17.19
-17.27
-17.25
-17.38
-17.81
-18.50
-19.18
-19.65
-19.71
-19.24
-18.27
-16.93
-15.35
-13.57
-11.52
-9.18
-6.64
-4.32
-2.68
-1.99
-2.02
-2.09
-1.39
0.56
3.61
7.02
9.85
11.57
12.24
12.43
12.86
13.96
15.68
17.72
19.57
20.92
21.68
21.96
22.01
22.10
22.28
22.45
22.36
21.76
20.61
19.15
17.84
17.05
16.92
17.08
16.92
15.90
13.88
11.26
8.81
7.19
6.69
6.98
7.45
7.49
6.91
6.00
5.31
5.34
6.12
7.28
8.17
8.20
7.20
5.44
3.43
1.70
0.59
0.25
0.75
2.04
3.99
6.39
8.93
11.33
13.37
14.89
15.76
16.04
15.75
15.05
14.19
13.38
12.77
12.29
11.74
10.91
9.80
8.65
7.83
7.58
7.77
8.02
7.91
7.21
5.99
4.65
3.60
3.13
3.33
3.88
4.56
5.22
5.86
6.63
7.63
8.82
9.95
10.61
10.31
8.95
6.93
5.00
3.91
4.14
5.57
7.75
9.85
11.10
11.30
10.99
11.05
12.27
15.02
19.01
23.53
27.38
29.30
28.67
25.78
21.59
17.36
13.97
11.92
11.08
10.30
7.89
2.15
-7.91
-22.64
-41.76
-64.30
-88.82
-110.76
-124.67
-127.73
-121.66
-110.83
-100.01
-92.59
-89.97
-91.27
-94.54
-98.03
-100.86
-103.40
-105.81
-108.22
-110.21
-111.39
-110.22
-105.10
-94.92
-79.19
-58.77
-34.58
-8.19
19.07
43.01
61.90
75.61
85.12
95.77
107.59
119.14
127.93
132.03
130.08
122.76
112.38
102.89
99.18
105.54
125.62
155.00
188.45
217.90
234.20
229.21
199.25
147.35
82.81
19.12
-30.69
-57.31
-58.32
-37.57
-5.70
24.22
41.24
41.37
28.20
8.07
-13.67
-34.82
-54.82
-73.23
-88.35
-97.80
-100.03
-95.55
-87.27
-78.81
-73.46
-72.58
-75.64
-80.39
-84.01
-84.41
-81.13
-75.51
-69.72
-65.87
-65.10
-67.36
-71.53
-75.79
-78.35
-78.04
-74.50
-68.13
-59.99
-51.33
-43.27
-36.50
-31.03
-26.34
-21.36
-14.87
-6.40
3.52
13.44
21.48
26.19
27.39
26.23
25.48
28.52
37.35
51.74
69.31
86.50
99.96
108.17
111.74
113.83
118.92
130.54
150.39
178.05
210.85
244.50
274.31
291.51
285.29
250.97
191.58
118.09
45.63
-13.61
-55.38
-83.49
-106.20
-128.84
-149.94
-163.58
-163.08
-145.32
-113.69
-77.61
-48.28
-36.65
-48.05
-80.40
-126.54
-177.29
-222.28
-252.46
-262.46
-251.78
-224.10
-184.16
-136.77
-87.27
-41.22
-3.47
22.79
37.58
43.59
44.60
45.06
48.19
54.73
63.33
71.47
76.54
76.87
72.35
63.09
51.66
41.20
33.91
30.44
29.94
30.53
30.28
28.11
24.21
20.15
17.67
17.69
20.11
24.04
28.24
31.62
33.43
33.34
31.62
28.71
25.13
21.54
18.51
16.31
14.79
13.44
11.67
9.26
6.25
2.87
-0.60
-4.04
-7.54
-11.21
-15.05
-18.84
-22.12
-24.46
-25.72
-25.99
-25.57
-24.80
-23.87
-22.76
-21.29
-19.26
-16.60
-13.45
-10.17
-7.06
-4.46
-2.49
-1.19
-0.58
-0.74
-1.77
-3.72
-6.42
-9.37
-11.99
-13.73
-14.38
-14.06
-13.15
-11.86
-10.20
-7.91
-4.66
-0.44
4.43
9.34
13.64
16.98
19.44
21.39
23.26
25.23
27.16
28.75
29.77
30.25
30.59
31.29
32.73
34.94
37.51
39.74
41.06
41.16
40.30
39.20
38.75
39.69
42.41
46.78
52.23
58.01
63.46
68.28
72.65
77.02
82.03
88.25
95.97
104.85
113.48
119.12
117.83
105.46
79.23
39.39
-9.92
-61.33
-106.42
-138.47
-154.67
-156.50
-148.43
-135.60
-121.92
-109.22
-97.84
-87.68
-78.99
-72.50
-68.74
-67.50
-67.55
-67.11
-64.81
-60.23
-54.17
-48.05
-43.30
-40.60
-39.66
-39.44
-38.67
-36.42
-32.45
-27.28
-21.87
-17.21
-13.99
-12.34
-11.97
-12.24
-12.47
-12.11
-10.96
-9.01
-6.49
-3.68
-0.87
1.65
3.56
4.56
4.46
3.27
1.27
-0.97
-2.77
-3.55
-3.20
-2.08
-0.92
-0.47
-1.15
-2.81
-4.80
-6.27
-6.58
-5.63
-3.83
-1.84
-0.25
0.77
1.47
2.22
3.27
4.47
5.40
5.62
5.00
3.85
2.78
2.39
2.97
4.33
5.99
7.40
8.16
8.24
7.80
7.10
6.36
5.63
4.88
4.11
3.31
2.54
1.75
0.83
-0.41
-2.06
-4.02
-5.90
-7.15
-7.19
-5.66
-2.56
1.75
6.58
11.10
14.51
16.28
16.25
14.72
12.27
9.53
6.97
4.77
2.94
1.37
0.05
-1.11
-2.26
-3.76
-5.87
-8.56
-11.31
-13.20
-13.35
-11.33
-7.46
-2.65
1.97
5.56
7.74
8.61
8.48
7.62
6.20
4.35
2.26
0.22
-1.44
-2.51
-2.95
-2.94
-2.73
-2.50
-2.29
-2.01
-1.54
-0.92
-0.35
-0.12
-0.40
-1.13
-1.99
-2.59
-2.65
-2.12
-1.12
0.16
1.61
3.11
4.45
5.35
5.49
4.80
3.56
2.31
1.57
1.58
2.04
2.36
2.03
0.91
-0.60
-1.82
-2.17
-1.44
0.14
2.10
4.05
5.79
7.35
8.77
9.89
10.36
9.72
7.80
4.82
1.42
-1.55
-3.45
-4.01
-3.45
-2.24
-0.92
0.16
0.83
1.08
0.94
0.45
-0.32
-1.32
-2.39
-3.32
-3.92
-4.09
-3.88
-3.38
-2.73
-1.91
-0.89
0.43
2.09
3.97
5.85
7.38
8.29
8.34
7.47
5.80
3.53
0.93
-1.73
-4.16
-6.13
-7.51
-8.29
-8.56
-8.47
-8.16
-7.64
-6.85
-5.63
-3.90
-1.78
0.47
2.51
4.10
5.13
5.62
5.56
4.87
3.43
1.25
-1.41
-3.86
-5.39
-5.49
-4.23
-2.25
-0.50
0.31
0.05
-0.87
-1.75
-2.12
-2.00
-1.81
-2.00
-2.69
-3.51
-3.84
-3.27
-1.90
-0.28
0.83
1.06
0.51
-0.20
-0.36
0.43
2.04
3.83
4.94
4.72
2.99
0.13
-3.05
-5.71
-7.25
-7.53
-6.88
-5.81
-4.78
-3.94
-3.16
-2.22
-0.93
0.68
2.37
3.81
4.72
5.04
4.94
4.75
4.79
5.26
6.06
6.84
7.17
6.71
5.44
3.63
1.82
0.57
0.16
0.45
0.94
1.03
0.31
-1.15
-2.83
-3.99
-4.01
-2.79
-0.72
1.55
3.48
4.82
5.67
6.27
6.75
7.04
6.97
6.45
5.65
4.93
4.59
4.67
4.88
4.79
4.12
2.97
1.72
0.79
0.36
0.29
0.18
-0.29
-1.19
-2.29
-3.24
-3.75
-3.78
-3.48
-3.00
-2.38
-1.58
-0.52
0.81
2.28
3.69
4.78
5.28
4.98
3.94
2.43
0.90
-0.21
-0.70
-0.65
-0.36
-0.14
-0.20
-0.48
-0.82
-1.04
-1.02
-0.80
-0.51
-0.26
-0.20
-0.49
-1.20
-2.28
-3.45
-4.21
-4.07
-2.75
-0.34
2.66
5.46
7.28
7.65
6.57
4.52
2.17
0.09
-1.48
-2.66
-3.67
-4.66
-5.53
-6.05
-5.99
-5.32
-4.22
-2.94
-1.73
-0.63
0.38
1.29
2.06
2.56
2.71
2.53
2.07
1.38
0.43
-0.83
-2.36
-3.92
-5.16
-5.69
-5.32
-4.04
-2.12
0.05
2.09
3.68
4.65
4.94
4.67
4.07
3.38
2.74
2.09
1.20
-0.17
-2.01
-4.06
-5.75
-6.50
-5.95
-4.18
-1.75
0.54
1.93
1.98
0.69
-1.52
-4.01
-6.17
-7.62
-8.28
-8.36
-8.16
-7.90
-7.63
-7.28
-6.66
-5.64
-4.19
-2.50
-0.88
0.39
1.11
1.37
1.46
1.64
2.01
2.40
2.49
2.06
1.23
0.44
0.17
0.71
1.85
3.05
3.76
3.70
2.97
1.96
1.07
0.49
0.20
0.03
-0.18
-0.45
-0.72
-0.92
-1.03
-1.08
-1.09
-1.02
-0.82
-0.35
0.45
1.59
2.98
4.42
5.59
6.19
6.04
5.23
4.10
3.13
2.67
2.82
3.32
3.70
3.60
2.93
1.88
0.84
0.12
-0.22
-0.27
-0.16
0.09
0.70
1.87
3.64
5.66
7.25
7.69
6.60
4.12
0.86
-2.31
-4.70
-6.00
-6.22
-5.62
-4.45
-2.88
-1.08
0.78
2.48
3.80
4.61
4.86
4.60
3.95
3.10
2.30
1.87
2.16
3.25
4.97
6.83
8.23
8.62
7.81
6.01
3.70
1.45
-0.34
-1.51
-2.15
-2.41
-2.45
-2.30
-1.98
-1.61
-1.41
-1.69
-2.51
-3.62
-4.51
-4.59
-3.58
-1.70
0.41
1.97
2.47
1.91
0.76
-0.28
-0.65
-0.23
0.72
1.61
1.98
1.57
0.50
-0.83
-1.93
-2.46
-2.29
-1.49
-0.29
1.12
2.53
3.74
4.56
4.72
4.11
2.77
1.03
-0.62
-1.66
-1.70
-0.67
1.15
3.19
4.79
5.33
4.51
2.48
-0.19
-2.75
-4.57
-5.36
-5.30
-4.74
-4.13
-3.77
-3.74
-3.99
-4.41
-4.83
-5.12
-5.13
-4.78
-4.05
-3.09
-2.03
-1.03
-0.14
0.62
1.26
1.72
1.93
1.87
1.61
1.28
1.01
0.86
0.84
0.91
1.10
1.36
1.68
1.98
2.21
2.30
2.22
2.05
1.85
1.71
1.62
1.52
1.32
0.94
0.29
-0.58
-1.58
-2.53
-3.26
-3.73
-3.99
-4.25
-4.72
-5.47
-6.34
-7.05
-7.26
-6.80
-5.72
-4.30
-2.89
-1.78
-1.08
-0.75
-0.55
-0.24
0.33
1.17
2.05
2.68
2.76
2.20
1.12
-0.17
-1.31
-2.06
-2.35
-2.18
-1.64
-0.75
0.46
1.97
3.68
5.41
6.96
8.12
8.75
8.78
8.24
7.20
5.83
4.32
2.83
1.57
0.69
0.30
0.39
0.87
1.53
2.16
2.59
2.81
2.88
2.90
2.88
2.84
2.78
2.76
2.86
3.08
3.28
3.26
2.80
1.83
0.46
-1.11
-2.60
-3.78
-4.52
-4.76
-4.48
-3.72
-2.56
-1.21
0.05
0.94
1.34
1.34
1.27
1.42
1.89
2.49
2.81
2.47
1.36
-0.22
-1.74
-2.74
-3.00
-2.71
-2.21
-1.78
-1.38
-0.78
0.32
2.00
4.00
5.79
6.76
6.57
5.33
3.57
2.04
1.35
1.69
2.74
3.95
4.79
5.00
4.75
4.38
4.23
4.40
4.67
4.69
4.15
2.96
1.32
-0.37
-1.69
-2.31
-2.18
-1.49
-0.63
-0.03
0.02
-0.56
-1.62
-2.82
-3.77
-4.17
-3.87
-2.98
-1.77
-0.68
-0.10
-0.22
-1.00
-2.12
-3.11
-3.59
-3.37
-2.56
-1.50
-0.61
-0.16
-0.25
-0.74
-1.40
-1.98
-2.34
-2.37
-2.04
-1.37
-0.45
0.57
1.55
2.39
3.04
3.53
3.82
3.86
3.55
2.84
1.84
0.77
-0.09
-0.58
-0.66
-0.47
-0.21
-0.02
0.09
0.19
0.38
0.76
1.25
1.78
2.19
2.42
2.47
2.39
2.20
1.87
1.36
0.64
-0.28
-1.31
-2.36
-3.30
-4.11
-4.78
-5.29
-5.68
-5.96
-6.03
-5.79
-5.14
-4.07
-2.81
-1.72
-1.19
-1.39
-2.24
-3.37
-4.37
-5.03
-5.39
-5.62
-5.89
-6.23
-6.46
-6.39
-5.83
-4.79
-3.41
-1.89
-0.45
0.82
1.81
2.50
2.93
3.16
3.28
3.41
3.61
3.89
4.29
4.78
5.30
5.74
5.93
5.72
5.08
4.17
3.24
2.60
2.42
2.64
3.00
3.19
2.96
2.32
1.55
1.05
1.16
1.99
3.35
4.79
5.79
5.92
4.97
3.07
0.62
-1.86
-3.87
-5.06
-5.30
-4.60
-3.05
-0.88
1.58
3.93
5.63
6.28
5.72
4.16
2.06
-0.09
-1.94
-3.40
-4.55
-5.54
-6.45
-7.33
-8.16
-8.81
-9.13
-8.85
-7.72
-5.70
-3.04
-0.30
1.88
3.07
3.29
2.87
2.36
2.12
2.23
2.55
2.82
2.89
2.74
2.51
2.29
2.20
2.27
2.49
2.80
3.09
3.22
3.03
2.51
1.77
0.98
0.33
-0.16
-0.56
-1.08
-1.86
-2.92
-4.00
-4.73
-4.71
-3.70
-1.72
0.92
3.72
6.13
7.65
7.97
7.08
5.12
2.47
-0.40
-3.02
-5.01
-6.17
-6.58
-6.47
-6.21
-6.09
-6.18
-6.36
-6.37
-5.91
-4.83
-3.21
-1.30
0.55
2.06
3.16
3.90
4.41
4.76
4.90
4.73
4.15
3.20
1.99
0.80
-0.13
-0.60
-0.51
0.04
0.84
1.59
2.01
1.95
1.43
0.58
-0.42
-1.36
-2.07
-2.37
-2.11
-1.31
-0.17
0.91
1.47
1.30
0.54
-0.37
-0.96
-0.93
-0.29
0.75
1.94
3.11
4.14
4.96
5.40
5.34
4.76
3.78
2.62
1.46
0.34
-0.77
-1.92
-3.03
-4.02
-4.74
-5.15
-5.26
-5.09
-4.65
-3.99
-3.25
-2.67
-2.53
-2.91
-3.71
-4.62
-5.30
-5.67
-5.86
-6.11
-6.59
-7.23
-7.72
-7.71
-7.00
-5.69
-4.11
-2.68
-1.68
-1.16
-0.94
-0.75
-0.42
0.07
0.59
0.97
1.15
1.24
1.39
1.71
2.11
2.34
2.16
1.50
0.60
-0.04
0.05
1.05
2.78
4.68
6.09
6.55
5.92
4.48
2.74
1.20
0.18
-0.30
-0.48
-0.69
-1.18
-1.98
-2.85
-3.34
-3.07
-1.91
-0.10
1.83
3.35
4.21
4.52
4.59
4.71
4.84
4.72
4.05
2.77
1.21
-0.05
-0.53
-0.12
0.83
1.70
1.95
1.35
0.13
-1.22
-2.16
-2.34
-1.81
-0.87
-0.09
0.07
-0.50
-1.51
-2.36
-2.48
-1.61
0.03
1.98
3.71
4.90
5.54
5.70
5.45
4.67
3.29
1.34
-0.82
-2.63
-3.57
-3.45
-2.58
-1.58
-1.12
-1.48
-2.48
-3.50
-3.91
-3.33
-1.82
0.23
2.39
4.37
6.10
7.63
8.86
9.55
9.34
8.09
6.00
3.61
1.61
0.49
0.29
0.69
1.18
1.39
1.18
0.67
0.06
-0.49
-0.98
-1.45
-1.92
-2.37
-2.72
-3.00
-3.30
-3.79
-4.53
-5.48
-6.43
-7.15
-7.42
-7.15
-6.40
-5.29
-4.03
-2.83
-1.94
-1.54
-1.67
-2.29
-3.18
-4.11
-4.87
-5.33
-5.49
-5.38
-5.08
-4.57
-3.93
-3.21
-2.54
-2.07
-1.82
-1.68
-1.38
-0.71
0.42
1.80
3.07
3.87
4.02
3.66
3.11
2.70
2.59
2.76
3.10
3.63
4.43
5.58
6.95
8.21
8.95
8.91
8.17
7.09
6.07
5.28
4.61
3.80
2.72
1.52
0.58
0.21
0.35
0.59
0.32
-0.89
-2.98
-5.45
-7.67
-9.09
-9.53
-9.14
-8.25
-7.25
-6.40
-5.83
-5.47
-5.12
-4.51
-3.47
-2.00
-0.30
1.29
2.50
3.25
3.64
3.84
3.92
3.80
3.30
2.46
1.47
0.74
0.65
1.32
2.58
3.99
5.03
5.34
4.80
3.54
1.88
0.13
-1.53
-2.95
-4.16
-5.14
-5.82
-6.04
-5.68
-4.73
-3.42
-2.05
-0.91
-0.14
0.35
0.68
0.93
1.02
0.80
0.18
-0.67
-1.39
-1.55
-0.91
0.35
1.68
2.40
2.08
0.76
-1.07
-2.69
-3.58
-3.61
-3.01
-2.18
-1.38
-0.65
0.07
0.82
1.49
1.94
2.15
2.21
2.36
2.70
3.13
3.42
3.34
2.89
2.29
1.82
1.64
1.78
2.12
2.57
3.13
3.83
4.65
5.43
5.97
6.08
5.74
5.09
4.30
3.52
2.79
2.06
1.34
0.68
0.17
-0.09
-0.06
0.23
0.72
1.34
2.06
2.78
3.37
3.60
3.32
2.49
1.32
0.15
-0.71
-1.11
-1.15
-1.05
-1.07
-1.34
-1.86
-2.49
-3.08
-3.47
-3.50
-2.99
-1.82
-0.08
1.92
3.68
4.75
4.95
4.37
3.36
2.28
1.30
0.37
-0.72
-2.10
-3.80
-5.67
-7.48
-8.92
-9.73
-9.66
-8.53
-6.31
-3.21
0.29
3.54
5.85
6.76
6.13
4.25
1.75
-0.66
-2.41
-3.27
-3.35
-3.05
-2.77
-2.82
-3.32
-4.22
-5.38
-6.59
-7.49
-7.67
-6.79
-4.89
-2.36
0.06
1.63
2.02
1.53
0.99
1.30
3.06
6.25
10.24
14.11
17.02
18.45
18.39
17.20
15.46
13.73
12.46
12.06
12.83
14.74
17.47
20.37
22.54
23.30
22.40
20.26
18.15
17.62
19.64
24.33
30.87
37.94
44.36
49.58
53.69
57.36
61.54
66.61
72.51
78.53
83.53
86.64
87.77
87.83
87.95
88.81
89.71
88.76
83.42
71.53
54.10
35.56
16.58
-5.34
-29.84
-54.66
-73.89
-79.51
-65.55
-32.43
11.13
50.18
67.62
52.36
3.97
-67.30
-146.24
-219.60
-280.13
-326.49
-344.32
-323.37
-262.80
-173.48
-72.24
25.82
111.02
178.97
229.58
263.53
284.89
297.08
303.23
306.52
309.26
312.01
313.37
311.38
307.27
300.80
291.67
280.25
267.73
255.36
243.72
232.25
220.54
208.92
197.15
185.01
172.65
160.56
149.11
138.04
125.41
109.43
89.33
64.76
35.87
3.32
-31.74
-67.81
-103.35
-139.56
-176.80
-213.53
-246.84
-273.91
-293.28
-305.03
-310.26
-310.64
-313.46
-323.83
-342.23
-364.55
-385.53
-401.85
-412.80
-419.50
-423.91
-436.88
-465.80
-510.56
-563.83
-616.33
-661.94
-698.60
-727.04
-749.31
-778.91
-824.73
-885.91
-952.31
-1011.81
-1057.01
-1086.34
-1102.21
-1037.40
-861.23
-593.51
-296.82
-32.88
168.01
305.13
393.46
452.78
500.67
534.82
553.88
557.99
550.78
536.72
518.39
497.24
475.49
456.04
433.11
396.60
346.02
288.27
232.32
184.42
147.12
121.35
106.64
95.96
83.53
68.20
52.71
40.75
34.15
32.78
38.15
51.33
69.26
87.96
104.87
118.91
129.83
137.13
140.64
145.89
158.17
178.88
206.29
238.86
276.50
319.34
365.10
407.36
443.80
469.91
479.99
470.95
447.07
419.56
400.76
397.66
409.11
437.83
482.93
539.53
600.20
659.35
714.99
767.08
815.83
800.02
687.97
493.66
269.88
68.21
-87.15
-196.32
-270.82
-323.91
-365.91
-392.92
-399.86
-386.98
-361.52
-332.98
-304.70
-281.61
-266.36
-259.69
-253.45
-240.56
-219.33
-194.00
-170.49
-158.79
-158.43
-166.48
-179.91
-191.62
-196.24
-192.57
-183.48
-172.94
-163.13
-154.18
-146.23
-139.21
-131.14
-120.40
-107.42
-93.97
-82.49
-72.98
-63.18
-50.88
-34.46
-14.06
7.74
25.47
33.05
27.07
10.41
-9.01
-21.99
-20.52
-1.67
32.78
75.70
117.04
146.39
157.54
149.28
119.71
73.45
14.98
-42.80
-85.75
-106.47
-112.58
-114.42
-119.61
-132.41
-151.05
-173.51
-195.39
-211.63
-210.54
-185.06
-137.05
-78.44
-23.75
17.89
44.15
58.67
66.10
69.31
67.93
61.71
51.86
41.55
34.96
34.53
40.40
49.73
58.35
61.84
58.80
51.08
42.65
37.69
38.35
44.37
53.05
60.89
64.55
63.01
57.66
51.41
47.21
47.15
52.14
61.40
72.25
80.06
79.34
65.52
37.21
-2.57
-47.43
-89.00
-120.06
-137.07
-140.92
-135.40
-124.81
-110.66
-94.85
-77.80
-59.85
-42.34
-27.32
-16.36
-9.72
-6.21
-3.93
-1.27
2.61
7.46
12.23
15.70
17.24
17.08
16.19
15.87
16.90
19.60
23.54
27.80
31.33
33.47
34.08
33.45
32.01
30.16
28.11
25.81
23.09
19.79
16.16
12.68
9.99
8.71
9.05
10.94
13.98
17.52
20.71
22.94
23.74
22.80
20.08
15.45
8.99
1.05
-7.17
-15.44
-23.17
-29.70
-35.35
-39.20
-41.03
-40.92
-38.93
-35.26
-30.15
-23.83
-16.52
-8.50
-0.16
7.69
14.24
18.97
21.76
22.90
22.81
22.12
21.41
20.95
20.31
18.98
16.62
13.32
9.79
6.65
4.72
4.41
5.47
6.57
6.36
3.84
-1.15
-7.75
-15.12
-22.11
-27.96
-32.88
-38.52
-46.91
-60.56
-82.72
-111.91
-147.85
-188.42
-228.70
-261.33
-278.83
-275.37
-249.46
-204.87
-149.11
-91.28
-38.13
7.18
47.24
81.44
107.75
124.09
129.79
126.36
116.57
103.99
91.66
81.14
71.97
63.14
53.84
43.86
33.81
24.42
16.57
10.74
6.78
3.48
-0.26
-5.15
-11.37
-18.51
-25.98
-33.04
-39.15
-43.98
-47.82
-50.94
-53.41
-55.27
-56.24
-56.07
-54.63
-52.04
-48.29
-43.82
-39.19
-35.04
-31.97
-30.48
-30.91
-33.46
-38.16
-44.07
-50.43
-56.65
-62.51
-68.07
-73.48
-78.85
-84.17
-89.34
-92.62
-92.63
-88.66
-80.92
-70.20
-57.36
-42.67
-25.43
-7.66
11.92
34.54
60.59
89.20
118.48
146.43
171.79
194.24
214.17
235.08
259.84
289.93
324.91
363.08
402.66
442.70
483.20
509.54
511.27
482.96
427.30
354.06
275.42
201.17
136.17
80.26
29.83
-16.98
-60.78
-100.24
-133.07
-157.72
-174.44
-185.38
-193.40
-200.49
-204.94
-204.09
-196.32
-182.85
-167.85
-156.47
-151.95
-153.72
-157.21
-155.01
-141.06
-113.93
-78.32
-43.21
-17.78
-7.57
-12.06
-25.33
-39.17
-47.19
-46.38
-37.92
-23.87
-5.93
14.21
34.23
50.87
60.08
58.49
45.59
24.47
0.26
-19.24
-28.41
-26.47
-15.23
1.43
18.37
30.72
34.69
28.80
14.38
-4.74
-23.09
-35.39
-39.21
-36.41
-31.95
-31.37
-37.27
-47.39
-55.75
-56.33
-47.12
-32.50
-21.74
-23.29
-40.34
-68.90
-99.85
-123.90
-135.56
-134.98
-124.42
-109.29
-94.10
-81.29
-70.97
-62.07
-53.76
-46.15
-40.07
-36.14
-34.10
-31.49
-25.76
-15.84
-3.74
6.11
9.71
6.66
1.58
1.83
14.82
42.21
79.26
116.99
147.19
166.69
178.33
188.62
196.21
199.65
196.36
185.07
166.47
143.37
119.71
99.04
83.25
71.80
66.32
63.77
61.66
58.22
52.63
44.37
33.23
19.50
3.82
-12.01
-27.17
-40.01
-49.40
-54.97
-56.96
-56.21
-54.22
-53.29
-55.34
-62.24
-74.42
-90.99
-110.07
-129.32
-146.78
-161.52
-173.83
-184.65
-195.19
-205.63
-214.75
-219.68
-216.64
-202.40
-175.91
-138.72
-94.10
-45.56
4.30
53.51
99.72
139.59
169.14
185.37
188.15
180.79
168.46
155.39
142.62
128.17
109.55
86.38
61.91
42.15
33.16
38.03
55.03
78.32
100.87
117.50
126.14
127.64
124.46
119.60
115.56
113.15
111.05
106.18
94.75
73.25
39.71
-5.41
-58.12
-109.02
-146.82
-164.32
-162.01
-146.05
-123.22
-97.63
-70.67
-42.35
-13.24
14.56
38.30
56.16
68.48
77.42
86.00
96.53
109.18
123.56
137.81
149.53
157.14
160.71
161.73
162.37
164.46
169.14
176.07
183.99
191.21
196.36
198.84
198.59
195.56
188.88
181.49
174.08
166.44
158.07
148.53
137.83
126.28
114.44
102.84
91.98
81.64
71.60
61.67
51.79
42.05
32.68
23.97
16.21
9.68
4.15
-0.54
-4.48
-7.71
-10.23
-12.02
-13.02
-13.19
-12.44
-11.04
-9.22
-7.22
-5.23
-3.45
-2.07
-1.16
-0.77
-0.86
-1.46
-2.51
-3.90
-5.46
-7.04
-8.46
-9.55
-10.16
-10.19
-9.60
-8.43
-6.78
-4.81
-2.70
-0.70
1.01
2.23
2.85
2.85
2.28
1.29
0.01
-1.40
-2.83
-4.21
-5.59
-7.02
-8.63
-10.54
-12.78
-15.32
-18.03
-20.72
-23.13
-25.04
-26.31
-26.90
-26.90
-26.53
-26.99
-27.62
-28.75
-30.56
-33.11
-36.24
-39.66
-42.97
-45.71
-48.33
-49.57
-49.33
-47.66
-44.85
-41.27
-37.37
-33.57
-30.24
-29.87
-30.24
-31.44
-33.46
-36.20
-39.52
-43.14
-46.79
-50.15
-58.99
-66.49
-72.61
-77.38
-80.88
-83.22
-84.48
-84.74
-84.09
-95.16
-105.45
-116.19
-128.12
-141.46
-156.12
-171.92
-188.51
-205.23
-240.66
-272.40
-299.57
-320.74
-334.37
-339.46
-336.10
-325.59
-310.05
-317.69
-324.95
-335.81
-352.37
-374.79
-402.23
-433.88
-469.22
-346.70
-270.65
-212.58
-173.24
-149.70
-135.43
-123.14
-107.53
-86.11
-58.86
-52.92
-52.74
-68.07
-100.95
-145.33
-192.36
-235.51
-272.29
-303.20
-349.97
-409.30
-493.88
-603.51
-724.88
-840.32
-936.67
-1007.91
-1053.84
-1089.97
-1127.95
-1186.70
-1270.09
-1367.03
-1462.28
-1546.14
-1615.46
-1669.52
-1583.80
-1286.87
-803.09
-237.30
295.28
725.65
1036.72
1243.05
1371.25
1445.53
1467.97
1437.61
1362.52
1262.58
1160.88
1074.10
1009.33
966.25
940.36
909.96
859.17
785.49
700.27
618.94
554.22
511.25
489.05
483.07
477.64
461.22
430.98
393.63
359.86
338.18
331.94
339.96
358.09
376.22
386.16
384.06
371.47
352.94
333.16
315.27
301.44
293.73
286.72
276.56
259.04
230.26
187.46
130.48
62.59
-9.08
-76.40
-127.25
-151.99
-149.52
-127.02
-94.98
-62.02
-33.15
-10.14
7.24
19.99
28.64
33.33
34.50
33.15
30.58
28.03
23.60
14.60
-1.49
-26.00
-57.69
-91.82
-121.04
-136.14
-132.96
-114.70
-89.72
-67.48
-54.84
-53.64
-60.91
-71.32
-80.13
-85.49
-87.98
-88.80
-88.82
-88.70
-88.92
-89.86
-91.65
-93.73
-95.41
-95.47
-92.95
-86.37
-75.34
-60.22
-41.64
-19.97
4.77
32.41
61.59
91.13
120.09
147.17
170.38
186.60
191.82
182.38
156.71
117.23
70.39
24.78
-12.27
-37.21
-51.23
-58.89
-65.15
-72.09
-77.64
-76.83
-64.73
-40.12
-6.86
27.41
55.35
71.49
74.85
68.57
57.43
45.42
34.00
22.48
9.97
-3.30
-15.44
-23.96
-27.38
-26.45
-23.62
-22.08
-24.55
-31.27
-40.60
-49.57
-55.61
-57.61
-56.76
-54.83
-53.98
-55.84
-59.58
-63.19
-63.96
-60.30
-52.37
-43.00
-34.25
-27.99
-25.38
-24.61
-22.86
-17.09
-6.22
8.53
22.86
34.89
44.44
53.04
66.91
87.85
118.75
159.94
209.13
260.80
313.47
367.03
405.07
413.57
384.40
320.12
231.62
146.90
68.92
-1.47
-62.72
-112.96
-149.68
-168.42
-165.46
-139.26
-91.74
-30.52
36.34
98.13
142.70
161.13
150.76
117.49
74.90
38.24
17.03
14.58
25.34
37.92
41.23
29.37
3.65
-29.48
-64.65
-101.40
-141.86
-189.48
-239.09
-281.47
-308.56
-317.87
-311.73
-296.51
-279.10
-264.33
-254.48
-249.24
-247.45
-247.45
-252.39
-258.51
-264.79
-271.27
-277.10
-279.03
-271.53
-249.85
-211.90
-157.97
-90.64
-16.08
60.96
134.31
199.58
255.85
304.74
340.68
359.97
363.42
354.67
340.32
325.36
309.58
290.08
264.43
233.08
201.10
181.90
178.11
189.48
212.54
237.98
254.39
252.33
227.78
183.67
127.80
68.05
6.75
-51.02
-104.27
-155.04
-206.42
-260.31
-315.51
-367.54
-409.39
-430.52
-408.19
-331.38
-211.65
-82.19
20.04
73.24
77.09
47.86
10.15
-13.32
-12.12
12.51
51.47
92.70
125.28
141.62
139.04
120.61
93.54
63.39
33.93
7.23
-14.93
-30.54
-37.52
-34.70
-22.66
-4.56
13.02
23.47
23.21
13.88
1.12
-8.59
-10.78
-4.43
7.96
21.29
30.85
34.34
32.61
28.60
25.28
24.16
24.66
24.62
21.27
12.79
-0.89
-18.22
-36.29
-52.92
-66.82
-77.74
-86.31
-93.79
-101.54
-110.36
-119.48
-126.06
-126.00
-115.34
-92.68
-60.47
-24.74
7.24
29.87
41.32
43.75
41.25
37.64
34.76
32.43
29.71
26.22
22.68
20.37
20.19
21.83
24.06
25.40
24.70
21.94
18.00
14.24
11.85
11.32
12.25
13.67
14.49
13.99
12.14
9.52
6.96
5.23
4.63
5.00
5.77
6.33
6.26
5.46
4.19
2.83
1.80
1.27
1.24
1.48
1.75
1.82
1.58
1.09
0.45
-0.15
-0.58
-0.74
-0.58
-0.19
0.27
0.61
0.63
0.24
-0.44
-1.17
-1.60
-1.47
-0.74
0.30
1.17
1.36
0.62
-0.88
-2.56
-3.65
-3.56
-2.21
-0.14
1.68
2.32
1.28
-1.16
-4.00
-6.00
-6.19
-4.55
-2.06
-0.36
-0.81
-4.14
-9.85
-16.49
-22.13
-24.92
-23.32
-16.20
-3.19
14.65
34.15
50.37
57.97
53.30
37.12
14.44
-7.47
-22.31
-27.42
-24.35
-17.25
-10.28
-5.43
-2.30
0.46
3.71
6.99
8.97
8.57
5.85
2.08
-1.08
-2.06
-0.50
2.80
6.33
8.61
8.85
7.26
4.83
2.89
2.50
3.91
6.63
9.65
11.96
12.98
12.75
11.82
11.02
11.10
12.40
14.80
17.80
20.69
23.08
24.84
26.11
27.32
28.86
30.84
32.94
34.40
33.93
30.59
23.94
14.25
2.69
-9.12
-19.53
-27.44
-32.60
-35.97
-38.95
-42.91
-48.55
-55.75
-63.75
-71.78
-79.45
-86.31
-93.72
-102.78
-114.17
-128.01
-144.03
-161.44
-178.17
-191.48
-195.79
-186.52
-161.58
-122.87
-76.12
-28.84
12.45
44.56
67.60
84.55
98.21
109.55
117.72
121.44
120.61
116.93
113.07
111.04
111.51
113.05
113.33
110.45
104.12
95.86
88.16
84.05
83.61
85.69
87.38
85.23
76.94
62.55
44.25
25.34
8.64
-4.58
-14.40
-21.65
-26.64
-28.89
-28.22
-26.24
-26.61
-33.04
-46.42
-63.14
-75.30
-76.07
-63.75
-43.03
-22.10
-7.73
-1.44
0.65
4.02
11.28
20.06
24.99
21.76
10.65
-3.22
-12.74
-12.93
-3.51
10.91
23.63
29.15
26.37
18.75
11.97
11.45
19.33
33.26
47.65
56.49
56.29
46.94
32.63
17.95
5.94
-2.87
-9.88
-16.75
-24.13
-31.21
-36.52
-38.64
-37.41
-33.91
-29.95
-27.26
-26.81
-28.52
-31.44
-34.33
-36.16
-36.83
-36.95
-37.53
-39.50
-43.04
-47.51
-51.67
-53.84
-52.51
-46.97
-37.20
-23.99
-8.77
7.06
21.98
35.38
47.19
58.18
68.20
76.97
83.73
87.31
86.61
81.10
71.33
58.75
45.39
33.31
24.36
19.81
20.17
24.91
32.07
38.34
39.90
33.78
19.65
0.83
-16.78
-27.13
-26.80
-17.10
-3.63
6.62
8.31
0.11
-15.01
-31.87
-45.59
-53.47
-55.71
-54.43
-51.81
-49.10
-46.26
-42.49
-36.75
-28.16
-15.88
0.41
20.12
41.77
62.75
79.70
89.24
89.32
77.81
58.34
37.72
23.00
19.13
26.76
41.35
54.29
56.29
41.28
9.45
-32.32
-75.14
-110.15
-132.10
-140.92
-140.76
-136.93
-130.46
-123.41
-115.38
-105.35
-93.03
-79.92
-68.00
-58.55
-51.17
-44.37
-36.93
-28.62
-21.27
-17.28
-18.26
-22.45
-25.31
-20.79
-4.63
22.99
57.16
88.70
109.16
114.38
105.91
89.20
70.76
55.08
43.42
34.88
27.74
21.26
15.56
11.38
9.13
8.75
9.67
10.98
12.29
13.53
15.55
18.75
23.55
29.30
35.53
41.11
44.65
45.12
41.97
35.51
26.72
17.11
8.24
1.68
-1.87
-1.68
3.14
12.89
26.74
41.99
54.34
59.08
52.93
35.79
11.27
-14.47
-35.22
-47.25
-50.84
-49.80
-49.16
-52.51
-60.55
-70.97
-80.06
-84.61
-82.83
-74.62
-61.07
-43.71
-24.50
-6.02
8.53
16.04
15.11
7.63
-0.92
-3.31
6.54
30.33
64.33
100.96
131.94
152.16
161.75
165.87
172.35
188.77
219.95
264.80
318.77
373.98
421.24
452.65
463.88
455.21
431.08
398.02
362.35
328.56
298.46
272.02
248.51
227.46
208.54
191.18
174.16
155.96
135.68
113.58
91.24
70.89
54.59
43.10
35.63
30.35
25.24
19.05
11.68
4.14
-1.88
-4.86
-4.20
-0.48
4.66
9.11
11.01
9.12
3.08
-6.58
-18.75
-32.11
-45.46
-57.78
-68.25
-76.15
-80.94
-82.28
-80.16
-74.81
-66.79
-57.00
-46.50
-36.36
-27.42
-20.18
-14.85
-11.40
-9.56
-9.00
-9.36
-10.33
-11.61
-13.01
-14.40
-15.70
-16.93
-18.14
-19.53
-21.42
-24.24
-28.41
-34.37
-42.32
-52.23
-63.79
-76.34
-89.00
-100.71
-110.46
-117.33
-120.66
-120.04
-115.39
-107.05
-95.67
-82.25
-68.07
-54.64
-43.55
-36.20
-33.70
-36.58
-44.68
-57.01
-71.89
-87.13
-100.32
-109.28
-112.35
-108.74
-98.53
-82.68
-62.65
-40.32
-17.54
3.99
22.91
38.25
49.48
56.56
59.83
59.95
57.73
53.98
49.46
44.73
40.23
36.26
33.12
31.03
30.20
30.80
33.00
36.84
42.42
49.84
59.24
70.83
84.68
100.69
118.57
137.66
156.81
174.41
188.45
196.77
197.43
189.19
171.65
145.58
112.80
75.72
37.11
-0.53
-35.40
-66.62
-94.30
-119.39
-143.17
-166.86
-191.06
-215.45
-238.92
-259.91
-276.83
-288.57
-294.97
-296.52
-294.28
-289.31
-282.36
-274.02
-264.85
-255.71
-247.81
-242.66
-241.65
-245.53
-254.08
-266.04
-279.64
-293.45
-306.95
-320.68
-335.86
-353.62
-374.50
-398.23
-424.32
-452.36
-481.50
-509.14
-530.50
-539.70
-532.21
-507.66
-470.37
-426.80
-381.65
-334.76
-281.44
-217.02
-142.66
-68.03
-8.71
20.82
14.32
-23.11
-77.71
-133.00
-175.78
-198.57
-198.47
-175.32
-131.14
-71.37
-5.97
52.23
91.94
108.81
108.17
102.65
105.89
126.08
162.57
207.32
250.09
283.37
304.67
316.35
323.01
328.85
336.54
346.92
359.02
370.20
376.40
373.12
357.12
327.64
286.63
238.08
186.64
136.34
90.12
50.16
18.01
-5.23
-19.62
-27.06
-31.41
-37.81
-51.08
-73.22
-102.04
-130.73
-149.38
-148.69
-123.24
-73.23
-3.81
77.48
163.27
247.26
323.38
384.86
424.13
434.99
415.57
369.99
307.55
239.46
174.54
116.61
64.51
14.43
-37.11
-91.13
-146.00
-198.97
-247.74
-291.84
-332.52
-371.90
-411.81
-452.91
-495.13
-538.18
-581.80
-624.98
-664.86
-696.36
-713.50
-712.16
-692.43
-659.12
-619.64
-580.31
-543.52
-507.43
-468.20
-423.10
-372.72
-320.55
-270.68
-225.24
-183.46
-142.66
-100.38
-56.18
-11.63
30.67
68.77
102.37
132.68
161.55
190.42
219.84
249.06
276.42
299.25
314.29
318.76
311.64
295.27
275.52
260.79
259.18
275.68
309.56
354.44
400.35
437.23
458.61
463.40
455.06
440.52
428.16
424.99
434.47
455.12
480.97
503.01
512.42
502.73
473.31
430.97
388.63
361.00
359.31
386.34
434.26
487.55
526.35
535.47
509.58
453.45
377.60
293.73
211.42
136.20
71.94
16.76
-29.12
-61.79
-76.30
-71.60
-52.62
-27.29
-6.65
1.51
-18.06
-73.75
-163.38
-274.68
-392.20
-502.00
-591.60
-658.23
-703.50
-753.11
-829.97
-942.68
-1080.21
-1221.52
-1345.78
-1436.09
-1493.75
-1526.48
-1570.72
-1653.51
-1780.07
-1931.55
-2081.74
-2210.95
-2307.12
-2379.03
-2281.28
-1935.48
-1364.36
-689.24
-39.52
514.51
924.82
1246.25
1510.32
1728.06
1876.06
1944.49
1935.43
1872.89
1766.18
1623.75
1461.74
1289.49
1135.73
979.20
803.32
609.12
415.21
248.99
130.97
73.24
73.07
119.90
181.81
231.60
255.54
255.80
251.91
260.00
288.50
328.70
371.85
406.20
416.06
398.98
361.37
316.69
276.33
248.20
227.64
211.09
194.54
179.21
169.33
148.19
110.08
59.67
39.30
55.95
107.99
176.94
250.95
318.99
371.73
406.67
424.80
429.47
420.37
401.41
378.40
352.27
316.20
261.45
184.69
88.29
-20.86
-137.80
-272.81
-411.45
-526.46
-597.03
-617.05
-591.90
-531.11
-444.05
-344.79
-246.12
-154.07
-70.25
-7.82
29.62
45.50
49.68
49.28
44.92
35.20
21.54
5.12
-13.55
-30.02
-37.61
-23.72
19.70
93.49
194.00
316.76
453.47
590.72
713.99
809.11
872.12
900.67
893.51
852.33
783.53
695.08
593.38
484.26
334.16
146.86
-45.77
-207.56
-322.32
-394.81
-438.56
-466.57
-486.50
-500.89
-503.08
-490.76
-468.26
-443.09
-421.83
-407.76
-401.50
-402.79
-410.15
-416.05
-415.05
-404.62
-383.59
-355.16
-319.19
-277.78
-236.42
-200.74
-171.07
-146.69
-126.04
-107.57
-90.04
-72.18
-52.31
-29.95
-4.99
23.32
53.07
80.62
100.72
108.36
91.02
47.46
-17.73
-96.28
-175.25
-250.71
-319.47
-378.94
-427.26
-463.04
-483.84
-489.29
-477.67
-450.67
-412.11
-365.67
-315.29
-264.78
-216.62
-170.35
-124.72
-78.31
-30.35
19.43
71.04
123.13
172.88
216.87
252.57
277.63
290.22
289.42
276.65
254.91
227.57
197.60
167.48
140.09
117.49
100.61
89.06
84.29
86.15
92.11
97.56
97.73
89.95
73.84
51.06
24.45
3.99
-2.55
7.61
31.58
64.10
100.97
139.59
178.61
217.16
264.76
327.65
405.15
489.55
571.65
645.87
711.04
768.69
821.46
884.61
967.56
1069.22
1178.01
1279.54
1363.92
1427.31
1470.31
1411.68
1212.56
890.44
512.97
152.87
-147.26
-376.83
-543.40
-660.05
-739.16
-777.31
-773.19
-733.97
-675.64
-615.83
-566.76
-533.54
-516.03
-511.30
-505.35
-488.12
-458.24
-423.13
-392.19
-371.17
-360.75
-358.36
-360.63
-357.91
-343.47
-316.22
-280.91
-244.78
-214.44
-195.21
-190.72
-201.99
-222.25
-242.14
-252.40
-247.76
-228.17
-198.04
-164.03
-132.30
-106.44
-85.21
-66.44
-48.51
-32.24
-19.84
-12.86
-10.97
-11.66
-11.79
-8.06
0.26
12.18
24.87
34.91
39.99
39.68
35.84
31.33
28.83
29.63
33.24
37.70
40.27
38.56
31.25
18.36
1.10
-17.71
-33.40
-40.45
-34.17
-13.38
18.78
54.58
83.88
98.47
95.00
76.09
47.85
17.25
-11.12
-36.20
-58.39
-77.35
-91.37
-97.63
-93.58
-78.54
-53.60
-21.59
14.26
49.82
81.28
104.72
116.00
111.45
89.83
54.25
11.79
-28.96
-60.70
-79.96
-87.58
-86.92
-81.37
-72.55
-59.86
-42.43
-20.81
2.84
25.45
44.88
60.91
74.20
85.30
94.12
99.78
101.79
101.53
101.47
103.62
109.49
117.40
123.82
125.71
122.21
114.71
105.08
93.26
76.41
50.43
13.01
-33.32
-81.45
-122.16
-148.11
-156.83
-151.15
-136.67
-118.85
-100.77
-82.68
-63.52
-42.84
-22.00
-3.74
9.33
16.03
17.13
14.54
10.75
7.69
6.12
5.64
4.95
3.00
-0.23
-3.61
-5.31
-3.36
3.97
17.47
37.10
61.67
89.54
119.08
148.70
176.90
202.25
223.47
239.52
249.95
254.35
253.22
247.66
239.24
229.41
219.06
208.22
195.70
183.72
172.78
163.00
154.22
146.13
138.42
130.76
122.85
114.50
105.79
96.32
85.88
74.58
62.70
50.64
38.89
28.03
18.56
11.02
5.26
1.09
-1.71
-3.45
-4.34
-4.68
-4.55
-4.05
-3.08
-1.84
-0.48
0.92
2.26
3.44
4.34
4.89
5.01
4.72
3.96
2.65
0.81
-1.55
-4.36
-7.54
-10.91
-14.28
-17.40
-20.14
-22.49
-24.46
-26.26
-28.09
-30.11
-32.44
-35.10
-38.06
-41.28
-44.81
-48.74
-53.27
-58.60
-64.81
-71.86
-79.57
-87.74
-96.13
-104.71
-113.59
-123.05
-133.43
-144.94
-157.56
-171.12
-185.34
-199.85
-214.51
-229.24
-244.14
-259.52
-276.02
-294.41
-315.22
-338.08
-361.31
-382.05
-396.98
-403.34
-399.70
-386.17
-363.94
-334.99
-301.62
-266.42
-232.20
-201.46
-175.68
-154.99
-138.14
-123.31
-109.14
-95.15
-81.62
-69.11
-57.84
-47.77
-39.04
-31.94
-27.01
-24.42
-23.48
-22.71
-20.50
-15.88
-9.14
-1.65
4.97
9.66
12.34
13.74
14.84
16.19
17.85
19.53
21.02
22.71
25.19
28.95
34.00
39.59
44.55
47.72
48.38
46.35
42.19
36.87
31.55
27.49
25.54
25.97
28.16
30.87
32.69
32.81
31.29
28.97
27.10
26.57
27.83
30.57
34.13
37.55
39.99
40.91
40.14
38.11
35.45
32.99
31.21
30.12
29.32
28.29
26.80
24.74
22.21
19.15
15.57
11.58
7.55
3.98
1.19
-0.98
-3.28
-6.54
-11.29
-17.20
-23.38
-28.80
-32.97
-36.17
-39.09
-42.49
-46.54
-50.89
-54.78
-57.41
-58.23
-57.06
-54.09
-49.69
-44.35
-38.52
-32.54
-26.46
-19.96
-12.35
-2.69
9.83
25.64
44.38
64.94
85.66
105.07
122.15
136.57
148.46
157.67
163.73
165.76
162.91
154.63
141.17
123.59
103.73
83.90
66.27
52.21
41.81
34.09
27.62
21.46
15.74
11.48
9.60
9.93
10.79
9.87
5.50
-2.21
-11.33
-19.30
-24.09
-25.18
-23.36
-20.09
-16.73
-14.26
-13.06
-13.01
-13.86
-15.17
-16.48
-17.45
-17.79
-17.33
-16.02
-13.99
-11.39
-8.63
-6.25
-4.81
-4.69
-5.97
-8.18
-10.55
-12.25
-12.52
-10.90
-7.36
-2.38
3.07
7.77
10.87
12.14
12.03
11.35
10.74
10.42
10.34
10.31
10.45
11.11
12.58
14.71
16.95
18.63
19.41
19.56
19.51
19.64
19.99
20.16
19.70
18.57
17.00
15.47
14.46
14.04
14.00
14.04
13.79
12.99
11.64
9.84
7.82
5.92
4.23
2.80
1.61
0.50
-0.61
-1.72
-2.83
-4.04
-5.38
-6.98
-8.85
-10.90
-13.06
-15.22
-17.40
-19.64
-22.01
-24.27
-25.90
-26.04
-23.96
-19.43
-12.98
-5.98
0.01
3.83
5.26
4.93
4.01
3.56
4.18
6.01
8.82
12.20
15.62
18.43
20.02
20.10
18.86
16.90
15.08
13.94
13.66
13.88
14.08
13.90
13.32
12.56
11.91
11.58
11.53
11.71
12.02
12.45
13.11
14.02
15.11
16.03
16.46
16.10
15.01
13.62
12.53
12.26
12.97
14.28
15.44
15.75
14.77
12.59
9.85
7.19
5.10
3.55
2.17
0.39
-2.20
-5.60
-9.41
-13.00
-15.86
-17.72
-18.64
-18.88
-18.83
-18.77
-18.86
-19.00
-18.85
-17.96
-15.87
-12.46
-8.19
-3.87
-0.40
1.74
2.74
3.30
4.13
5.66
7.68
9.65
11.15
12.19
13.16
14.45
16.15
17.87
18.97
18.92
17.52
15.16
12.40
9.71
7.24
4.87
2.26
-0.88
-4.65
-9.05
-13.88
-19.09
-24.87
-31.49
-39.15
-47.81
-56.91
-65.41
-71.99
-75.48
-75.36
-71.90
-66.03
-58.93
-51.63
-44.49
-37.45
-30.17
-22.40
-14.23
-5.76
3.25
13.50
25.81
40.41
56.17
70.70
81.26
85.91
84.47
78.63
71.30
65.49
63.53
66.50
74.14
85.21
97.46
107.97
113.73
112.54
103.83
88.99
71.06
54.00
41.62
36.51
39.42
48.84
61.30
72.16
76.64
71.18
54.27
27.31
-5.64
-38.67
-65.85
-83.24
-90.00
-88.42
-82.22
-74.55
-66.45
-57.24
-46.05
-33.71
-23.43
-19.17
-23.00
-33.30
-44.86
-51.59
-49.83
-40.61
-29.14
-22.15
-24.33
-36.03
-53.27
-69.98
-80.84
-83.31
-78.26
-68.54
-57.31
-46.34
-35.43
-23.19
-8.18
9.82
29.70
49.76
68.94
87.10
104.69
121.61
136.31
145.98
147.73
139.95
123.29
100.30
74.11
47.17
20.77
-4.24
-26.58
-43.94
-54.08
-56.13
-51.72
-44.47
-38.38
-35.88
-36.86
-39.22
-40.33
-38.60
-34.04
-28.06
-22.23
-17.62
-14.49
-12.62
-11.76
-11.72
-12.31
-13.20
-13.90
-13.85
-12.79
-10.80
-8.24
-5.69
-3.73
-2.84
-3.34
-5.21
-8.01
-11.01
-13.51
-15.06
-15.79
-16.22
-17.00
-18.68
-21.58
-25.87
-31.51
-38.18
-45.06
-50.94
-54.50
-54.90
-52.18
-47.50
-42.72
-39.56
-38.85
-40.22
-42.49
-44.22
-44.36
-42.52
-38.99
-34.48
-29.82
-25.57
-21.67
-17.37
-11.10
-0.70
16.08
41.01
74.36
114.36
157.17
197.70
230.60
251.58
258.25
250.44
230.15
200.79
166.39
130.65
96.49
65.83
39.69
18.52
2.26
-9.55
-17.74
-23.58
-28.47
-33.56
-39.38
-45.82
-52.43
-58.89
-65.19
-71.38
-77.09
-81.37
-82.94
-80.80
-74.97
-66.59
-57.45
-49.32
-43.30
-39.75
-38.47
-38.83
-39.82
-40.14
-38.32
-33.34
-25.19
-14.89
-4.29
4.72
11.06
14.48
15.58
15.13
13.78
11.75
9.12
6.11
3.00
0.39
-1.19
-1.47
-0.48
1.38
3.47
5.28
6.69
7.93
9.54
11.76
14.31
16.36
16.87
15.21
11.60
7.18
3.34
1.25
1.19
2.62
4.46
5.79
6.17
5.68
4.69
3.33
1.46
-1.29
-5.10
-9.56
-13.80
-16.90
-18.39
-18.60
-18.51
-19.27
-21.38
-24.65
-27.99
-30.01
-29.70
-26.78
-21.79
-15.83
-10.14
-5.52
-2.40
-0.56
0.47
1.15
1.83
2.77
4.12
5.97
8.36
11.21
14.22
16.99
19.06
20.22
20.61
20.58
20.57
20.84
21.33
21.68
21.56
20.67
19.15
17.39
15.81
14.80
14.63
15.33
16.73
18.68
20.80
22.79
24.15
24.52
23.66
21.65
18.72
15.19
11.37
7.49
3.72
0.05
-3.53
-7.02
-10.38
-13.48
-16.11
-18.12
-19.61
-20.85
-22.23
-24.08
-26.45
-29.24
-32.20
-35.01
-37.20
-38.44
-38.27
-36.33
-32.43
-26.83
-20.07
-12.81
-5.75
0.74
6.30
10.76
13.96
16.05
17.35
18.32
19.46
20.86
22.52
24.15
25.63
26.91
28.00
28.97
29.74
30.23
30.37
30.31
30.24
30.43
30.78
30.86
30.15
28.30
25.35
21.59
17.60
13.74
10.19
7.07
4.47
2.64
1.83
2.13
3.18
4.35
4.93
4.41
2.79
0.40
-2.26
-4.84
-7.10
-9.00
-10.56
-11.86
-13.06
-14.22
-15.45
-16.73
-18.05
-19.39
-20.79
-22.50
-24.83
-28.12
-32.35
-37.27
-42.12
-45.86
-47.52
-46.58
-43.20
-38.25
-32.93
-28.10
-24.12
-20.80
-17.66
-14.47
-11.41
-8.74
-6.61
-4.71
-2.49
0.43
4.00
7.87
11.57
14.85
17.94
21.00
24.05
26.76
28.67
29.48
29.44
28.97
28.52
28.31
28.13
27.71
26.96
26.01
25.10
24.38
23.67
22.74
21.50
20.15
19.04
18.50
18.47
18.58
18.42
17.64
16.31
14.73
13.13
11.55
9.94
8.09
5.91
3.51
0.94
-1.73
-4.52
-7.52
-10.83
-14.37
-17.98
-21.45
-24.38
-26.51
-27.88
-28.85
-29.98
-31.64
-33.68
-35.21
-35.18
-32.54
-27.10
-19.55
-11.12
-3.27
3.03
7.39
9.96
11.13
11.49
11.48
11.53
12.04
13.15
14.82
16.81
18.68
20.13
21.13
21.85
22.65
23.85
25.41
26.92
27.86
27.65
26.12
23.44
20.04
16.54
13.62
11.77
11.19
11.87
13.42
15.46
17.62
19.60
21.21
22.32
22.63
21.87
19.85
16.58
12.49
8.15
4.11
0.78
-1.80
-3.77
-5.33
-6.74
-8.24
-10.02
-12.12
-14.44
-16.70
-18.67
-20.26
-21.53
-22.66
-23.80
-25.07
-26.42
-27.80
-29.04
-30.15
-31.25
-32.51
-34.10
-36.15
-38.66
-41.54
-44.39
-46.55
-47.23
-45.81
-42.02
-36.27
-29.47
-22.81
-17.39
-13.71
-11.69
-10.66
-9.73
-8.16
-5.69
-2.43
1.26
4.96
8.42
11.52
14.12
16.13
17.41
17.79
17.27
16.12
14.67
13.24
12.00
10.87
9.76
8.56
7.29
6.15
5.53
5.70
6.71
8.37
10.22
11.80
12.77
13.03
12.80
12.40
12.09
11.91
11.63
11.02
9.98
8.70
7.39
6.40
5.80
5.40
4.98
4.20
2.89
1.06
-1.05
-3.10
-4.68
-5.51
-5.66
-5.49
-5.74
-7.24
-10.56
-15.73
-22.10
-28.50
-33.52
-36.04
-35.23
-31.17
-24.49
-16.51
-8.64
-2.11
2.41
5.01
6.25
7.18
8.51
10.66
13.47
16.40
18.68
19.78
19.51
18.03
15.81
13.39
11.21
9.71
9.08
9.31
10.29
11.74
13.32
14.70
15.60
15.79
15.24
14.03
12.37
10.65
9.20
8.14
7.34
6.52
5.34
3.74
1.83
-0.08
-1.83
-3.49
-5.35
-7.52
-10.06
-12.75
-15.14
-16.93
-18.03
-18.67
-19.42
-20.92
-23.65
-27.82
-33.19
-38.89
-43.72
-46.48
-46.33
-43.15
-37.62
-30.87
-24.12
-18.20
-13.35
-9.41
-6.05
-2.95
0.12
3.33
6.90
10.96
15.38
19.62
22.92
24.59
24.50
23.11
21.35
20.22
20.29
21.50
23.22
24.73
25.42
25.19
24.24
22.98
21.88
21.26
21.31
21.98
23.16
24.65
26.29
27.96
29.50
30.74
31.51
31.74
31.43
30.98
30.83
31.53
33.40
36.29
39.69
42.92
45.65
48.01
50.81
55.04
61.44
69.91
79.34
87.94
93.86
96.05
94.80
91.88
89.79
90.73
95.85
105.19
118.04
133.37
149.63
164.03
172.16
168.83
150.12
115.77
70.04
20.35
-26.14
-65.54
-98.71
-129.79
-163.33
-201.12
-241.76
-282.09
-319.24
-351.60
-378.43
-398.66
-410.42
-412.07
-403.76
-388.56
-371.59
-357.58
-348.00
-339.76
-326.45
-301.37
-261.15
-207.75
-147.63
-88.60
-36.41
7.44
45.45
81.48
117.81
153.14
182.68
200.47
202.30
187.31
157.67
117.72
72.46
27.16
-12.62
-41.06
-52.96
-45.61
-20.91
13.91
47.99
70.41
74.34
58.60
26.59
-17.15
-70.22
-133.13
-206.96
-289.98
-374.85
-448.70
-496.73
-507.38
-476.81
-410.17
-319.08
-216.71
-113.51
-15.52
74.63
155.12
223.02
274.32
305.92
317.87
314.22
301.33
284.71
266.42
244.49
214.98
175.48
127.93
79.39
40.08
19.67
23.36
49.15
87.91
126.34
151.57
155.50
137.02
100.69
53.37
0.91
-53.38
-107.58
-159.04
-203.14
-234.33
-248.71
-246.73
-233.50
-216.96
-204.71
-201.10
-206.46
-218.06
-232.20
-245.89
-257.64
-267.03
-273.64
-276.23
-272.17
-257.98
-230.40
-187.60
-130.05
-60.35
17.39
98.81
180.31
259.71
336.26
410.29
482.84
554.80
626.07
694.80
757.03
807.30
840.14
851.96
842.57
816.16
780.01
742.86
712.34
693.35
687.14
691.66
702.47
713.91
720.45
717.25
700.94
669.76
623.47
563.29
491.64
412.14
329.07
246.92
169.63
100.20
40.33
-9.68
-50.63
-84.22
-112.64
-138.35
-163.55
-189.93
-218.12
-247.55
-276.75
-303.73
-326.77
-344.97
-358.59
-368.82
-377.33
-385.74
-395.06
-406.08
-419.39
-435.93
-456.85
-483.14
-515.08
-552.10
-593.10
-636.26
-678.88
-716.58
-743.13
-751.24
-734.54
-690.19
-620.60
-533.51
-439.72
-350.03
-272.41
-210.87
-165.71
-135.09
-116.22
-105.97
-100.84
-96.52
-88.04
-70.55
-41.07
0.12
48.16
94.25
128.12
141.44
131.39
101.93
62.42
24.43
-2.31
-12.54
-5.83
14.81
45.15
81.34
120.45
159.86
196.89
228.83
253.71
271.21
282.99
291.78
299.30
304.58
303.30
289.09
256.63
204.47
136.63
62.01
-8.58
-65.73
-104.00
-122.58
-124.15
-113.40
-95.55
-75.42
-57.05
-43.38
-35.90
-34.46
-37.49
-42.55
-47.00
-49.05
-48.04
-44.56
-40.04
-35.98
-33.26
-32.04
-31.82
-31.68
-30.73
-28.20
-23.47
-16.48
-7.72
1.70
10.19
16.11
18.32
16.58
11.71
5.43
-0.25
-3.56
-3.44
0.16
6.37
13.84
21.17
27.39
32.40
36.87
42.12
49.51
59.93
73.63
90.04
108.04
126.31
144.12
161.48
179.43
199.53
223.07
250.43
280.56
311.31
340.07
364.44
382.45
392.15
391.35
377.60
349.06
305.51
249.42
185.68
120.64
60.38
9.19
-30.98
-60.34
-80.54
-93.98
-103.25
-111.13
-120.65
-134.59
-155.45
-184.46
-220.69
-260.00
-295.14
-317.35
-319.57
-299.84
-262.68
-218.05
-177.15
-148.00
-132.40
-126.67
-125.01
-123.83
-123.45
-126.92
-136.81
-152.24
-168.60
-179.49
-179.51
-166.04
-139.52
-102.42
-58.31
-11.68
32.14
67.11
87.39
89.45
73.65
44.54
9.76
-22.16
-44.45
-53.38
-48.91
-34.49
-15.58
2.08
14.31
19.47
18.71
14.71
10.42
7.88
7.69
9.20
11.19
12.36
11.58
8.25
2.10
-6.57
-16.87
-27.67
-37.68
-45.78
-51.06
-52.80
-50.50
-44.31
-35.06
-24.40
-14.70
-8.08
-5.72
-7.46
-11.78
-16.52
-19.90
-20.90
-19.36
-15.82
-10.91
-5.00
1.67
8.86
16.06
22.43
26.99
29.04
28.44
25.70
21.80
17.94
15.15
14.11
15.10
17.86
21.65
25.03
26.24
23.55
16.19
5.01
-7.62
-18.43
-24.33
-23.48
-15.82
-2.70
13.66
30.90
47.19
61.08
71.28
76.55
75.79
68.35
54.83
37.18
18.56
2.63
-7.54
-10.53
-7.18
-0.30
6.28
9.14
6.35
-1.98
-14.01
-27.10
-38.58
-46.63
-50.49
-50.41
-47.34
-42.52
-36.90
-30.80
-24.18
-16.74
-8.46
-0.03
7.42
12.66
15.04
14.94
13.57
12.30
11.89
12.38
13.31
14.41
15.87
18.17
21.60
25.80
29.68
31.88
31.52
28.70
24.57
20.62
18.04
17.22
17.54
18.02
17.68
15.96
12.90
8.96
4.74
0.66
-3.05
-6.49
-9.58
-12.18
-14.02
-14.93
-15.03
-14.75
-14.61
-15.01
-16.25
-18.18
-20.56
-23.17
-25.86
-28.50
-30.75
-32.11
-32.03
-30.33
-27.29
-23.74
-20.64
-18.75
-18.28
-18.81
-19.70
-20.24
-20.02
-18.99
-17.27
-14.97
-11.98
-8.17
-3.43
1.94
7.29
11.92
15.34
17.60
19.29
21.27
24.08
27.68
31.29
33.94
34.85
33.93
31.74
29.03
26.41
23.90
21.07
17.51
13.11
8.28
3.61
-0.34
-3.43
-5.90
-8.16
-10.59
-13.34
-16.34
-19.35
-22.12
-24.41
-26.04
-27.04
-27.53
-27.81
-28.14
-28.82
-29.86
-31.36
-33.39
-36.06
-39.18
-42.09
-43.74
-42.90
-38.85
-31.78
-23.08
-15.00
-9.92
-9.33
-13.42
-20.91
-29.63
-37.33
-42.43
-44.40
-43.65
-41.10
-37.58
-33.55
-28.98
-23.63
-17.35
-10.41
-3.47
2.44
6.17
6.75
3.80
-2.01
-8.85
-14.00
-14.67
-9.00
3.04
19.52
37.42
53.68
66.32
74.89
80.04
82.94
84.74
86.52
88.99
92.48
96.55
99.76
100.15
96.26
88.26
77.98
67.75
58.61
49.26
36.74
18.68
-4.26
-27.45
-43.95
-47.76
-36.87
-14.54
12.16
35.48
49.86
53.38
47.70
37.09
26.81
21.71
25.14
37.99
58.17
80.75
99.45
108.58
105.19
90.03
66.99
41.25
17.36
-2.03
-16.34
-26.31
-33.20
-38.38
-43.33
-49.11
-55.70
-60.43
-58.31
-43.71
-13.39
30.40
79.09
120.80
145.98
152.69
148.77
148.48
165.24
204.56
260.69
319.14
363.63
383.49
377.38
351.80
315.97
276.57
235.27
189.75
137.64
79.47
18.95
-39.35
-92.89
-142.66
-192.15
-244.63
-301.02
-358.75
-412.96
-458.94
-494.06
-518.18
-532.99
-540.11
-539.87
-531.61
-515.39
-494.06
-474.35
-465.13
-473.14
-498.81
-534.69
-567.46
-583.18
-573.01
-536.27
-479.49
-412.22
-342.37
-273.19
-203.45
-130.44
-53.03
26.68
104.08
174.55
235.59
287.08
330.21
365.19
390.09
401.75
398.65
383.51
363.44
347.30
341.48
346.52
357.22
365.63
365.12
352.83
329.68
298.53
262.42
224.32
187.71
157.00
136.44
127.99
129.71
136.06
140.23
136.65
122.55
97.66
63.33
22.18
-21.60
-61.90
-91.70
-105.63
-102.71
-87.11
-66.39
-47.41
-33.23
-22.69
-12.59
-0.98
10.93
19.56
21.65
16.13
4.08
-12.73
-33.29
-56.75
-80.66
-99.99
-108.25
-100.87
-78.73
-48.92
-21.94
-6.62
-5.77
-15.31
-27.35
-34.71
-34.63
-29.26
-23.26
-20.45
-21.57
-24.35
-25.45
-22.80
-16.83
-10.25
-6.41
-7.39
-12.92
-20.62
-27.28
-30.31
-28.93
-24.07
-17.85
-12.38
-8.83
-7.35
-7.20
-7.32
-6.83
-5.42
-3.67
-2.65
-3.46
-6.29
-9.76
-11.24
-8.16
0.14
11.36
20.99
25.02
22.28
15.32
8.38
4.11
1.37
-3.98
-15.63
-33.43
-52.21
-64.71
-66.01
-56.80
-42.94
-31.70
-27.34
-28.94
-31.96
-32.04
-28.36
-24.18
-24.29
-31.76
-45.30
-59.64
-68.49
-67.63
-56.78
-39.52
-21.21
-6.11
4.32
11.93
20.12
31.67
47.06
65.21
85.25
108.46
138.36
178.11
227.56
281.10
328.50
359.22
367.35
355.11
332.50
313.34
309.32
325.41
358.49
399.36
436.74
460.81
466.05
451.49
419.83
375.10
321.18
260.15
191.85
115.23
30.53
-58.88
-145.78
-220.92
-276.90
-311.67
-329.85
-340.76
-353.50
-372.52
-396.40
-419.89
-438.05
-449.08
-454.26
-455.01
-449.92
-433.46
-398.46
-341.00
-263.87
-176.48
-91.48
-20.04
32.31
66.27
87.07
101.17
113.94
128.40
144.84
161.23
174.16
179.79
175.47
160.52
136.67
107.07
75.51
45.15
17.97
-4.63
-21.42
-31.26
-33.83
-30.33
-23.79
-18.14
-17.03
-22.61
-34.65
-50.66
-66.57
-77.92
-81.55
-76.74
-65.79
-53.27
-44.04
-40.86
-43.41
-48.36
-51.48
-49.72
-42.59
-32.02
-21.07
-12.51
-7.65
-6.57
-8.32
-11.81
-15.89
-19.52
-21.99
-22.74
-21.78
-19.36
-15.98
-12.01
-7.73
-3.46
0.26
2.48
2.35
-0.68
-6.23
-12.98
-18.99
-22.39
-22.07
-17.95
-11.06
-2.91
4.67
10.34
13.41
14.03
13.21
12.21
12.39
14.33
17.84
21.84
24.98
26.32
25.50
22.92
19.30
15.26
10.91
6.13
0.84
-4.80
-10.15
-14.56
-17.41
-18.56
-18.26
-17.02
-15.38
-13.71
-12.37
-11.51
-11.44
-12.38
-14.62
-18.18
-22.62
-27.09
-30.56
-32.25
-31.91
-30.16
-28.13
-26.99
-27.50
-29.62
-32.82
-36.55
-40.40
-44.15
-47.53
-49.88
-50.14
-47.48
-41.75
-33.78
-25.23
-17.63
-11.82
-7.61
-4.05
-0.07
4.83
10.46
16.19
21.31
25.38
28.16
29.56
29.68
28.78
27.42
26.31
26.03
26.67
27.77
28.58
28.51
27.66
26.60
26.03
26.17
26.51
26.07
23.93
19.78
14.09
8.03
2.80
-0.66
-1.93
-1.10
1.33
4.54
7.66
9.83
10.40
8.95
5.46
0.28
-5.95
-12.35
-18.16
-22.76
-25.80
-27.29
-27.57
-27.09
-26.26
-25.37
-24.53
-23.84
-23.48
-23.61
-24.29
-25.34
-26.38
-27.06
-27.22
-27.08
-27.07
-27.59
-28.54
-29.43
-29.46
-27.97
-24.83
-20.39
-15.35
-10.40
-5.99
-2.21
1.09
4.41
8.36
13.52
20.09
27.65
35.14
41.20
44.65
45.06
42.88
39.23
35.48
32.80
31.95
33.12
36.17
40.43
45.06
49.00
51.33
51.50
49.48
45.83
41.49
37.66
35.28
34.92
36.52
39.53
43.09
46.30
48.58
49.88
50.52
51.08
52.15
54.17
57.36
61.83
67.35
73.60
80.16
86.64
92.90
99.26
106.32
114.58
124.42
135.75
148.19
161.35
174.91
188.73
202.85
217.26
231.51
244.70
255.25
261.04
259.70
249.16
228.29
197.40
158.33
114.21
68.77
25.66
-11.95
-41.50
-61.19
-70.12
-68.61
-58.60
-43.45
-27.51
-14.98
-8.67
-9.20
-14.97
-23.15
-30.73
-35.80
-38.18
-39.03
-40.23
-43.54
-50.12
-60.41
-73.83
-88.46
-101.17
-108.60
-108.60
-101.74
-92.04
-85.86
-89.31
-105.23
-131.72
-163.00
-192.31
-215.41
-232.32
-246.69
-262.98
-283.33
-306.48
-328.89
-347.53
-362.12
-375.48
-392.06
-415.50
-446.77
-484.00
-523.02
-558.63
-585.36
-597.87
-591.87
-565.42
-519.88
-460.11
-393.51
-327.80
-269.06
-220.94
-184.76
-160.57
-147.55
-144.02
-147.18
-152.93
-157.06
-156.28
-149.73
-138.71
-125.69
-112.76
-100.17
-86.20
-67.87
-42.65
-9.92
28.29
68.34
106.12
139.00
166.84
191.79
217.15
246.10
280.77
321.66
367.65
415.05
457.65
487.84
498.67
486.78
454.85
411.90
370.11
339.44
323.02
316.35
310.94
299.47
279.65
254.02
226.62
198.88
167.86
128.14
75.79
11.94
-56.64
-119.53
-166.19
-189.11
-185.50
-157.12
-109.41
-50.17
12.43
71.70
123.84
168.38
207.04
242.10
275.31
307.58
339.31
370.74
401.62
430.22
452.80
464.24
459.86
437.25
397.50
344.84
285.60
226.70
174.27
132.54
102.93
83.77
70.54
57.30
38.60
11.70
-22.23
-58.69
-91.94
-117.91
-135.90
-148.07
-157.78
-167.89
-179.68
-193.15
-208.36
-225.92
-246.35
-268.29
-287.88
-299.81
-300.36
-290.26
-274.36
-258.68
-246.03
-233.92
-216.24
-188.77
-154.28
-123.35
-109.41
-120.44
-153.48
-195.25
-228.84
-241.93
-231.60
-203.69
-168.00
-133.34
-105.23
-86.86
-80.56
-88.12
-109.31
-139.57
-169.96
-190.09
-192.45
-175.64
-144.90
-109.67
-79.27
-60.25
-54.92
-61.19
-73.72
-85.72
-90.81
-85.15
-68.38
-43.13
-13.27
18.10
49.61
80.78
110.10
134.33
149.90
155.78
155.27
154.90
160.66
173.90
189.99
201.26
202.12
193.06
180.83
173.78
176.74
187.98
200.63
206.67
201.26
184.72
161.21
136.37
114.20
95.79
79.64
63.19
44.61
23.82
3.01
-14.51
-25.70
-29.28
-26.15
-18.89
-10.73
-4.17
-0.48
0.31
-1.08
-3.54
-5.77
-6.47
-4.66
-0.17
6.44
13.87
20.64
25.53
27.65
26.71
22.83
16.86
10.40
5.73
4.99
9.35
18.44
30.38
42.54
52.28
57.96
59.05
56.24
50.72
43.70
36.10
28.40
20.84
13.53
6.87
1.39
-2.27
-3.83
-3.84
-3.62
-4.72
-8.15
-13.85
-20.80
-27.76
-33.94
-39.14
-43.28
-45.98
-46.14
-42.68
-35.16
-24.60
-13.42
-4.25
1.11
2.64
2.07
1.69
3.20
6.91
11.80
16.23
18.81
18.89
16.57
12.48
7.47
2.55
-1.27
-3.01
-2.10
1.42
6.71
12.38
16.75
18.57
17.48
14.00
9.37
4.95
1.89
0.59
0.88
2.00
3.08
3.40
2.37
-0.34
-5.00
-11.70
-20.21
-29.68
-38.79
-45.95
-50.00
-50.74
-48.84
-45.52
-41.81
-37.98
-33.50
-27.55
-19.59
-9.77
0.87
11.04
19.46
25.27
28.27
28.87
27.79
25.89
23.95
22.24
20.76
19.27
17.50
15.56
13.85
12.90
13.15
14.62
16.68
18.43
18.92
17.70
15.07
11.99
9.55
8.49
8.80
9.57
9.64
8.13
5.05
1.40
-1.35
-2.27
-1.41
0.12
0.77
-0.44
-3.53
-7.66
-11.64
-14.52
-16.19
-17.04
-17.81
-19.35
-22.31
-27.24
-34.34
-43.20
-52.45
-60.03
-63.64
-61.67
-54.01
-42.19
-28.96
-17.34
-9.45
-5.86
-5.57
-6.56
-6.63
-4.48
0.00
5.67
10.75
13.76
14.09
12.17
9.13
6.22
4.13
3.11
2.93
3.32
4.20
5.57
7.34
9.19
10.74
11.61
11.89
12.04
12.79
14.64
17.62
21.02
23.97
25.59
25.50
24.05
22.11
20.79
20.92
22.79
25.87
29.31
31.98
33.15
32.56
30.45
27.29
23.63
19.92
16.59
14.14
12.92
13.12
14.31
15.57
15.66
13.72
9.81
5.18
1.89
1.93
6.43
15.15
26.57
38.65
49.53
58.15
64.32
68.55
71.85
75.32
80.14
86.95
95.84
106.04
116.32
125.37
132.43
137.54
141.35
144.50
146.95
147.74
144.84
135.82
118.29
90.86
53.91
9.64
-38.41
-86.30
-130.91
-171.20
-207.70
-241.66
-273.65
-302.67
-326.57
-342.66
-348.72
-344.21
-330.75
-312.07
-293.71
-282.17
-283.21
-299.43
-328.11
-361.13
-387.37
-396.86
-384.79
-353.33
-310.47
-266.38
-229.40
-203.50
-188.51
-181.97
-180.88
-182.66
-185.43
-186.99
-184.39
-174.25
-153.70
-121.50
-78.43
-27.12
28.67
85.24
140.16
192.81
244.11
295.49
348.02
401.97
456.96
512.09
566.39
618.62
666.39
705.24
729.09
732.19
711.42
667.95
606.93
535.83
462.34
392.57
329.85
275.44
229.91
193.96
168.61
154.18
149.96
154.40
166.09
182.84
202.48
222.73
241.10
254.58
258.85
250.23
226.97
190.72
143.35
87.84
27.55
-33.60
-92.11
-146.93
-196.26
-236.56
-261.13
-267.46
-256.07
-230.71
-196.72
-160.86
-133.43
-122.20
-129.91
-151.72
-186.37
-233.16
-290.54
-353.98
-417.30
-479.81
-541.78
-602.28
-654.62
-697.68
-730.39
-751.16
-757.74
-720.28
-631.19
-511.57
-423.75
-378.89
-370.84
-380.99
-398.26
-415.39
-428.92
-442.61
-459.33
-477.65
-488.17
-487.76
-476.48
-456.44
-428.97
-394.23
-354.64
-310.64
-259.75
-195.02
-116.32
-27.66
64.22
153.08
234.05
301.69
353.10
388.71
413.57
430.43
441.76
450.22
459.84
475.07
498.24
529.71
567.49
608.47
646.67
676.22
693.65
699.22
696.23
688.99
681.78
678.18
680.79
689.47
701.05
709.25
705.65
682.55
637.03
573.62
503.89
441.90
397.75
372.92
359.91
346.40
321.89
282.62
232.32
178.78
129.05
86.06
48.79
14.70
-17.98
-49.31
-78.43
-105.54
-132.90
-164.61
-204.99
-256.84
-319.75
-389.86
-460.53
-523.72
-572.06
-600.66
-608.05
-596.07
-568.68
-530.50
-485.73
-437.44
-387.60
-337.71
-289.95
-247.45
-213.75
-191.00
-177.85
-168.96
-156.46
-133.68
-98.99
-57.44
-18.60
8.07
18.52
16.35
10.83
11.81
24.42
46.52
70.55
87.90
93.13
86.00
70.74
53.70
40.47
34.22
35.11
41.27
49.85
57.82
62.43
61.61
54.41
41.73
26.99
15.66
14.10
27.03
55.37
95.03
137.41
171.66
187.85
180.07
148.31
98.45
40.17
-15.74
-60.43
-88.91
-101.10
-101.14
-96.12
-94.34
-102.86
-124.99
-158.16
-194.11
-221.08
-228.48
-211.50
-173.97
-127.43
-86.24
-61.02
-53.83
-57.70
-60.25
-49.66
-19.58
28.80
87.88
146.98
195.76
226.95
237.69
230.18
210.73
187.66
168.33
156.07
149.08
140.95
123.85
92.60
47.47
-5.92
-58.96
-103.19
-133.37
-148.10
-149.56
-142.49
-132.50
-124.53
-121.78
-124.67
-130.60
-135.19
-133.88
-123.70
-104.32
-77.60
-46.56
-14.59
15.31
40.64
59.39
70.44
74.09
72.36
68.72
67.07
70.24
79.05
91.91
105.43
115.61
119.14
114.14
100.34
78.74
51.23
20.46
-10.44
-38.04
-59.03
-70.91
-72.66
-64.85
-49.21
-27.87
-2.74
24.18
50.40
72.89
88.85
96.94
97.97
94.32
87.56
76.79
58.73
30.09
-8.81
-51.78
-87.40
-103.24
-91.13
-51.07
8.89
76.05
137.67
184.48
211.86
218.80
206.24
176.36
132.52
79.53
23.49
-29.57
-75.45
-112.85
-142.98
-168.01
-188.78
-203.42
-207.87
-198.29
-173.99
-139.04
-101.99
-72.86
-58.95
-62.18
-79.13
-103.84
-131.43
-160.16
-190.86
-224.32
-258.47
-287.54
-304.21
-303.48
-285.37
-254.90
-219.68
-186.09
-156.55
-129.49
-101.09
-67.76
-27.90
17.80
66.55
113.96
154.70
183.91
198.32
197.67
184.99
165.17
142.51
118.80
93.83
67.62
43.07
26.03
22.98
37.38
67.00
104.33
139.54
164.11
173.70
168.61
152.50
131.14
110.68
96.40
91.60
96.70
109.10
124.54
139.28
152.00
164.12
177.81
193.55
208.78
218.46
217.30
202.29
173.86
135.52
91.96
47.13
3.09
-39.74
-81.16
-120.00
-153.67
-180.02
-198.71
-212.16
-224.49
-238.57
-254.20
-267.50
-272.96
-266.22
-246.91
-219.20
-190.21
-167.18
-154.43
-152.38
-158.16
-167.06
-174.15
-174.92
-166.18
-145.76
-113.10
-69.85
-20.90
25.65
59.88
73.04
61.92
31.05
-7.80
-40.42
-56.26
-53.67
-40.12
-27.82
-27.30
-41.51
-64.58
-84.42
-89.29
-73.11
-38.57
4.09
41.60
62.62
61.95
41.95
10.98
-20.37
-43.47
-54.24
-54.09
-47.56
-39.10
-30.12
-18.41
0.09
28.18
64.73
104.07
138.15
160.21
167.85
164.22
156.43
152.03
155.76
167.93
185.14
202.56
216.71
226.40
232.40
235.69
235.89
231.26
220.19
203.49
185.29
171.98
168.99
178.24
197.00
218.80
236.40
244.62
242.01
230.42
213.38
193.77
172.72
149.43
121.69
87.29
44.94
-4.77
-59.04
-113.22
-161.98
-201.36
-230.23
-250.89
-268.24
-287.97
-314.19
-347.40
-383.47
-414.39
-430.72
-424.82
-393.53
-339.23
-269.49
-195.43
-129.45
-82.37
-60.34
-62.81
-81.87
-105.13
-120.27
-120.55
-107.75
-90.61
-79.41
-79.15
-86.37
-90.75
-81.80
-55.19
-15.12
28.57
66.59
95.40
118.76
144.13
177.40
218.32
260.03
292.49
307.69
303.64
284.78
259.08
233.53
210.55
187.14
157.06
115.04
59.87
-4.29
-70.07
-129.92
-178.44
-212.86
-231.56
-232.78
-214.26
-174.78
-115.97
-43.50
34.14
108.19
172.40
224.14
263.32
290.40
305.22
307.52
298.29
281.00
261.07
243.35
230.02
219.54
208.24
193.36
175.30
157.27
142.83
133.13
125.30
114.29
95.59
67.84
33.43
-3.24
-38.31
-69.15
-93.36
-107.50
-107.32
-90.12
-57.68
-17.16
21.04
47.70
58.94
57.06
47.92
36.67
24.21
7.24
-18.54
-55.08
-100.13
-148.29
-194.08
-233.77
-265.91
-290.68
-309.10
-322.43
-332.88
-343.12
-355.97
-373.16
-394.23
-416.04
-433.25
-439.87
-430.90
-403.66
-358.54
-298.97
-230.43
-159.11
-90.57
-28.46
25.45
70.76
108.06
138.47
163.42
184.33
202.14
216.70
226.81
230.77
227.60
218.41
206.70
197.03
192.48
192.70
193.90
191.47
183.27
171.63
162.55
162.04
172.72
192.42
215.93
238.21
256.86
271.69
282.45
287.74
285.48
275.97
263.85
256.85
261.28
277.47
298.05
310.79
305.11
277.25
231.88
179.06
129.10
88.28
58.03
37.00
23.67
17.87
20.15
30.36
46.33
64.00
78.64
86.62
86.67
80.04
69.76
58.86
49.11
40.46
31.12
18.73
1.59
-20.47
-46.18
-73.05
-98.85
-122.32
-143.60
-163.77
-184.30
-206.32
-230.47
-257.08
-286.10
-316.90
-347.62
-375.17
-396.06
-407.71
-409.93
-405.03
-396.60
-387.29
-377.66
-366.53
-352.48
-335.92
-319.76
-308.62
-306.87
-316.66
-337.28
-366.59
-402.20
-441.71
-482.04
-518.02
-542.38
-547.46
-528.47
-485.88
-426.30
-360.66
-300.41
-253.92
-224.60
-211.01
-208.35
-210.64
-212.07
-207.65
-193.83
-168.96
-134.16
-93.15
-51.26
-13.83
15.68
36.62
50.89
61.43
70.70
79.61
87.76
94.18
98.06
99.28
98.36
96.16
93.65
91.85
91.93
95.26
103.28
116.84
135.91
159.67
186.74
215.74
245.79
276.52
307.92
340.35
374.04
408.96
444.64
480.03
513.61
543.40
567.18
582.68
588.36
583.47
568.41
544.51
513.62
477.52
437.10
392.05
340.94
282.19
215.26
141.69
65.56
-7.06
-69.86
-118.07
-149.94
-167.29
-174.55
-177.39
-181.26
-190.40
-206.99
-230.48
-256.81
-278.74
-287.76
-277.72
-248.77
-208.96
-171.70
-149.79
-149.29
-166.48
-189.95
-206.62
-207.86
-193.02
-168.69
-144.92
-130.90
-131.47
-145.77
-167.93
-189.16
-200.46
-195.66
-173.33
-136.55
-91.07
-42.23
7.48
58.46
111.77
166.72
219.38
263.41
292.51
302.93
295.26
274.71
249.25
226.89
213.41
210.80
217.93
232.16
250.63
271.25
292.47
312.69
330.03
342.41
347.91
344.77
331.47
306.70
270.91
227.67
184.18
149.31
130.14
128.02
137.10
146.71
146.18
129.87
98.96
59.82
19.72
-16.82
-49.32
-79.78
-109.78
-138.58
-163.15
-180.54
-190.13
-194.54
-198.48
-206.48
-220.86
-241.34
-266.07
-293.07
-320.67
-347.00
-369.09
-383.57
-388.82
-386.63
-381.90
-380.12
-383.41
-388.59
-389.17
-380.30
-363.47
-347.28
-342.83
-356.07
-382.79
-409.51
-420.17
-405.00
-365.32
-311.86
-257.98
-212.58
-176.92
-146.73
-117.37
-87.84
-61.04
-40.81
-28.67
-22.10
-16.16
-6.53
8.66
28.71
51.69
76.04
100.94
125.36
147.70
165.88
178.28
185.07
188.43
191.52
197.34
208.13
225.16
248.82
278.28
310.65
341.07
363.97
375.28
374.77
366.28
356.17
350.38
351.53
357.93
365.17
368.44
365.26
356.29
344.09
331.22
319.04
307.65
296.92
287.53
280.53
276.29
273.46
268.65
258.11
239.94
215.63
189.66
167.69
153.57
147.73
147.50
148.36
146.27
138.80
125.51
107.55
87.24
67.54
51.84
43.49
44.66
55.47
73.38
93.73
111.31
122.22
124.79
119.75
109.40
95.91
80.43
62.88
42.68
20.11
-3.25
-24.97
-42.64
-55.01
-62.35
-65.73
-66.33
-64.90
-61.48
-56.10
-49.26
-41.69
-34.30
-27.85
-22.64
-18.64
-16.18
-15.77
-18.31
-24.92
-36.28
-52.29
-71.81
-92.88
-113.07
-130.36
-143.57
-152.20
-156.44
-156.65
-153.50
-148.08
-142.11
-138.18
-139.59
-149.93
-172.51
-209.76
-262.96
-332.10
-415.29
-507.58
-600.74
-684.01
-746.85
-782.07
-788.35
-769.92
-734.53
-689.92
-641.03
-589.54
-535.04
-477.62
-419.06
-363.08
-313.60
-273.44
-243.65
-223.88
-213.28
-210.90
-215.89
-227.01
-242.24
-258.58
-272.31
-279.79
-278.35
-267.23
-247.59
-222.01
-193.66
-165.33
-138.99
-115.37
-94.24
-74.73
-56.14
-38.11
-20.69
-4.40
10.33
22.91
33.11
40.80
46.01
48.68
48.76
46.26
41.36
34.54
26.37
17.62
9.05
1.45
-4.56
-8.54
-10.32
-9.96
-7.56
-3.30
2.55
9.63
17.58
26.16
35.05
43.87
52.03
59.02
64.22
67.21
67.85
66.52
64.02
61.38
59.70
59.82
62.30
67.20
74.47
83.84
95.25
108.70
124.11
141.02
158.46
174.81
188.15
196.87
200.16
198.36
193.02
186.31
180.31
176.22
174.11
173.22
172.63
172.06
172.17
174.47
180.75
192.34
209.77
232.82
260.61
291.67
323.69
353.18
376.05
388.81
390.21
382.45
370.96
362.34
361.37
368.58
380.13
389.51
390.33
378.72
354.17
318.86
276.21
229.60
181.55
133.87
88.28
47.32
14.34
-7.26
-15.92
-14.32
-9.34
-9.93
-22.48
-46.58
-74.30
-94.21
-98.25
-87.17
-70.83
-62.24
-70.00
-93.73
-125.16
-153.94
-173.96
-185.55
-192.42
-196.87
-196.42
-184.54
-154.98
-106.15
-43.07
24.21
84.35
128.74
153.76
161.18
156.70
147.56
140.08
137.36
138.34
138.98
135.00
124.65
110.15
96.33
87.16
82.78
78.43
67.20
44.76
12.93
-20.27
-44.36
-52.07
-43.13
-23.82
-2.59
15.16
29.72
45.30
65.49
89.44
111.43
124.46
125.07
116.24
106.08
102.99
110.47
124.66
136.30
135.61
117.27
82.88
39.32
-5.18
-45.54
-81.24
-115.09
-150.11
-186.78
-222.15
-251.86
-273.20
-286.33
-294.08
-298.97
-301.06
-297.80
-285.81
-263.75
-234.37
-203.64
-177.57
-158.81
-144.82
-129.61
-107.89
-78.69
-46.29
-17.73
1.40
9.90
10.93
9.43
8.77
9.20
9.35
8.60
9.25
15.74
31.94
57.98
89.59
119.84
141.72
151.13
147.17
131.77
108.69
82.40
57.34
37.19
24.22
18.96
20.27
26.13
34.72
45.37
58.69
76.29
99.81
129.99
165.94
204.20
238.66
261.45
265.13
245.93
205.69
151.61
93.80
41.09
-2.29
-37.71
-69.96
-103.20
-137.50
-168.19
-188.79
-195.42
-189.43
-176.62
-163.55
-153.54
-145.38
-135.10
-120.14
-101.90
-85.23
-75.48
-75.01
-81.78
-90.61
-96.14
-94.89
-86.18
-71.49
-53.77
-37.30
-26.70
-25.41
-33.38
-45.92
-54.64
-50.75
-29.36
7.81
53.06
96.29
129.53
149.90
159.56
163.31
165.65
168.99
173.20
176.82
178.37
177.17
173.37
167.49
159.64
149.46
136.64
121.44
105.28
90.22
77.91
68.70
61.61
54.60
45.90
34.88
22.58
11.21
3.23
0.26
2.70
9.67
19.41
30.01
39.86
48.03
54.36
59.30
63.71
68.56
74.60
82.15
91.11
101.19
112.16
124.21
137.84
153.57
171.08
188.66
202.76
208.89
202.63
181.32
145.09
96.96
41.88
-14.98
-69.56
-120.11
-166.81
-211.12
-254.36
-296.50
-335.88
-369.98
-396.76
-415.23
-425.30
-426.65
-418.60
-400.49
-372.98
-338.75
-301.95
-266.47
-233.95
-202.94
-169.73
-130.81
-85.04
-34.42
17.06
65.80
110.45
152.02
192.13
231.15
267.29
297.04
316.80
324.40
319.83
304.86
281.91
252.89
219.61
184.38
150.80
123.46
106.16
99.65
100.20
100.39
91.26
65.87
21.58
-39.00
-108.41
-175.90
-229.65
-259.81
-261.43
-236.71
-194.57
-147.68
-107.67
-80.82
-66.35
-57.61
-46.20
-26.33
2.39
34.87
62.60
77.07
73.07
50.76
16.53
-18.39
-41.33
-42.88
-20.44
20.60
69.38
114.60
148.85
170.61
182.53
187.77
186.56
175.59
150.11
107.65
50.67
-13.67
-76.27
-129.61
-169.96
-197.15
-212.95
-218.99
-215.93
-204.15
-184.73
-159.97
-133.00
-106.81
-83.26
-63.09
-46.36
-33.05
-23.37
-17.64
-15.78
-17.14
-20.54
-24.48
-27.53
-28.63
-27.33
-23.86
-18.93
-13.49
-8.45
-4.33
-1.38
0.49
1.52
2.18
3.06
4.89
8.17
12.71
17.75
22.19
25.19
26.61
27.15
27.87
29.66
32.74
36.43
39.57
41.02
40.10
36.91
32.12
26.75
21.70
17.59
14.57
12.55
11.16
9.80
8.00
5.36
1.79
-2.57
-7.35
-11.91
-15.53
-17.67
-18.17
-17.35
-15.99
-15.07
-15.43
-17.38
-20.65
-24.24
-27.02
-27.97
-26.58
-23.04
-18.11
-12.73
-7.81
-4.05
-1.71
-0.76
-0.86
-1.42
-1.90
-1.76
-0.66
1.40
4.07
6.92
9.53
11.77
13.80
15.88
18.17
20.63
22.92
24.49
24.95
24.22
22.63
20.91
19.65
19.21
19.36
19.46
18.71
16.56
13.00
8.49
3.88
-0.21
-3.37
-5.56
-7.03
-8.09
-9.04
-10.07
-11.28
-12.65
-14.11
-15.55
-16.89
-18.15
-19.36
-20.54
-21.57
-22.08
-21.59
-19.71
-16.53
-12.60
-8.80
-5.92
-4.25
-3.56
-3.28
-2.78
-1.71
-0.21
1.38
2.67
3.57
4.37
5.56
7.74
11.27
16.18
22.03
28.03
33.21
36.66
37.92
37.13
35.22
33.43
32.92
34.23
37.08
40.56
43.59
45.48
45.99
45.30
43.58
40.80
36.92
32.13
27.21
23.15
20.84
20.10
19.87
18.68
15.59
10.92
5.87
1.67
-1.93
-7.06
-17.37
-36.02
-63.97
-99.32
-137.77
-174.46
-205.43
-228.41
-242.66
-247.98
-244.01
-230.34
-207.12
-175.55
-138.02
-97.25
-55.48
-14.21
25.65
63.27
97.70
127.94
153.68
175.44
194.39
211.60
227.24
240.70
250.88
257.07
259.54
259.72
259.70
261.17
264.40
267.44
266.76
258.43
239.54
209.69
171.37
129.06
87.74
51.09
20.10
-6.68
-32.14
-59.53
-91.20
-128.10
-169.01
-210.54
-247.49
-274.10
-285.66
-280.15
-259.20
-227.74
-192.68
-160.39
-134.53
-115.38
-100.81
-88.81
-79.80
-77.25
-85.73
-108.34
-143.83
-186.16
-226.68
-257.25
-272.93
-272.66
-257.98
-231.11
-194.38
-150.69
-103.79
-58.12
-17.51
15.83
41.70
61.04
74.48
81.53
80.73
71.02
53.39
31.44
10.91
-1.91
-2.37
10.12
30.77
50.19
57.71
46.37
16.89
-22.49
-59.91
-85.80
-96.94
-96.53
-90.67
-84.24
-79.40
-77.09
-79.50
-90.60
-113.59
-147.24
-184.06
-212.21
-220.85
-205.52
-170.13
-124.43
-79.12
-42.00
-16.84
-4.63
-5.12
-16.76
-35.86
-55.95
-68.83
-67.13
-47.22
-10.37
38.43
92.71
146.66
196.11
238.22
270.46
290.47
296.77
290.54
276.73
263.26
258.44
267.66
290.59
320.86
348.92
366.54
370.79
364.84
355.19
347.12
341.45
334.22
319.47
293.16
255.55
210.57
163.18
116.51
70.81
24.45
-23.85
-73.22
-119.95
-158.65
-184.34
-194.94
-193.19
-186.58
-184.55
-193.92
-214.72
-238.75
-253.19
-247.25
-218.35
-174.70
-132.13
-107.18
-109.84
-139.69
-186.63
-235.73
-273.30
-291.20
-288.37
-269.35
-240.88
-208.57
-174.72
-138.28
-96.70
-48.88
2.93
52.86
93.47
118.88
127.43
122.28
109.71
96.45
86.83
81.94
80.28
79.89
80.45
83.84
93.02
109.84
133.35
159.69
183.86
202.11
213.48
219.71
223.87
228.56
235.18
244.09
255.07
267.64
280.97
293.78
304.29
310.74
311.64
305.94
292.79
271.04
239.41
197.31
145.64
87.44
27.25
-30.48
-82.97
-129.72
-171.94
-211.26
-248.34
-282.63
-313.10
-339.40
-362.52
-384.05
-404.91
-424.33
-439.91
-448.66
-448.19
-437.07
-414.59
-380.39
-334.60
-278.74
-216.65
-154.21
-98.00
-52.90
-20.27
2.54
20.49
38.57
59.36
82.13
103.43
118.93
125.69
123.83
117.09
111.31
111.74
120.30
134.26
147.16
151.67
142.95
120.62
88.96
55.00
25.50
4.22
-9.29
-19.26
-31.53
-50.89
-78.88
-113.02
-147.72
-176.44
-194.23
-199.54
-194.55
-184.04
-173.63
-168.04
-169.72
-178.41
-191.56
-205.20
-215.18
-218.16
-212.27
-197.06
-173.36
-142.74
-107.16
-68.65
-28.97
10.67
49.87
88.70
127.14
164.17
197.37
223.37
239.16
243.42
237.63
225.88
213.43
204.97
202.89
206.45
212.26
215.86
213.66
204.81
191.91
180.20
175.40
180.90
195.73
214.31
228.27
229.76
214.10
180.98
133.84
78.47
21.42
-30.82
-72.76
-101.22
-116.27
-121.42
-122.21
-123.71
-127.83
-132.62
-133.61
-126.60
-110.38
-87.42
-62.58
-40.62
-24.48
-14.50
-9.70
-9.14
-12.27
-18.65
-27.09
-35.58
-41.93
-45.10
-45.68
-45.67
-47.16
-50.85
-55.63
-58.91
-58.00
-51.30
-38.69
-21.38
-1.50
18.16
34.73
45.56
49.32
46.46
39.34
31.14
24.35
19.51
15.20
9.51
1.44
-8.23
-17.80
-26.10
-33.59
-42.03
-53.16
-67.47
-83.12
-96.66
-104.21
-103.07
-92.53
-73.69
-49.13
-22.15
3.63
24.32
35.91
35.33
21.60
-2.81
-31.62
-56.15
-67.96
-62.48
-41.36
-12.71
11.88
22.27
14.03
-9.90
-41.14
-69.76
-88.39
-93.70
-85.71
-65.71
-35.01
4.58
49.63
94.31
131.81
156.45
165.89
161.55
146.87
124.88
96.79
63.10
25.56
-11.11
-40.16
-55.82
-56.48
-45.88
-31.01
-18.73
-12.20
-10.38
-9.94
-8.21
-5.03
-2.28
-1.93
-3.93
-6.12
-5.40
0.22
10.58
23.71
37.21
49.66
61.19
73.06
86.48
101.65
117.58
132.63
145.20
154.50
160.64
164.50
167.30
170.12
173.56
177.52
181.03
182.65
180.77
174.13
162.09
144.83
123.56
100.29
77.49
57.13
39.69
23.59
5.48
-18.36
-50.13
-88.77
-129.54
-165.32
-189.33
-198.08
-192.83
-179.20
-164.36
-153.64
-148.41
-145.83
-140.84
-129.28
-110.09
-85.66
-60.50
-39.02
-23.76
-15.17
-12.37
-14.14
-19.56
-28.18
-39.72
-54.25
-71.94
-92.34
-113.53
-131.34
-140.17
-135.18
-115.33
-85.08
-53.02
-27.86
-13.60
-7.12
0.28
17.65
49.14
91.54
135.81
172.03
193.81
200.36
195.10
182.81
167.13
150.01
133.41
120.70
116.82
125.86
147.86
176.98
202.78
214.91
208.14
185.14
154.43
125.67
104.67
91.74
83.76
77.85
73.74
72.92
75.83
80.14
82.05
79.66
75.66
76.54
88.48
113.05
145.64
178.00
202.83
216.96
221.03
216.59
203.46
179.18
141.51
91.11
32.65
-26.47
-79.28
-121.82
-153.77
-177.30
-195.64
-211.37
-225.88
-239.35
-251.31
-261.34
-269.98
-278.80
-290.16
-306.21
-328.19
-356.09
-388.79
-425.18
-464.48
-505.32
-544.50
-576.21
-593.60
-591.99
-571.98
-539.74
-504.22
-472.45
-445.90
-420.32
-389.05
-347.87
-297.97
-245.57
-198.36
-161.51
-135.60
-117.57
-103.40
-90.54
-78.45
-67.55
-58.02
-49.03
-39.08
-26.32
-9.29
12.57
38.94
68.92
101.32
135.03
168.79
201.32
231.43
258.34
282.37
305.09
329.29
357.95
392.78
432.38
471.64
502.46
515.97
505.43
468.32
407.30
329.29
243.89
160.92
88.34
30.60
-12.20
-43.94
-71.18
-100.33
-134.71
-172.30
-206.05
-226.92
-228.18
-208.93
-174.56
-134.20
-96.24
-65.03
-40.19
-18.43
3.26
25.06
44.01
56.12
59.12
54.45
47.14
43.50
48.42
62.99
83.90
104.79
119.07
122.68
115.73
102.05
87.00
75.20
68.73
67.09
68.23
70.10
71.47
72.03
71.73
69.94
65.47
57.24
45.76
33.49
24.36
21.89
27.55
39.92
55.47
70.35
82.10
90.26
95.73
99.40
101.12
99.88
94.57
84.97
71.95
57.06
42.00
28.02
15.98
6.06
-2.22
-10.09
-19.23
-31.10
-46.08
-62.93
-79.03
-91.34
-97.84
-98.44
-94.75
-89.04
-83.02
-76.96
-69.95
-60.97
-49.89
-37.72
-26.21
-17.03
-11.05
-8.34
-8.68
-11.77
-17.33
-24.52
-31.99
-38.12
-41.67
-42.41
-40.83
-37.93
-34.70
-32.10
-31.00
-32.38
-36.77
-43.56
-50.78
-55.44
-54.63
-46.73
-31.92
-11.99
10.24
31.71
49.96
63.34
71.46
75.18
76.37
77.20
79.15
82.46
86.30
89.65
92.08
94.13
96.90
101.40
108.28
117.63
128.99
141.41
153.11
161.62
164.57
160.68
150.71
137.42
124.23
113.26
104.10
93.85
79.08
58.02
31.97
4.86
-18.57
-35.03
-43.98
-47.47
-49.03
-51.79
-57.57
-66.67
-78.68
-93.56
-112.16
-135.74
-164.68
-197.45
-230.12
-257.29
-274.19
-278.33
-270.51
-253.68
-231.19
-205.13
-176.08
-144.21
-110.59
-77.65
-48.14
-23.75
-4.06
13.01
29.52
46.16
61.83
74.39
82.01
84.29
81.97
76.46
69.16
60.99
52.63
44.73
37.79
31.86
26.59
21.22
15.07
7.93
-0.06
-8.46
-16.74
-24.42
-31.17
-36.69
-40.86
-43.78
-45.54
-46.32
-46.19
-45.22
-43.67
-42.15
-41.46
-42.27
-44.63
-47.71
-50.19
-50.95
-49.67
-47.09
-44.38
-42.53
-41.63
-40.98
-39.35
-35.78
-30.03
-22.64
-14.50
-6.29
2.04
11.35
22.69
36.69
52.89
69.88
85.94
100.25
113.33
126.87
142.69
161.34
181.77
201.70
218.93
232.33
242.16
249.27
254.14
256.33
254.59
247.81
235.67
218.77
198.15
174.70
148.97
121.42
92.93
64.95
39.15
16.70
-2.39
-19.52
-37.03
-57.29
-81.67
-109.70
-138.94
-165.70
-186.16
-197.87
-200.65
-196.50
-188.74
-180.74
-174.60
-170.74
-168.55
-167.09
-165.96
-165.51
-166.81
-170.94
-178.36
-188.11
-197.64
-203.41
-202.02
-191.54
-172.13
-145.37
-113.06
-76.29
-35.39
8.98
54.46
96.99
131.92
155.97
168.99
173.82
174.71
175.30
177.05
179.33
180.78
180.35
177.98
174.48
170.98
168.35
166.96
166.88
167.77
168.92
169.22
166.87
159.95
146.92
127.36
102.06
72.64
40.48
5.83
-32.15
-74.67
-121.48
-169.97
-214.96
-250.21
-270.40
-273.13
-259.66
-234.38
-203.33
-172.32
-145.66
-125.27
-110.77
-99.88
-89.70
-77.93
-63.77
-48.25
-33.39
-21.09
-12.17
-5.88
-0.54
5.30
11.79
17.72
21.09
20.55
16.43
10.89
7.02
7.20
11.76
18.66
24.71
27.12
25.05
19.36
11.44
1.92
-9.46
-22.71
-36.25
-46.56
-49.83
-44.18
-31.49
-16.79
-5.88
-2.55
-6.89
-15.93
-25.53
-32.78
-36.80
-38.28
-38.18
-36.75
-33.30
-26.75
-16.56
-3.36
10.56
21.70
26.53
22.67
10.23
-8.05
-27.61
-44.11
-55.03
-60.56
-62.87
-64.30
-65.89
-66.72
-64.75
-58.18
-47.01
-33.19
-19.72
-8.72
0.06
9.24
22.46
42.17
67.98
96.51
123.02
143.35
155.60
160.40
159.93
156.64
152.11
146.71
140.04
131.76
121.97
111.48
101.80
94.58
91.16
91.73
95.04
98.53
99.43
95.78
87.16
74.86
61.35
49.50
41.86
40.30
45.39
56.35
70.79
85.47
97.28
104.76
108.88
112.61
119.39
130.94
146.29
162.09
174.32
180.10
178.50
170.20
156.21
136.86
111.68
80.14
42.58
0.54
-43.58
-87.37
-129.10
-167.65
-202.05
-231.02
-252.83
-265.92
-269.80
-265.28
-254.23
-238.69
-220.25
-199.68
-177.38
-153.99
-130.72
-109.27
-91.12
-77.02
-66.73
-59.42
-54.01
-49.50
-45.10
-40.27
-34.73
-28.47
-21.85
-15.32
-9.06
-3.04
2.78
7.91
11.22
11.24
7.01
-0.89
-10.15
-17.59
-20.54
-18.17
-11.79
-3.89
3.15
7.91
10.03
9.54
5.91
-1.78
-14.25
-30.99
-49.51
-65.80
-75.76
-77.00
-70.08
-58.76
-48.59
-44.97
-50.79
-64.91
-82.25
-95.46
-97.47
-84.29
-56.44
-18.67
21.64
56.93
81.40
91.52
86.31
67.40
39.16
8.30
-17.47
-31.64
-30.89
-15.86
9.20
38.36
66.31
89.78
107.80
120.80
129.33
133.02
130.69
121.00
103.89
81.27
56.97
35.49
19.94
10.49
4.17
-3.27
-14.70
-29.42
-43.66
-52.82
-54.23
-48.59
-39.47
-31.25
-26.76
-26.37
-28.33
-30.46
-31.43
-31.29
-31.04
-31.78
-34.29
-38.78
-44.96
-52.16
-59.48
-65.96
-70.97
-74.70
-78.21
-83.24
-91.18
-102.14
-114.49
-125.63
-133.21
-136.62
-137.48
-138.80
-143.66
-153.37
-166.89
-181.03
-191.92
-196.77
-195.07
-188.47
-179.48
-169.75
-158.81
-144.00
-121.79
-89.27
-45.65
7.61
67.83
132.10
197.17
258.72
310.18
343.76
353.54
339.12
307.77
272.84
248.67
244.25
259.53
285.77
310.42
323.59
322.37
310.81
295.91
282.68
271.11
257.19
236.13
205.97
168.99
130.26
94.51
63.63
36.08
8.88
-19.54
-47.95
-72.89
-90.84
-100.49
-103.18
-102.18
-100.74
-100.73
-102.21
-104.17
-105.25
-104.45
-101.37
-96.23
-89.76
-83.13
-77.77
-74.75
-74.61
-76.91
-80.32
-82.99
-83.31
-80.26
-73.84
-64.97
-55.05
-45.71
-38.14
-32.78
-29.28
-26.69
-23.87
-20.11
-15.39
-10.17
-5.20
-1.05
2.25
4.86
7.21
9.60
12.23
15.01
17.86
20.52
22.83
24.83
26.56
28.32
30.23
32.16
33.58
33.88
32.58
29.80
26.27
22.75
19.80
17.36
14.95
12.06
8.52
4.64
0.91
-2.15
-4.61
-6.81
-9.19
-11.92
-14.72
-17.14
-18.67
-19.26
-19.11
-18.65
-18.11
-17.56
-16.93
-16.12
-15.33
-14.84
-14.98
-15.85
-17.17
-18.39
-19.06
-18.93
-17.89
-16.01
-13.45
-10.60
-7.99
-6.18
-5.53
-6.00
-7.14
-8.24
-8.71
-8.23
-7.03
-5.51
-4.05
-2.93
-2.20
-1.77
-1.56
-1.53
-1.61
-1.78
-1.82
-1.44
-0.36
1.64
4.50
7.80
10.96
13.50
15.10
15.84
15.91
15.49
14.66
13.34
11.42
8.97
6.31
3.81
1.72
0.00
-1.54
-3.10
-4.73
-6.33
-7.54
-8.15
-8.19
-7.96
-8.02
-8.84
-10.66
-13.45
-16.92
-20.48
-23.54
-25.45
-25.70
-24.05
-20.68
-16.21
-11.48
-7.28
-4.07
-1.85
-0.33
0.84
1.83
2.61
3.10
3.42
3.78
4.38
5.34
6.55
7.81
8.98
10.07
11.14
12.27
13.41
14.31
14.72
14.43
13.34
11.44
8.97
6.27
3.84
2.22
1.69
2.20
3.26
4.27
4.78
4.64
3.97
3.01
1.85
0.44
-1.28
-3.34
-5.70
-8.17
-10.71
-13.36
-16.16
-19.11
-22.04
-24.62
-26.47
-27.42
-27.39
-26.35
-24.39
-21.61
-18.25
-14.75
-11.59
-9.19
-7.72
-6.99
-6.59
-6.09
-5.16
-3.74
-2.00
-0.26
1.22
2.29
2.99
3.44
3.80
4.28
4.98
5.86
6.82
7.72
8.50
9.21
9.86
10.40
10.76
10.85
10.55
9.99
9.35
8.81
8.56
8.62
8.95
9.52
10.26
11.05
11.73
12.11
11.92
11.10
9.61
7.61
5.34
2.92
0.51
-1.79
-3.99
-6.15
-8.27
-10.39
-12.48
-14.42
-16.20
-17.78
-19.20
-20.57
-21.97
-23.34
-24.48
-25.15
-24.92
-23.56
-20.90
-17.08
-12.50
-7.74
-3.36
0.20
2.67
4.13
4.69
4.58
4.09
3.54
3.22
3.26
3.70
4.26
4.76
5.04
5.21
5.57
6.31
7.54
9.05
10.53
11.71
12.43
12.72
12.61
12.08
11.04
9.51
7.70
5.89
4.46
3.63
3.47
3.82
4.49
5.19
5.79
6.26
6.59
6.78
6.81
6.73
6.53
6.35
6.19
6.04
5.75
5.26
4.53
3.63
2.72
1.85
1.07
0.32
-0.38
-0.92
-0.94
-0.02
2.11
5.36
9.40
13.70
17.89
21.85
25.86
30.38
35.83
42.34
49.61
57.13
64.30
70.72
76.30
81.34
86.29
91.84
98.72
107.36
117.50
127.88
136.19
139.57
135.54
122.91
102.28
76.04
47.63
20.61
-2.40
-20.48
-34.48
-46.66
-59.55
-74.91
-92.97
-112.35
-130.76
-145.95
-156.50
-161.66
-161.02
-154.19
-141.06
-122.55
-100.98
-79.69
-62.01
-50.02
-43.91
-42.44
-43.99
-47.35
-52.01
-57.44
-62.59
-65.86
-65.88
-62.20
-55.84
-48.74
-42.72
-38.74
-36.64
-35.50
-34.27
-32.29
-29.38
-25.64
-21.38
-16.82
-12.28
-8.10
-4.68
-2.12
-0.42
0.64
1.38
2.09
3.11
4.68
6.91
9.64
12.44
14.81
16.38
17.05
17.13
17.21
17.76
19.01
20.71
22.31
23.28
23.34
22.52
21.06
19.43
17.99
17.08
16.94
17.58
18.85
20.38
21.66
22.15
21.59
20.06
17.92
15.72
13.74
11.97
10.16
8.07
5.78
3.59
1.95
1.12
1.02
1.16
0.97
0.05
-1.49
-3.22
-4.67
-5.63
-6.28
-7.04
-8.44
-10.59
-13.28
-15.91
-17.82
-18.60
-18.20
-16.77
-14.61
-12.02
-9.22
-6.46
-3.96
-1.94
-0.62
-0.01
0.17
0.31
0.82
1.93
3.51
5.38
7.23
8.84
10.16
11.16
11.73
11.78
11.24
10.12
8.71
7.46
6.66
6.52
6.98
7.78
8.79
9.83
10.71
11.28
11.51
11.49
11.47
11.67
12.09
12.53
12.65
12.11
10.98
9.68
8.82
8.87
9.78
10.97
11.63
11.07
8.95
5.45
1.12
-3.27
-7.06
-9.88
-11.78
-13.11
-14.49
-16.56
-19.62
-23.80
-28.74
-33.87
-38.57
-42.30
-44.79
-46.29
-47.73
-50.64
-56.83
-67.27
-81.04
-95.01
-104.46
-104.73
-93.21
-70.34
-39.28
-4.59
29.43
59.79
84.77
103.31
114.66
118.31
114.45
104.16
89.22
71.22
50.95
28.44
3.79
-21.90
-46.23
-65.88
-78.02
-81.49
-77.36
-68.53
-58.43
-49.69
-43.23
-38.44
-33.89
-28.62
-22.75
-17.41
-14.02
-13.38
-15.20
-18.34
-21.45
-23.50
-24.01
-22.83
-19.59
-13.75
-5.07
5.77
17.04
26.43
32.30
34.47
34.41
34.42
36.47
41.18
47.78
54.75
60.63
64.66
66.81
67.25
66.11
63.28
58.81
53.13
47.12
41.87
38.06
35.80
34.50
33.44
31.95
30.01
27.98
26.28
24.97
23.62
21.67
18.70
14.95
11.05
7.71
5.26
3.49
1.78
-0.26
-2.58
-4.78
-6.29
-6.89
-6.85
-6.66
-6.71
-7.10
-7.50
-7.48
-6.90
-5.98
-5.22
-5.09
-5.77
-7.04
-8.52
-9.85
-10.85
-11.64
-12.54
-13.92
-16.06
-18.98
-22.35
-25.48
-27.49
-27.73
-25.89
-22.31
-17.82
-13.42
-9.82
-7.24
-5.39
-3.79
-2.04
-0.06
2.02
3.97
5.65
7.08
8.36
9.50
10.38
10.81
10.47
9.28
7.27
4.68
1.92
-0.48
-2.02
-2.38
-1.44
0.45
2.78
4.91
6.39
7.02
6.97
6.50
5.83
5.14
4.43
3.73
2.93
1.89
0.43
-1.60
-4.17
-7.09
-9.93
-12.31
-14.04
-15.24
-16.27
-17.39
-18.64
-19.73
-20.27
-19.94
-18.69
-16.63
-13.97
-10.91
-7.61
-4.43
-1.74
0.04
0.72
0.44
-0.25
-0.67
-0.37
0.82
2.58
4.50
6.10
7.23
7.79
7.90
7.68
7.14
6.33
5.36
4.42
3.75
3.60
3.91
4.51
5.15
5.59
5.88
6.22
6.86
7.80
8.83
9.48
9.32
8.30
6.67
5.04
3.83
3.18
2.75
2.14
0.97
-0.83
-2.93
-5.00
-6.74
-8.14
-9.41
-10.76
-12.23
-13.74
-15.13
-16.37
-17.70
-19.33
-21.42
-23.93
-26.51
-28.61
-29.66
-29.25
-27.30
-24.13
-20.27
-16.39
-13.14
-10.83
-9.47
-8.73
-8.11
-7.18
-5.83
-4.07
-2.10
-0.09
1.91
3.78
5.51
7.08
8.61
10.22
12.22
14.82
18.11
21.98
25.97
29.56
32.18
33.46
33.18
31.55
29.06
26.39
24.22
22.86
22.33
22.25
22.14
21.63
20.55
18.94
16.91
14.61
12.07
9.45
6.89
4.48
2.31
0.30
-1.69
-3.71
-5.67
-7.48
-9.04
-10.34
-11.43
-12.38
-13.23
-13.98
-14.70
-15.45
-16.35
-17.37
-18.26
-18.58
-17.77
-15.55
-11.98
-7.59
-3.18
0.43
2.76
3.78
3.83
3.50
3.26
3.41
4.05
5.09
6.35
7.67
8.81
9.56
9.87
9.86
9.86
10.22
11.11
12.38
13.69
14.69
15.15
15.03
14.35
13.15
11.40
9.16
6.66
4.35
2.65
1.71
1.35
1.05
0.42
-0.62
-1.65
-2.08
-1.52
-0.09
1.64
2.91
3.09
2.08
0.14
-2.19
-4.38
-6.08
-7.18
-7.66
-7.72
-7.66
-7.94
-9.00
-11.04
-13.88
-16.92
-19.29
-20.18
-19.23
-16.46
-12.42
-7.83
-3.39
0.46
3.46
5.62
7.09
8.06
8.89
9.90
11.49
13.95
17.39
21.57
25.97
29.91
32.79
34.50
35.36
35.92
36.57
37.24
37.54
37.14
36.15
35.19
35.09
36.27
38.28
39.96
39.81
36.70
30.33
21.13
10.12
-1.52
-12.66
-22.50
-30.46
-36.43
-40.74
-44.26
-47.91
-52.23
-56.99
-61.27
-64.14
-65.18
-64.78
-63.97
-63.77
-64.51
-65.68
-66.24
-65.14
-62.00
-57.29
-52.08
-47.92
-46.14
-47.81
-53.40
-62.61
-74.15
-85.77
-94.87
-99.12
-97.36
-89.84
-78.25
-64.95
-52.00
-39.96
-27.66
-12.93
5.83
27.97
50.34
68.42
78.69
80.89
78.65
77.64
82.83
95.72
113.81
132.59
148.11
158.94
166.05
170.85
173.15
170.82
161.38
144.35
122.87
102.75
89.65
85.97
89.36
93.91
93.22
83.82
66.59
46.02
27.73
15.93
11.83
13.79
18.63
23.35
26.23
26.80
25.09
20.32
10.68
-6.21
-31.73
-64.60
-99.94
-130.18
-147.54
-147.05
-128.93
-98.97
-66.43
-40.55
-27.14
-26.95
-36.43
-50.15
-63.21
-72.05
-74.14
-67.27
-49.90
-22.52
10.51
41.37
61.39
65.43
55.03
38.12
24.82
21.39
26.53
31.75
26.71
5.52
-29.33
-68.32
-100.08
-117.50
-121.25
-118.56
-118.56
-126.91
-142.96
-160.57
-172.14
-173.27
-165.20
-154.25
-148.37
-153.16
-169.38
-193.08
-218.14
-238.99
-252.77
-259.12
-258.95
-252.41
-238.12
-213.73
-177.47
-130.06
-74.96
-17.44
37.55
87.12
130.88
169.77
204.32
233.48
254.69
265.40
264.72
254.39
238.19
220.38
204.14
190.44
178.62
167.35
155.75
144.03
133.01
123.40
115.02
106.95
97.84
87.05
74.92
62.65
51.75
43.09
36.62
31.37
26.16
20.16
13.46
6.79
1.06
-3.23
-6.23
-8.42
-10.46
-12.61
-14.82
-16.74
-18.00
-18.42
-18.02
-17.10
-15.95
-14.98
-14.50
-14.87
-16.23
-18.48
-21.22
-23.84
-25.85
-27.03
-27.48
-27.46
-27.19
-26.60
-25.36
-23.11
-19.73
-15.46
-10.80
-6.22
-1.93
1.96
5.36
8.07
9.78
10.28
9.64
8.35
7.11
6.55
6.99
8.29
10.09
12.01
13.89
15.79
17.90
20.20
22.30
23.68
23.70
22.19
19.35
16.01
12.97
10.87
9.88
9.68
9.65
9.26
8.21
6.47
4.45
2.48
0.89
-0.14
-0.61
-0.64
-0.53
-0.58
-1.14
-2.39
-4.39
-6.99
-9.85
-12.49
-14.52
-15.82
-16.54
-17.20
-18.26
-19.96
-22.09
-23.97
-24.77
-23.75
-20.73
-16.12
-10.88
-6.01
-2.22
0.28
1.74
2.52
2.91
2.99
2.62
1.77
0.70
-0.10
-0.03
1.22
3.41
5.90
7.85
8.62
8.10
6.65
4.95
3.68
3.31
3.93
5.33
7.13
8.98
10.54
11.58
12.01
11.80
11.03
9.97
8.92
8.24
8.11
8.47
8.86
8.75
7.85
6.18
4.17
2.41
1.43
1.49
2.49
4.06
5.64
6.83
7.27
6.89
5.77
4.16
2.53
1.35
1.13
2.32
5.16
9.54
15.04
20.97
26.60
31.55
35.74
39.39
42.94
46.64
50.38
53.81
56.55
58.35
59.40
60.04
60.55
60.78
59.89
56.48
49.03
36.46
18.48
-4.23
-30.40
-58.32
-85.99
-111.19
-131.38
-144.10
-147.51
-141.25
-126.69
-106.79
-85.21
-65.28
-49.31
-38.51
-33.17
-33.14
-38.03
-46.84
-57.82
-68.71
-77.50
-83.53
-87.62
-91.47
-96.23
-101.29
-104.14
-101.61
-91.90
-76.11
-58.03
-42.25
-31.78
-26.60
-23.91
-20.01
-12.32
-0.73
12.73
25.26
34.82
40.99
44.88
48.44
53.46
61.05
70.93
81.86
92.07
99.80
104.14
105.33
104.43
102.66
100.84
99.08
97.25
95.60
94.69
95.08
96.73
98.79
99.78
98.51
94.73
89.36
84.32
81.53
82.19
86.42
92.80
98.42
99.37
91.47
72.02
41.34
3.42
-35.21
-67.98
-90.96
-104.23
-111.05
-115.71
-121.01
-127.18
-132.16
-133.25
-128.87
-119.42
-106.76
-92.98
-79.44
-66.82
-55.66
-47.37
-44.34
-49.15
-62.84
-83.23
-104.89
-120.86
-125.87
-118.76
-102.84
-83.73
-66.24
-52.16
-40.42
-28.95
-16.84
-5.01
4.76
11.70
16.75
22.01
28.97
36.99
43.17
43.86
36.29
19.64
-4.70
-33.57
-62.45
-85.99
-99.07
-98.19
-82.67
-55.26
-21.13
13.97
45.83
72.92
96.36
118.60
142.06
168.10
196.71
226.90
257.18
286.15
312.33
333.86
347.75
349.65
334.94
300.50
246.75
178.15
102.42
27.71
-39.99
-98.68
-150.12
-197.90
-245.54
-294.80
-345.14
-393.59
-435.20
-464.07
-474.91
-465.33
-437.34
-397.08
-352.46
-310.04
-272.54
-238.57
-204.65
-167.83
-128.27
-88.99
-53.89
-25.01
-0.94
22.43
49.63
83.16
122.40
163.81
203.19
237.51
266.06
290.10
311.55
331.36
349.10
363.49
373.34
378.43
379.40
376.92
371.29
362.41
349.84
333.17
312.21
286.60
255.82
219.56
178.21
134.20
91.65
54.85
25.81
2.59
-20.41
-49.09
-85.53
-125.46
-159.27
-177.01
-174.05
-153.63
-124.67
-96.30
-72.56
-51.21
-27.62
-0.11
27.03
45.42
48.33
35.29
12.80
-9.65
-25.42
-34.17
-40.21
-47.89
-57.18
-62.94
-58.55
-40.46
-11.04
22.68
52.98
75.62
91.16
103.13
114.72
126.26
135.60
140.12
139.07
134.30
128.92
124.59
119.64
109.33
87.91
51.84
2.32
-54.18
-107.87
-149.37
-173.14
-179.91
-176.03
-171.25
-175.01
-193.43
-227.78
-274.80
-328.05
-379.28
-419.97
-442.52
-441.86
-416.90
-371.61
-314.51
-256.50
-207.42
-173.06
-153.79
-145.44
-141.38
-135.05
-121.86
-100.07
-70.64
-36.56
-2.27
27.21
47.34
55.63
52.97
44.28
37.00
38.14
50.46
70.70
90.85
102.24
100.40
87.21
69.64
55.51
48.93
48.65
49.67
46.55
36.16
17.90
-7.52
-39.61
-77.77
-119.73
-160.05
-190.26
-201.52
-188.58
-152.72
-101.60
-46.65
1.44
36.12
56.18
64.62
66.31
65.72
65.67
67.37
70.85
76.08
83.06
91.68
101.24
110.13
116.25
117.84
114.38
107.06
98.49
91.65
88.38
88.77
91.19
93.59
94.59
94.03
92.62
91.09
89.63
87.78
84.80
79.83
72.09
60.90
46.03
28.49
11.15
-1.88
-7.20
-4.49
2.34
6.38
1.16
-15.61
-40.27
-64.98
-81.98
-87.75
-84.65
-79.02
-77.11
-81.46
-89.98
-97.89
-101.12
-98.66
-92.67
-86.58
-82.60
-80.57
-78.58
-74.86
-69.69
-65.94
-67.96
-78.97
-98.75
-122.60
-142.77
-151.88
-146.83
-130.90
-112.32
-99.83
-97.57
-102.77
-107.99
-106.04
-94.84
-78.81
-65.85
-62.04
-67.46
-76.13
-80.09
-74.54
-60.39
-42.89
-27.59
-16.34
-6.24
8.47
33.01
69.33
115.56
167.25
218.99
265.69
302.88
327.19
336.89
332.63
317.69
297.59
278.26
263.95
255.87
252.43
250.22
245.49
235.29
217.31
189.85
152.03
104.82
52.23
1.26
-40.27
-66.93
-78.25
-78.90
-76.18
-76.18
-81.15
-89.28
-96.83
-100.85
-100.57
-97.14
-92.14
-86.67
-81.14
-75.76
-71.00
-67.48
-65.70
-65.65
-66.64
-67.36
-65.97
-60.21
-48.10
-28.85
-3.69
24.04
50.10
71.61
88.47
103.22
119.14
137.90
158.24
176.76
189.75
195.05
192.98
185.57
174.88
161.67
144.87
122.02
90.97
51.52
6.73
-36.96
-71.44
-89.92
-90.03
-75.42
-54.95
-39.01
-35.09
-44.90
-63.87
-84.21
-98.97
-105.24
-104.45
-100.33
-95.91
-91.71
-86.30
-78.14
-67.70
-57.68
-51.67
-52.10
-58.84
-69.17
-79.34
-86.26
-88.50
-86.52
-81.92
-76.48
-71.57
-68.21
-66.94
-68.16
-72.18
-79.06
-88.56
-99.97
-112.04
-123.16
-131.60
-135.88
-135.33
-130.85
-124.71
-119.95
-118.97
-122.12
-127.06
-128.96
-122.31
-103.14
-70.83
-28.42
18.70
64.97
106.46
141.39
169.63
191.66
207.69
217.74
222.19
222.29
220.29
218.87
220.18
225.09
233.02
242.40
251.57
259.47
265.97
271.96
278.54
286.38
295.17
303.73
310.61
314.72
315.67
313.53
308.52
300.47
288.76
272.40
250.39
222.14
187.77
148.25
105.11
60.05
14.66
-29.53
-70.99
-107.88
-138.17
-159.94
-171.98
-174.52
-169.65
-161.47
-155.16
-155.29
-163.95
-179.08
-194.90
-203.88
-199.89
-180.63
-148.13
-107.10
-62.26
-16.29
30.52
78.71
127.58
173.81
212.13
236.92
243.98
231.83
201.54
156.02
99.19
35.78
-28.48
-86.86
-132.71
-161.59
-173.32
-173.00
-169.67
-173.31
-191.33
-225.73
-272.78
-324.15
-369.75
-400.92
-413.46
-409.28
-395.91
-383.69
-381.10
-390.98
-409.17
-426.99
-436.63
-435.99
-429.70
-425.27
-427.60
-434.37
-436.86
-424.95
-392.84
-342.57
-282.31
-222.24
-170.07
-129.09
-98.83
-77.24
-62.36
-52.32
-45.09
-37.57
-26.30
-8.77
15.65
45.83
79.83
115.89
152.88
189.59
224.05
253.40
274.87
287.44
292.62
293.87
294.68
296.53
297.91
295.85
288.35
276.27
263.62
254.95
252.94
257.03
