1710437841.00
64.000000
-0.00
-0.00
-0.00
-0.00
-0.00
-0.00
-0.00
-0.00
-0.00
-0.00
0.00
0.01
0.01
-0.00
-0.03
-0.05
-0.05
0.00
0.13
0.36
0.66
1.01
1.37
1.72
2.06
2.40
2.79
3.24
3.80
4.42
5.06
5.66
6.20
6.68
7.15
7.68
8.31
9.14
10.09
11.04
11.88
12.56
13.14
13.76
14.65
15.96
17.91
20.32
22.90
25.38
27.58
29.57
31.68
34.32
37.81
42.54
48.15
54.10
59.83
64.97
69.58
74.14
79.34
85.71
93.76
103.00
112.62
121.73
129.77
136.75
143.30
150.75
157.77
166.64
177.95
191.79
206.97
220.57
228.25
225.36
208.53
176.87
132.76
80.05
23.07
-34.94
-92.44
-149.16
-205.23
-260.37
-313.74
-363.87
-409.83
-450.91
-486.50
-515.74
-537.23
-549.22
-549.96
-538.37
-514.21
-478.67
-433.88
-382.45
-327.02
-269.84
-212.63
-156.66
-102.95
-52.37
-5.90
35.58
71.43
101.35
125.50
144.38
158.69
169.15
176.37
180.75
182.57
182.07
179.51
175.23
169.65
163.18
156.15
148.81
141.30
133.69
126.02
118.33
110.69
103.16
95.80
88.68
81.83
75.25
68.95
62.95
57.25
51.86
46.78
42.03
37.59
33.45
29.61
26.07
22.81
19.82
17.11
14.66
12.48
10.54
8.83
7.35
6.08
4.99
4.08
3.32
2.70
2.20
1.80
1.49
1.25
1.08
0.95
0.87
0.82
0.80
0.79
0.81
0.83
0.87
0.91
0.96
1.02
1.09
1.16
1.24
1.34
1.44
1.56
1.70
1.86
2.04
2.24
2.47
2.73
3.02
3.34
3.70
4.10
4.53
5.00
5.51
6.07
6.66
7.29
7.97
8.69
9.46
10.27
11.13
12.03
12.98
13.97
15.01
16.10
17.25
18.48
19.77
21.12
22.49
23.86
25.13
26.21
26.95
27.20
26.78
25.58
23.48
20.43
16.44
11.58
6.01
-0.03
-6.31
-12.51
-18.37
-23.64
-28.12
-31.66
-34.12
-35.46
-35.67
-34.83
-33.03
-30.39
-27.05
-23.15
-18.81
-14.13
-9.23
-4.26
0.60
5.14
9.21
12.58
15.12
16.80
17.72
18.01
17.75
17.09
16.15
15.09
13.87
12.56
11.36
10.52
10.31
10.63
11.37
12.33
13.25
13.63
13.19
12.10
10.76
9.70
8.90
8.43
8.11
7.80
6.84
5.03
2.71
0.56
-0.64
-0.91
-0.22
0.97
2.18
2.27
0.66
-2.58
-7.38
-10.01
-9.12
-4.10
4.47
20.77
45.64
77.06
111.16
144.03
173.41
196.14
213.24
225.15
231.86
232.45
226.61
216.19
203.24
189.56
175.42
160.28
142.40
120.13
92.06
58.40
20.83
-18.27
-56.68
-93.57
-129.06
-164.54
-201.91
-243.57
-291.45
-346.05
-405.50
-464.73
-516.09
-550.87
-562.50
-548.88
-513.45
-463.80
-408.65
-354.79
-305.57
-261.53
-221.82
-186.04
-154.58
-128.19
-106.98
-89.96
-74.84
-59.39
-42.70
-25.40
-9.41
3.42
12.20
17.34
20.27
23.65
29.81
39.75
52.93
67.71
82.56
96.72
110.34
124.16
140.03
159.43
182.48
207.77
232.71
254.72
271.89
282.99
281.44
262.49
225.83
176.33
121.51
67.36
17.12
-27.96
-67.84
-102.88
-132.55
-156.29
-174.23
-186.95
-195.66
-202.36
-207.37
-210.64
-212.02
-210.69
-205.99
-198.08
-187.42
-175.15
-162.49
-150.17
-138.56
-127.54
-115.78
-101.16
-85.23
-68.67
-52.24
-36.71
-22.56
-10.11
0.60
10.16
19.37
28.84
39.26
50.74
62.89
75.22
87.43
99.47
111.81
125.08
139.60
155.75
173.52
192.93
214.24
237.66
262.79
288.08
310.82
327.63
335.93
334.50
324.05
306.76
285.30
262.17
238.97
216.70
196.11
178.28
164.10
153.41
144.32
133.33
116.75
92.81
63.06
32.32
6.88
-8.40
-12.32
-7.67
0.43
7.11
9.79
8.59
5.17
1.08
-3.13
-7.85
-13.54
-19.89
-25.85
-30.18
-32.04
-31.52
-29.76
-28.30
-28.64
-31.66
-37.27
-44.49
-51.66
-57.08
-59.45
-58.42
-54.60
-49.32
-44.02
-39.71
-36.62
-34.27
-31.87
-28.77
-24.82
-20.33
-15.97
-12.28
-9.51
-7.52
-5.89
-4.27
-2.50
-0.74
0.72
1.69
2.22
2.65
3.36
4.64
6.48
8.59
10.55
12.02
12.85
13.11
12.96
12.48
11.73
10.67
9.31
7.73
6.13
4.66
3.30
1.85
-0.07
-2.83
-6.60
-11.28
-16.51
-21.78
-26.63
-30.77
-34.04
-36.34
-37.67
-37.96
-37.25
-35.65
-33.41
-30.84
-28.26
-25.91
-23.85
-21.99
-20.09
-17.90
-15.22
-12.08
-8.69
-5.41
-2.60
-0.41
1.22
2.62
4.10
5.87
7.87
9.82
11.33
12.12
12.11
11.49
10.57
9.64
8.85
8.16
7.33
6.14
4.44
2.23
-0.34
-3.03
-5.59
-7.86
-9.79
-11.48
-13.19
-15.28
-18.08
-21.82
-26.46
-31.81
-37.57
-43.48
-49.60
-56.28
-64.09
-73.38
-83.93
-94.60
-103.37
-107.59
-104.67
-92.81
-71.58
-42.26
-7.68
28.27
61.54
88.82
108.37
120.45
127.00
130.71
133.86
137.24
140.01
140.36
136.51
127.52
113.43
94.93
73.12
49.39
25.67
4.48
-11.49
-20.39
-22.24
-19.15
-14.62
-12.17
-14.04
-20.62
-30.80
-42.56
-53.77
-62.56
-67.42
-67.56
-63.14
-55.42
-46.55
-38.79
-33.68
-31.60
-31.71
-32.56
-32.86
-31.99
-30.08
-27.72
-25.54
-23.92
-22.89
-22.25
-21.74
-21.13
-20.30
-19.04
-17.12
-14.25
-10.27
-5.29
0.20
5.46
9.69
12.37
13.42
13.23
12.46
11.72
11.39
11.47
11.63
11.48
10.74
9.34
7.45
5.40
3.50
1.94
0.75
-0.27
-1.34
-2.66
-4.25
-5.98
-7.59
-8.75
-9.28
-9.17
-8.74
-8.57
-9.41
-11.91
-16.37
-22.58
-29.74
-36.70
-42.39
-46.15
-47.99
-48.55
-48.84
-49.90
-52.48
-56.55
-61.08
-63.99
-62.54
-54.29
-38.13
-15.07
11.79
38.16
59.82
73.92
79.57
77.50
69.33
56.74
41.18
23.90
6.21
-10.52
-25.04
-36.59
-45.01
-50.67
-54.06
-55.18
-53.27
-46.91
-34.58
-15.60
9.17
37.08
64.13
86.10
99.91
104.48
100.98
92.14
81.09
70.13
60.08
50.52
40.47
29.34
17.41
5.84
-3.96
-10.92
-14.75
-15.92
-15.25
-13.61
-11.60
-9.68
-8.24
-7.74
-8.68
-11.42
-15.94
-21.75
-27.81
-32.74
-35.18
-34.19
-29.64
-22.34
-13.82
-5.76
0.62
4.93
7.58
9.38
10.96
12.43
13.41
13.37
12.13
10.03
7.89
6.62
6.81
8.38
10.74
12.94
14.17
13.96
12.31
9.60
6.32
2.97
-0.09
-2.71
-4.83
-6.46
-7.64
-8.32
-8.50
-8.26
-7.86
-7.70
-8.18
-9.59
-11.90
-14.84
-17.97
-20.88
-23.26
-24.95
-25.78
-25.63
-24.44
-22.23
-19.19
-15.65
-11.95
-8.38
-5.09
-2.06
0.80
3.60
6.42
9.35
12.42
15.46
18.16
20.08
20.88
20.43
18.93
16.95
15.34
14.85
15.90
18.39
21.83
25.60
29.02
31.60
33.20
34.14
35.02
36.43
38.66
41.69
45.24
48.69
51.32
52.65
52.78
52.37
52.35
53.50
56.14
59.95
63.43
64.11
59.32
47.30
27.82
2.39
-26.34
-55.20
-78.83
-91.22
-88.39
-70.88
-43.14
-10.91
21.57
51.92
78.90
101.83
119.90
132.25
138.85
140.50
138.52
134.33
129.03
122.83
115.34
105.67
92.71
75.57
56.33
36.85
18.58
1.73
-14.75
-32.72
-54.16
-80.35
-111.37
-146.21
-183.73
-223.06
-263.79
-305.53
-347.19
-387.06
-423.05
-453.37
-476.67
-491.96
-497.69
-491.43
-470.45
-433.18
-380.62
-316.80
-247.82
-179.80
-117.11
-61.20
-11.33
33.72
73.99
107.61
131.68
144.08
145.35
138.94
130.21
124.10
123.07
126.35
130.91
133.50
132.33
127.84
122.00
116.77
112.84
109.02
102.81
91.77
74.78
52.41
26.51
-0.95
-28.72
-56.36
-83.45
-108.57
-128.81
-140.41
-140.57
-129.06
-108.75
-84.55
-61.40
-42.30
-27.83
-16.78
-7.47
1.19
9.64
18.19
27.47
38.96
54.64
76.52
106.12
143.60
187.36
234.09
279.10
317.35
344.83
359.67
362.64
356.82
346.15
334.08
322.31
310.55
297.10
279.80
257.03
228.00
193.07
153.32
110.20
65.50
20.91
-22.30
-63.49
-102.55
-139.50
-173.90
-204.69
-230.33
-249.27
-260.40
-263.07
-257.07
-242.55
-220.25
-191.70
-159.34
-126.21
-95.30
-68.97
-48.50
-34.10
-24.95
-19.43
-15.45
-11.00
-5.00
2.16
8.44
11.24
8.93
1.74
-8.04
-17.26
-23.48
-26.13
-26.49
-26.79
-28.84
-33.18
-39.11
-45.21
-50.20
-53.32
-54.44
-53.74
-51.34
-47.10
-40.64
-31.63
-20.08
-6.43
8.41
23.19
36.53
47.03
53.49
55.22
52.36
46.21
38.94
33.12
30.72
32.32
37.00
42.74
47.38
49.54
48.99
46.47
43.11
39.80
36.86
34.19
31.52
28.78
26.10
23.72
21.77
20.08
18.27
15.83
12.43
8.03
2.94
-2.37
-7.52
-12.44
-17.28
-22.32
-27.59
-32.62
-36.57
-38.48
-37.72
-34.33
-29.06
-23.02
-17.26
-12.34
-8.29
-4.77
-1.39
2.06
5.51
8.77
11.68
14.15
16.23
18.05
19.72
21.30
22.83
24.35
25.77
26.96
27.67
27.66
26.79
25.14
23.04
20.99
19.44
18.63
18.48
18.66
18.69
18.20
17.03
15.25
13.05
10.64
8.08
5.38
2.52
-0.46
-3.39
-6.09
-8.44
-10.52
-12.61
-15.11
-18.22
-21.87
-25.53
-28.35
-29.54
-28.65
-25.73
-21.33
-16.22
-11.12
-6.40
-2.11
1.93
5.95
10.02
13.99
17.59
20.47
22.41
23.44
23.79
23.84
23.89
24.14
24.60
25.19
25.87
26.70
27.72
28.98
30.33
31.53
32.29
32.38
31.69
30.30
28.37
26.13
23.87
21.81
20.06
18.58
17.19
15.65
13.67
11.12
7.99
4.39
0.57
-3.20
-6.67
-9.70
-12.34
-14.75
-17.27
-20.17
-23.60
-27.53
-31.67
-35.56
-38.72
-40.68
-41.11
-39.91
-37.28
-33.61
-29.36
-24.87
-20.31
-15.69
-11.04
-6.49
-2.28
1.28
4.01
6.01
7.54
8.95
10.51
12.34
14.40
16.59
18.80
20.88
22.67
23.93
24.38
23.85
22.37
20.17
17.67
15.30
13.41
12.14
11.49
11.40
11.79
12.55
13.53
14.43
14.88
14.55
13.28
11.20
8.64
6.01
3.62
1.52
-0.43
-2.46
-4.78
-7.49
-10.62
-14.15
-18.04
-22.25
-26.55
-30.49
-33.48
-34.97
-34.64
-32.55
-29.09
-24.83
-20.33
-15.95
-11.87
-8.07
-4.49
-1.08
2.19
5.29
8.14
10.62
12.63
14.23
15.57
16.90
18.41
20.10
21.74
22.96
23.39
22.94
21.80
20.34
18.98
17.97
17.30
16.77
16.13
15.20
13.98
12.56
11.13
9.80
8.57
7.34
5.98
4.41
2.67
0.85
-0.87
-2.37
-3.61
-4.63
-5.59
-6.59
-7.76
-9.16
-10.84
-12.87
-15.30
-18.16
-21.30
-24.37
-26.78
-27.90
-27.26
-24.74
-20.71
-15.86
-10.94
-6.53
-2.83
0.24
2.99
5.68
8.44
11.24
13.84
16.01
17.49
18.13
18.00
17.30
16.40
15.67
15.33
15.44
15.85
16.32
16.67
16.76
16.51
15.91
14.93
13.60
11.98
10.20
8.47
6.99
5.89
5.13
4.50
3.68
2.44
0.72
-1.30
-3.29
-4.94
-6.06
-6.73
-7.21
-7.79
-8.74
-10.17
-12.10
-14.51
-17.24
-20.03
-22.38
-23.74
-23.67
-22.02
-18.99
-15.12
-10.99
-7.06
-3.53
-0.29
2.83
5.99
9.17
12.16
14.67
16.39
17.22
17.26
16.83
16.38
16.30
16.81
17.81
18.96
19.85
20.17
19.86
19.11
18.16
17.18
16.10
14.65
12.54
9.69
6.28
2.73
-0.46
-2.91
-4.38
-4.88
-4.52
-3.62
-2.65
-2.19
-2.80
-4.74
-7.85
-11.58
-15.22
-18.19
-20.31
-21.72
-22.80
-23.92
-25.31
-27.06
-29.17
-31.51
-33.81
-35.55
-36.07
-34.81
-31.53
-26.59
-20.81
-15.22
-10.64
-7.36
-5.16
-3.54
-2.05
-0.56
0.81
1.82
2.39
2.69
3.00
3.53
4.21
4.62
4.23
2.64
-0.16
-3.84
-7.88
-11.81
-15.44
-18.84
-22.25
-25.87
-29.77
-33.82
-37.76
-41.32
-44.21
-46.22
-47.21
-47.22
-46.48
-45.45
-44.71
-44.74
-45.76
-47.72
-50.23
-52.76
-54.60
-54.84
-52.39
-46.15
-35.44
-20.46
-2.39
16.82
35.10
50.90
63.56
73.19
80.27
85.29
88.59
90.51
91.65
92.84
94.79
97.69
100.79
102.60
101.40
95.89
85.88
72.29
56.76
40.85
25.31
9.92
-6.21
-23.83
-42.91
-62.32
-80.27
-94.94
-105.14
-110.52
-111.29
-107.79
-100.14
-88.38
-72.66
-53.63
-32.55
-11.10
9.00
26.16
39.13
47.03
49.39
46.51
39.61
30.84
22.86
18.00
17.39
20.54
25.52
29.75
30.97
27.99
20.98
11.15
0.24
-10.05
-18.46
-24.23
-27.17
-27.51
-25.87
-23.08
-19.95
-17.01
-14.40
-11.82
-8.84
-5.21
-0.97
3.42
7.36
10.41
12.45
13.76
14.70
15.48
15.96
15.74
14.43
11.89
8.43
4.69
1.32
-1.31
-3.27
-4.91
-6.42
-7.38
-6.68
-2.79
5.50
18.48
35.30
54.31
73.67
91.82
107.47
119.32
125.92
125.84
118.41
104.36
85.82
65.60
45.97
27.83
10.69
-6.45
-24.05
-41.41
-56.91
-68.84
-76.33
-79.54
-79.34
-76.77
-72.37
-66.34
-58.81
-50.20
-41.39
-33.55
-27.65
-24.17
-22.86
-22.91
-23.18
-22.68
-20.87
-17.83
-14.19
-10.75
-8.13
-6.50
-5.56
-4.82
-3.89
-2.70
-1.55
-0.82
-0.75
-1.17
-1.61
-1.47
-0.44
1.38
3.43
4.96
5.44
4.70
3.14
1.40
0.15
-0.29
0.00
0.62
0.98
0.61
-0.82
-3.29
-6.58
-10.25
-13.84
-16.97
-19.49
-21.52
-23.34
-25.31
-27.69
-30.40
-33.12
-35.35
-36.68
-36.83
-35.80
-33.70
-30.71
-27.03
-22.89
-18.57
-14.38
-10.57
-7.16
-3.96
-0.69
2.81
6.35
9.45
11.52
12.20
11.59
10.19
8.67
7.60
7.19
7.38
7.91
8.53
9.15
9.80
10.49
11.28
12.12
12.92
13.56
13.94
14.00
13.81
13.45
13.05
12.61
12.16
11.58
10.85
9.99
9.05
7.97
6.66
4.91
2.61
-0.18
-3.25
-6.27
-8.97
-11.28
-13.27
-15.18
-17.20
-19.45
-21.97
-24.63
-27.16
-29.16
-30.15
-29.79
-27.96
-24.94
-21.31
-17.71
-14.58
-11.99
-9.69
-7.23
-4.32
-0.87
2.85
6.40
9.40
11.54
12.84
13.51
13.91
14.37
15.11
16.17
17.43
18.63
19.53
19.97
19.91
19.45
18.73
17.94
17.21
16.56
15.93
15.12
13.97
12.42
10.57
8.70
7.10
5.96
5.26
4.78
4.15
3.06
1.31
-1.05
-3.82
-6.73
-9.48
-11.83
-13.70
-15.15
-16.40
-17.71
-19.33
-21.34
-23.61
-25.77
-27.35
-27.92
-27.29
-25.49
-22.81
-19.71
-16.51
-13.43
-10.44
-7.49
-4.54
-1.69
0.89
3.03
4.64
5.81
6.70
7.47
8.20
8.77
8.94
8.40
6.91
4.41
1.08
-2.69
-6.42
-9.72
-12.55
-15.21
-18.19
-21.92
-26.46
-31.46
-36.29
-40.36
-43.32
-45.24
-46.60
-48.18
-51.00
-56.09
-64.09
-74.58
-85.63
-93.80
-94.86
-85.24
-63.41
-30.70
9.06
50.72
89.34
121.27
144.65
159.01
164.76
162.81
154.44
141.44
126.11
111.03
98.57
90.28
86.52
86.36
87.98
89.33
88.92
86.32
82.29
78.26
75.69
75.34
77.02
79.89
82.82
85.02
86.22
86.60
86.52
86.27
85.91
85.63
85.87
87.31
90.63
95.88
102.12
107.51
109.97
108.07
101.79
92.42
81.89
71.49
61.04
48.92
33.06
12.50
-11.81
-37.16
-60.41
-79.63
-95.09
-109.06
-124.64
-144.21
-168.49
-196.20
-224.49
-249.94
-269.41
-281.01
-284.60
-281.78
-275.15
-267.14
-258.84
-249.69
-238.16
-223.04
-204.49
-183.85
-162.63
-141.13
-117.87
-90.35
-56.50
-16.03
29.44
77.23
124.57
169.06
208.44
240.18
261.63
270.94
268.17
255.86
238.33
220.11
204.49
192.73
184.57
179.13
175.76
174.05
173.41
172.52
169.47
162.29
149.90
132.50
111.47
88.70
65.68
43.09
20.77
-1.83
-25.12
-49.18
-73.85
-98.88
-123.96
-148.40
-170.74
-188.76
-199.95
-202.54
-196.50
-183.72
-167.42
-150.84
-136.16
-124.04
-114.08
-105.72
-98.73
-93.23
-89.16
-85.90
-82.25
-77.04
-69.70
-60.75
-51.49
-43.30
-37.09
-32.87
-29.91
-27.23
-24.01
-19.97
-15.41
-10.91
-7.17
-4.70
-3.56
-3.49
-3.98
-4.55
-4.99
-5.34
-5.82
-6.59
-7.64
-8.73
-9.58
-10.05
-10.27
-10.46
-10.91
-11.75
-12.96
-14.43
-16.02
-17.63
-19.24
-20.72
-21.88
-22.43
-22.20
-21.12
-19.31
-16.96
-14.29
-11.42
-8.39
-5.30
-2.27
0.43
2.57
3.96
4.62
4.76
4.72
4.82
5.21
5.76
6.23
6.38
6.12
5.63
5.17
5.06
5.36
5.89
6.31
6.32
5.80
4.86
3.78
2.75
1.85
0.91
-0.33
-2.06
-4.32
-6.98
-9.90
-12.95
-16.11
-19.38
-22.57
-25.31
-27.09
-27.47
-26.33
-23.93
-20.82
-17.61
-14.66
-12.03
-9.50
-6.70
-3.50
0.03
3.55
6.65
9.02
10.51
11.18
11.22
10.88
10.42
10.09
10.13
10.73
11.92
13.56
15.38
16.98
18.05
18.40
18.00
16.98
15.53
13.77
11.83
9.80
7.69
5.53
3.30
0.99
-1.42
-3.98
-6.75
-9.80
-13.18
-16.88
-20.75
-24.45
-27.59
-29.73
-30.54
-29.87
-27.80
-24.61
-20.77
-16.70
-12.73
-8.99
-5.37
-1.73
2.13
6.25
10.46
14.52
18.19
21.27
23.65
25.31
26.27
26.58
26.35
25.74
24.98
24.30
23.83
23.58
23.42
23.20
22.75
22.02
21.01
19.80
18.55
17.34
16.23
15.20
14.11
12.80
11.15
9.14
6.88
4.56
2.36
0.40
-1.37
-3.06
-4.89
-7.01
-9.55
-12.56
-15.87
-19.21
-22.09
-24.00
-24.59
-23.77
-21.77
-19.06
-16.12
-13.28
-10.69
-8.27
-5.90
-3.47
-0.92
1.71
4.34
6.89
9.19
11.07
12.36
12.97
12.99
12.68
12.41
12.52
13.18
14.30
15.62
16.76
17.39
17.41
16.89
16.12
15.44
15.10
15.18
15.54
15.88
15.88
15.30
14.02
12.16
10.05
8.26
7.53
8.52
11.49
16.10
21.24
25.46
27.42
26.44
22.80
17.53
11.85
6.72
2.42
-1.39
-5.22
-9.30
-13.49
-17.24
-20.01
-21.54
-21.98
-21.80
-21.46
-21.17
-20.73
-19.74
-17.85
-14.99
-11.47
-7.87
-4.69
-2.19
-0.27
1.40
3.16
5.21
7.47
9.58
11.18
11.95
11.90
11.30
10.60
10.24
10.53
11.47
12.81
14.25
15.51
16.50
17.34
18.11
18.82
19.30
19.35
18.76
17.60
16.04
14.34
12.75
11.36
10.07
8.71
7.08
5.08
2.78
0.33
-2.00
-4.03
-5.77
-7.39
-9.26
-11.61
-14.46
-17.56
-20.44
-22.69
-24.13
-24.75
-24.53
-23.26
-20.50
-15.87
-9.27
-1.28
7.04
14.46
20.00
23.42
25.11
25.83
26.35
27.07
27.99
28.86
29.38
29.37
28.85
27.84
26.43
24.63
22.51
20.15
17.68
15.33
13.28
11.61
10.35
9.47
8.89
8.54
8.29
8.00
7.56
6.84
5.89
4.78
3.65
2.60
1.59
0.55
-0.65
-2.10
-3.84
-5.86
-8.11
-10.49
-12.90
-15.19
-17.18
-18.74
-19.69
-19.97
-19.48
-18.12
-15.88
-12.84
-9.18
-5.19
-1.22
2.47
5.63
8.14
9.84
10.68
10.66
9.91
8.75
7.60
6.83
6.65
7.03
7.74
8.48
9.01
9.29
9.38
9.39
9.37
9.26
8.94
8.27
7.13
5.62
3.86
2.07
0.45
-0.91
-2.02
-3.01
-4.07
-5.34
-6.89
-8.70
-10.67
-12.71
-14.69
-16.47
-17.86
-18.59
-18.41
-17.23
-15.19
-12.67
-10.10
-7.88
-6.19
-4.98
-4.13
-3.42
-2.77
-2.16
-1.57
-1.01
-0.43
0.25
1.06
1.95
2.89
3.74
4.41
4.89
5.13
5.12
4.78
3.97
2.60
0.69
-1.56
-3.87
-5.92
-7.52
-8.65
-9.54
-10.52
-12.02
-14.27
-17.32
-21.01
-24.94
-28.71
-32.02
-34.78
-37.13
-39.26
-41.30
-43.23
-44.80
-45.70
-45.77
-45.08
-44.02
-43.26
-43.52
-45.49
-49.45
-55.10
-61.37
-66.40
-67.80
-63.31
-51.68
-33.47
-11.22
11.11
29.53
41.30
45.75
44.20
38.99
32.33
25.69
19.75
14.86
11.54
10.44
12.13
16.57
23.15
30.97
39.38
48.26
57.93
68.65
80.20
91.68
101.77
109.29
113.59
114.73
113.37
110.25
106.03
100.92
94.89
87.81
79.79
71.33
63.26
56.47
51.59
48.77
47.61
47.47
47.73
48.12
48.67
49.61
51.11
53.07
55.16
56.96
58.04
57.89
55.76
50.62
41.44
27.61
9.40
-11.79
-33.60
-53.22
-68.14
-76.95
-79.73
-77.90
-73.70
-69.49
-67.09
-67.38
-70.37
-75.35
-81.32
-87.21
-92.02
-94.83
-94.88
-91.70
-85.42
-76.89
-67.54
-59.09
-53.04
-50.05
-49.67
-50.33
-49.98
-47.06
-41.24
-33.56
-25.75
-19.29
-14.65
-11.19
-7.79
-3.69
1.05
5.60
9.01
10.85
11.46
11.75
12.63
14.54
17.30
20.26
22.58
23.64
23.18
21.49
19.28
17.33
16.11
15.39
14.32
11.82
7.13
0.42
-7.12
-13.71
-17.83
-18.89
-17.50
-15.10
-13.18
-12.60
-13.29
-14.65
-16.03
-17.26
-18.59
-20.42
-22.99
-26.24
-29.89
-33.69
-37.42
-40.88
-43.70
-45.34
-45.27
-43.24
-39.57
-35.09
-30.93
-28.20
-27.54
-28.95
-31.67
-34.42
-35.90
-35.30
-32.69
-28.90
-25.08
-21.96
-19.49
-16.98
-13.48
-8.55
-2.34
4.41
10.99
17.03
22.72
28.49
34.57
40.74
46.37
50.67
53.06
53.40
52.03
49.71
47.35
45.81
45.68
47.04
49.42
51.95
53.66
53.94
52.74
50.56
48.15
46.11
44.58
43.31
41.80
39.58
36.36
32.03
26.56
19.90
12.13
3.55
-5.19
-13.12
-19.27
-22.98
-24.10
-23.08
-20.71
-17.88
-15.33
-13.51
-12.54
-12.36
-12.68
-13.15
-13.38
-12.95
-11.60
-9.28
-6.17
-2.67
0.79
3.91
6.76
9.82
13.93
20.17
29.35
41.66
56.27
71.36
84.49
93.37
96.48
93.62
85.83
74.92
62.90
51.38
41.35
33.09
26.19
19.75
12.38
2.70
-10.22
-26.30
-44.15
-61.32
-75.03
-83.07
-84.57
-80.34
-72.53
-63.96
-57.14
-53.57
-53.27
-54.98
-56.71
-56.46
-52.85
-45.46
-34.94
-22.70
-10.40
0.62
9.68
16.76
22.28
26.71
30.39
33.61
36.63
39.85
43.49
47.30
50.40
51.40
49.02
42.84
33.60
23.00
12.87
4.25
-3.00
-9.95
-17.86
-27.54
-38.96
-51.40
-63.84
-75.24
-84.69
-91.45
-94.85
-94.44
-90.17
-82.53
-72.48
-61.27
-50.12
-39.93
-31.18
-23.99
-18.34
-14.07
-11.01
-8.79
-6.81
-4.15
0.24
7.17
16.80
28.40
40.39
50.72
57.57
59.91
57.79
52.27
44.93
37.25
30.22
24.23
19.16
14.73
10.76
7.26
4.36
2.21
0.75
-0.20
-0.92
-1.67
-2.56
-3.54
-4.51
-5.32
-5.96
-6.50
-7.03
-7.68
-8.41
-9.08
-9.48
-9.42
-8.84
-7.85
-6.71
-5.71
-5.04
-4.74
-4.74
-4.90
-5.28
-6.06
-7.47
-9.62
-12.30
-15.02
-17.16
-18.17
-17.86
-16.47
-14.45
-12.35
-10.55
-9.29
-8.66
-8.64
-9.15
-9.90
-10.47
-10.36
-9.22
-7.01
-4.06
-0.95
1.73
3.57
4.52
4.70
4.44
4.09
3.83
3.85
4.18
4.73
5.34
5.74
5.70
5.03
3.72
1.91
-0.09
-1.87
-3.06
-3.44
-3.06
-2.19
-1.25
-0.66
-0.71
-1.47
-2.92
-4.93
-7.32
-9.92
-12.51
-14.84
-16.80
-18.35
-19.60
-20.67
-21.51
-21.79
-21.02
-18.79
-15.05
-10.26
-5.28
-1.04
1.84
3.17
3.30
2.82
2.28
2.03
2.18
2.64
3.29
4.05
4.82
5.53
6.00
6.10
5.74
5.00
4.13
3.42
3.06
3.04
3.19
3.22
2.92
2.26
1.46
0.86
0.76
1.24
2.08
2.89
3.04
2.03
-0.36
-3.88
-7.81
-11.16
-13.09
-13.14
-11.47
-9.12
-7.39
-7.40
-9.48
-13.04
-16.87
-19.72
-20.68
-19.41
-16.79
-14.10
-12.49
-12.24
-12.68
-12.43
-9.85
-3.39
8.09
23.69
41.06
56.81
67.61
71.19
66.86
55.83
41.13
26.78
14.99
5.97
-2.21
-12.35
-27.02
-47.52
-73.35
-102.20
-122.09
-121.71
-94.74
-44.18
19.61
85.25
145.54
197.85
242.21
279.31
308.03
327.09
335.83
335.14
327.48
316.23
304.32
293.40
283.68
273.27
259.51
239.82
215.89
190.41
166.49
146.55
131.72
122.04
115.95
111.56
107.36
102.87
98.20
93.65
89.02
83.39
75.42
63.34
45.87
22.64
-5.59
-37.40
-71.12
-105.33
-139.13
-171.97
-203.48
-233.14
-259.98
-282.83
-300.80
-313.53
-321.51
-325.98
-328.57
-330.94
-334.59
-340.60
-349.28
-359.88
-370.17
-376.92
-376.83
-367.87
-350.28
-326.52
-300.25
-274.72
-251.69
-231.26
-212.54
-194.86
-178.41
-164.10
-152.81
-144.59
-138.43
-132.73
-126.10
-118.03
-109.03
-100.37
-93.37
-88.86
-86.70
-85.76
-83.96
-78.77
-67.82
-49.62
-24.22
6.59
39.57
71.01
97.98
119.20
135.24
147.75
158.15
166.72
172.54
174.24
171.33
164.93
157.64
152.46
151.37
154.21
158.88
162.18
161.37
155.35
145.25
134.34
126.92
126.89
136.48
155.20
179.89
205.48
226.14
236.34
231.77
210.55
174.32
128.95
83.69
48.31
29.23
26.42
33.08
38.95
35.54
20.50
-1.79
-23.46
-38.09
-44.02
-44.08
-42.60
-41.99
-41.87
-40.47
-37.48
-35.42
-38.47
-49.71
-68.91
-91.86
-112.22
-124.35
-125.76
-117.68
-104.06
-89.77
-78.59
-72.38
-70.91
-72.36
-74.22
-74.19
-70.76
-63.58
-53.30
-41.40
-29.82
-20.57
-15.15
-14.11
-16.69
-21.07
-24.97
-26.65
-25.58
-22.42
-18.64
-15.76
-14.77
-15.95
-18.94
-22.94
-26.74
-28.67
-26.98
-20.34
-8.58
6.56
21.71
32.73
36.23
31.20
19.78
6.87
-1.54
-0.71
11.14
32.23
58.07
83.17
102.97
115.14
119.74
118.51
113.65
106.74
98.42
88.73
77.61
65.36
52.52
39.56
26.85
14.60
3.16
-6.65
-13.77
-17.28
-16.92
-13.54
-8.83
-4.68
-2.50
-2.88
-5.68
-10.30
-15.99
-21.99
-27.60
-32.16
-35.27
-36.80
-36.81
-35.46
-33.04
-29.93
-26.73
-24.06
-22.28
-21.30
-20.68
-19.97
-19.05
-18.15
-17.21
-15.46
-11.20
-2.47
11.78
31.00
52.99
74.93
94.77
112.15
128.29
145.09
163.86
184.49
205.35
223.79
237.07
243.05
240.80
230.66
214.16
193.57
171.07
148.42
126.79
106.92
89.34
74.52
62.49
52.46
42.61
30.15
11.95
-14.90
-52.04
-99.04
-152.52
-206.13
-251.67
-281.20
-289.64
-276.40
-245.72
-205.05
-162.40
-123.85
-92.14
-67.15
-47.36
-31.79
-20.94
-16.64
-20.68
-33.25
-52.17
-73.44
-92.77
-107.34
-116.90
-123.02
-127.57
-130.88
-131.00
-124.83
-109.76
-85.27
-53.50
-18.61
14.50
41.49
59.60
68.15
68.55
63.77
57.50
53.09
52.74
57.39
66.80
80.01
95.48
111.00
123.73
130.80
130.01
120.69
104.18
83.15
60.66
39.12
19.88
3.47
-10.11
-20.94
-29.34
-35.92
-41.52
-46.86
-52.10
-56.72
-59.78
-60.42
-58.39
-54.36
-49.61
-45.68
-43.75
-44.35
-47.33
-51.93
-56.98
-61.14
-63.20
-62.46
-58.93
-53.46
-47.41
-42.12
-38.46
-36.51
-35.74
-35.46
-35.17
-34.71
-34.26
-33.96
-33.80
-33.62
-33.25
-32.64
-31.77
-30.37
-27.84
-23.38
-16.31
-6.59
5.06
17.23
28.37
37.34
43.70
47.61
49.54
49.83
48.46
45.25
40.12
33.37
25.83
18.52
12.42
8.07
5.50
4.35
4.03
3.99
3.87
3.47
2.74
1.75
0.74
0.13
0.59
2.80
7.02
12.87
19.10
23.92
25.69
23.71
18.79
13.02
9.17
9.40
14.39
22.97
32.59
40.45
44.54
44.03
38.85
28.99
13.89
-7.19
-34.24
-65.63
-97.92
-126.82
-148.79
-162.26
-168.09
-168.74
-166.75
-163.67
-159.69
-154.20
-146.57
-136.61
-124.48
-110.41
-94.58
-77.31
-59.41
-42.33
-27.84
-17.44
-11.75
-10.12
-10.79
-11.20
-8.43
-0.03
15.04
35.72
58.63
78.82
91.50
93.74
85.62
70.02
51.28
33.56
19.72
11.11
8.11
10.71
18.66
31.19
46.69
62.64
76.13
84.72
87.20
84.02
77.20
69.82
65.01
64.90
69.96
78.84
89.26
99.06
107.34
114.57
121.83
129.52
136.57
140.55
138.93
130.62
116.72
100.20
84.43
71.74
62.46
55.28
48.28
40.03
30.12
19.00
7.44
-3.82
-14.26
-23.47
-31.12
-36.90
-40.63
-42.24
-41.94
-40.21
-38.00
-36.66
-37.68
-42.23
-50.48
-61.33
-72.64
-81.96
-87.52
-88.86
-86.88
-83.44
-80.47
-79.36
-80.55
-83.68
-87.86
-92.05
-95.39
-97.43
-98.26
-98.72
-100.56
-106.18
-117.73
-135.89
-158.74
-181.51
-197.76
-201.41
-188.86
-160.04
-118.36
-69.82
-21.33
20.87
52.69
73.18
84.42
90.57
96.00
103.48
113.25
123.47
131.49
135.57
135.58
132.85
129.08
125.43
122.02
118.20
113.29
107.35
101.46
97.43
97.04
101.12
108.60
116.70
121.95
121.86
116.21
107.28
98.78
93.89
93.70
96.79
100.22
100.99
97.24
88.53
75.31
58.19
37.81
15.46
-6.16
-22.64
-29.19
-22.73
-3.84
22.88
50.36
71.98
84.03
86.44
81.60
72.16
59.49
43.73
24.99
4.67
-14.29
-28.61
-36.25
-37.72
-36.02
-35.22
-38.53
-46.89
-58.55
-69.71
-76.02
-73.84
-61.83
-41.36
-15.91
10.38
34.14
53.53
68.47
79.87
89.34
97.66
104.62
109.67
113.06
116.08
120.43
127.58
137.60
150.37
164.60
178.64
191.14
201.39
208.98
212.91
211.85
204.30
190.85
172.85
152.13
130.49
109.48
90.35
73.72
60.36
42.42
17.79
-10.26
-35.14
-51.58
-58.35
-55.51
-47.30
-37.31
-28.62
-22.64
-21.01
-25.66
-37.22
-55.02
-77.25
-102.22
-128.66
-156.44
-185.21
-215.36
-247.83
-283.65
-323.12
-364.65
-404.38
-435.76
-451.22
-443.85
-410.85
-355.20
-284.98
-210.51
-140.71
-80.82
-32.12
5.84
33.12
48.08
48.80
36.10
15.77
-1.78
-5.52
11.24
46.80
91.11
129.58
149.08
142.72
111.29
61.37
1.81
-58.88
-113.82
-157.62
-186.22
-197.32
-190.95
-169.30
-135.63
-93.05
-44.31
7.25
56.26
95.23
117.21
119.05
103.83
79.49
54.77
34.70
19.10
5.13
-8.71
-20.55
-26.74
-25.87
-21.56
-20.94
-29.65
-46.85
-64.73
-73.38
-67.56
-50.57
-32.26
-21.87
-21.18
-22.47
-13.43
14.44
59.42
109.48
148.48
165.04
158.48
138.39
118.79
110.10
114.24
124.64
131.54
127.69
111.73
87.29
59.12
29.63
-1.73
-35.89
-71.17
-102.69
-124.87
-135.08
-135.45
-131.80
-129.47
-129.74
-129.05
-121.53
-103.88
-78.33
-52.07
-33.40
-27.42
-33.79
-47.70
-63.44
-77.62
-90.90
-107.01
-130.18
-161.89
-199.08
-234.27
-258.52
-265.66
-256.24
-238.50
-225.35
-228.29
-251.33
-288.02
-323.79
-342.69
-334.96
-301.22
-251.28
-198.19
-151.79
-114.94
-84.31
-54.76
-23.90
5.83
28.71
39.53
37.35
26.75
15.71
11.90
18.86
34.54
52.60
65.80
69.34
62.59
48.48
31.37
14.68
-0.39
-14.69
-29.98
-47.46
-66.88
-86.41
-103.29
-114.90
-119.58
-117.08
-108.37
-95.15
-79.10
-61.43
-42.54
-22.36
-0.59
22.95
48.29
75.38
104.28
134.97
167.02
199.03
228.42
251.89
266.49
270.78
265.56
253.64
238.62
223.43
209.21
195.33
180.54
164.34
147.88
133.71
124.58
122.03
125.58
133.03
141.37
147.74
150.00
146.78
137.63
123.09
104.98
86.23
70.33
60.07
56.58
59.09
65.60
74.27
84.33
96.42
112.20
133.61
162.09
197.90
239.45
282.93
322.70
352.54
367.69
366.72
352.09
329.12
303.66
279.85
259.08
240.53
222.78
205.06
187.57
170.57
153.39
134.02
109.90
79.36
42.75
2.70
-36.60
-71.02
-97.94
-117.06
-130.42
-141.57
-154.30
-171.38
-193.52
-218.83
-242.93
-259.87
-263.68
-250.25
-218.89
-173.09
-119.92
-68.21
-26.20
0.69
11.21
8.13
-2.98
-15.61
-23.93
-23.74
-12.44
11.37
48.16
97.35
156.56
221.07
284.24
339.06
380.13
405.35
416.16
416.21
409.34
397.84
382.02
360.92
333.77
300.90
263.87
224.80
185.61
147.44
110.68
75.30
41.11
7.80
-24.98
-57.74
-91.24
-126.55
-164.78
-206.65
-251.52
-296.88
-338.50
-371.57
-392.27
-399.21
-393.93
-380.16
-362.26
-343.66
-326.06
-309.58
-293.45
-276.84
-259.22
-240.38
-220.16
-198.41
-175.12
-150.68
-126.04
-102.56
-81.76
-64.84
-52.45
-44.55
-40.55
-39.53
-40.41
-42.11
-43.61
-44.11
-42.98
-39.98
-35.23
-29.20
-22.55
-16.03
-10.28
-5.77
-2.81
-1.55
-2.02
-4.10
-7.57
-12.12
-17.41
-23.09
-28.81
-34.11
-38.34
-40.75
-40.57
-37.25
-30.82
-21.91
-11.75
-1.89
6.33
12.09
15.20
16.14
15.71
14.67
13.45
12.13
10.54
8.57
6.32
4.27
2.98
2.91
4.14
6.24
8.55
10.30
11.04
10.71
9.60
8.25
7.19
6.77
7.16
8.26
9.81
11.42
12.70
13.41
13.48
12.95
11.96
10.50
8.50
5.77
2.16
-2.34
-7.58
-13.24
-18.89
-23.99
-27.97
-30.26
-30.44
-28.47
-24.79
-20.30
-16.08
-13.05
-11.58
-11.49
-12.15
-12.77
-12.81
-11.98
-10.41
-8.40
-6.25
-4.09
-1.96
0.31
2.93
6.15
10.17
15.03
20.58
26.30
31.39
34.88
35.95
34.17
29.68
23.13
15.42
7.39
-0.36
-7.56
-14.14
-19.98
-24.86
-28.43
-30.38
-30.53
-28.95
-25.89
-21.71
-16.81
-11.50
-6.07
-0.74
4.30
8.93
13.13
16.96
20.44
23.48
25.79
26.97
26.65
24.74
21.44
17.25
12.65
7.90
2.85
-2.83
-9.47
-17.01
-24.94
-32.55
-39.25
-45.01
-50.45
-56.55
-64.19
-73.63
-84.46
-95.88
-107.42
-119.19
-131.79
-145.63
-160.42
-175.00
-188.03
-198.81
-207.45
-214.25
-218.50
-218.16
-210.73
-195.03
-172.66
-148.23
-127.80
-116.59
-116.88
-127.32
-143.69
-160.34
-171.77
-173.48
-162.60
-138.31
-102.05
-57.33
-8.80
38.84
82.24
119.92
152.04
180.01
206.13
233.33
264.41
300.77
340.92
379.78
409.62
422.46
413.53
383.53
338.73
288.58
242.11
204.86
177.96
159.30
145.72
135.02
126.37
119.65
114.38
109.27
102.72
93.75
82.61
70.72
60.22
52.94
49.83
50.76
54.75
60.45
66.66
72.72
78.67
84.97
92.16
100.23
108.23
114.29
116.08
111.43
99.02
78.59
50.82
16.93
-21.56
-62.70
-103.87
-141.75
-172.89
-194.92
-207.87
-214.65
-220.28
-229.65
-244.93
-263.95
-280.51
-287.03
-278.07
-253.02
-216.30
-175.10
-135.58
-100.03
-66.82
-32.86
3.12
38.90
69.96
92.76
107.44
118.00
129.67
145.04
161.99
174.61
176.83
166.12
145.07
119.82
96.73
79.42
67.80
59.33
51.26
42.25
32.63
23.57
16.15
10.60
6.48
3.10
0.06
-2.60
-4.59
-5.78
-6.37
-6.87
-7.80
-9.37
-11.32
-13.03
-13.91
-13.58
-12.02
-9.44
-6.17
-2.56
1.09
4.38
6.98
8.64
9.36
9.44
9.35
9.55
10.20
11.19
12.17
12.86
13.22
13.51
14.07
15.13
16.63
18.22
19.49
20.17
20.19
19.70
18.84
17.64
16.06
14.08
11.81
9.49
7.38
5.55
3.89
2.19
0.31
-1.66
-3.38
-4.45
-4.58
-3.74
-2.11
0.14
2.89
6.17
9.88
13.57
16.40
17.23
15.19
10.12
2.82
-5.22
-12.22
-16.73
-17.76
-14.75
-7.27
5.01
21.93
42.19
63.08
80.90
92.14
94.92
89.88
79.91
68.84
59.88
54.60
52.78
53.33
55.07
57.22
59.03
59.24
55.75
46.14
28.67
3.50
-26.96
-58.56
-86.81
-108.36
-122.20
-129.53
-132.94
-135.07
-137.43
-140.02
-141.83
-141.69
-139.02
-134.15
-127.87
-120.86
-113.32
-105.00
-95.61
-85.29
-74.80
-65.17
-57.36
-51.85
-48.40
-46.20
-43.89
-39.89
-32.75
-21.72
-7.32
8.56
23.09
33.54
38.36
37.88
33.95
29.03
24.94
22.27
20.42
18.49
15.98
13.17
10.90
9.91
10.51
12.58
16.11
21.65
30.60
44.79
65.60
93.05
125.22
158.45
188.33
211.10
224.72
229.34
226.85
220.07
211.98
205.29
202.23
204.32
211.89
223.43
235.39
242.88
241.07
226.93
200.39
164.79
125.73
89.39
60.55
41.36
31.20
27.20
25.65
23.47
19.32
13.75
8.41
4.86
3.51
3.51
3.20
1.11
-3.55
-10.65
-19.42
-28.82
-37.93
-46.14
-53.55
-61.13
-70.62
-83.95
-102.62
-126.78
-154.93
-184.23
-211.41
-233.70
-249.37
-257.73
-258.91
-253.83
-243.95
-231.20
-217.52
-204.12
-191.07
-177.32
-161.51
-143.08
-123.03
-103.94
-88.94
-80.37
-78.73
-82.53
-88.78
-94.19
-96.17
-93.40
-85.94
-75.03
-62.96
-52.61
-46.87
-47.70
-55.28
-67.48
-80.37
-89.43
-91.19
-84.51
-70.89
-53.69
-36.60
-22.29
-11.61
-3.52
4.18
14.03
27.81
45.69
65.73
84.08
96.30
99.27
92.80
79.85
65.09
52.41
43.10
36.01
29.20
21.97
15.53
11.67
11.28
13.66
17.12
20.44
23.64
27.84
33.88
41.18
47.37
48.96
42.31
24.52
-5.62
-46.87
-94.91
-142.77
-182.72
-209.12
-220.81
-221.62
-218.44
-218.00
-224.14
-237.05
-254.36
-273.14
-291.29
-307.68
-321.46
-331.20
-334.39
-328.21
-310.88
-283.04
-248.31
-212.60
-182.05
-160.35
-147.15
-138.32
-128.22
-112.54
-90.09
-62.78
-33.78
-5.37
22.25
50.92
83.01
120.24
162.90
210.22
261.04
313.96
367.08
417.71
462.65
498.96
525.12
541.66
550.82
555.62
558.45
560.36
561.06
559.62
554.98
546.28
532.60
512.67
485.19
449.55
406.61
358.93
310.35
264.66
224.52
190.66
161.78
135.43
109.03
80.97
51.15
20.68
-8.69
-35.35
-58.44
-78.14
-95.59
-112.86
-132.59
-157.45
-188.76
-225.09
-261.76
-291.92
-308.79
-308.30
-290.98
-261.72
-227.65
-195.29
-168.80
-149.57
-137.06
-129.74
-125.50
-121.79
-115.83
-105.50
-90.42
-72.48
-55.11
-41.64
-33.77
-31.33
-32.93
-37.32
-43.97
-52.69
-62.85
-72.83
-80.34
-83.81
-83.36
-80.80
-78.63
-78.85
-82.05
-87.28
-92.92
-97.50
-100.30
-101.48
-101.70
-101.90
-103.11
-106.37
-112.21
-120.29
-129.05
-136.04
-138.84
-136.22
-128.74
-118.61
-108.60
-100.79
-95.88
-93.20
-91.48
-89.71
-87.49
-85.08
-83.06
-82.03
-82.38
-84.35
-87.91
-92.61
-97.65
-101.99
-104.66
-105.09
-103.18
-99.36
-94.46
-89.33
-84.28
-78.73
-71.10
-59.66
-43.70
-24.99
-7.88
1.75
-1.03
-17.62
-44.73
-75.32
-101.24
-116.19
-117.63
-106.68
-86.54
-60.57
-30.92
1.66
37.22
75.58
115.46
154.27
188.49
214.70
230.59
235.75
231.91
222.45
211.28
201.44
194.17
188.70
182.92
174.63
162.69
147.27
129.61
111.17
93.10
76.26
61.67
50.82
45.55
47.18
55.63
68.71
82.51
92.74
96.50
93.66
86.94
80.77
79.19
83.97
93.60
104.02
110.45
109.42
100.24
84.99
67.26
50.38
36.26
25.26
16.93
10.91
7.36
6.56
8.27
11.31
13.85
14.47
13.25
12.18
14.24
21.41
32.75
44.09
49.59
44.60
27.89
2.11
-27.76
-56.89
-82.19
-102.31
-116.36
-123.07
-121.20
-111.28
-96.78
-83.51
-77.14
-80.00
-89.68
-100.15
-105.06
-101.02
-89.07
-73.39
-58.47
-46.76
-37.73
-28.90
-17.74
-3.19
14.03
32.43
50.79
68.62
85.60
100.71
111.44
114.31
106.38
87.19
59.85
30.53
6.65
-5.90
-4.69
8.24
27.47
46.29
59.26
63.93
61.23
54.55
47.92
44.62
46.06
51.62
59.36
66.54
70.33
68.52
60.27
46.46
29.64
13.21
0.19
-7.87
-11.12
-10.59
-7.05
-0.15
11.27
28.13
49.82
73.60
95.24
110.56
117.12
115.26
107.91
98.95
91.41
86.03
80.93
72.59
57.47
33.53
0.88
-38.37
-80.61
-121.38
-155.92
-179.73
-189.56
-184.73
-168.01
-145.56
-125.28
-114.56
-117.73
-134.43
-159.41
-184.10
-199.57
-199.99
-185.07
-160.08
-133.49
-112.89
-101.58
-97.50
-95.08
-88.91
-76.86
-61.07
-46.05
-35.76
-31.43
-31.40
-32.76
-33.54
-33.74
-34.92
-38.79
-45.64
-53.74
-59.82
-60.44
-53.61
-39.76
-21.66
-3.31
11.72
21.67
26.89
29.30
31.04
33.35
36.08
38.10
38.23
36.13
32.55
28.97
26.78
26.57
27.83
29.41
30.30
30.27
29.94
30.25
31.74
34.01
35.90
35.98
33.36
28.09
21.05
13.42
6.45
1.33
-0.76
1.10
6.87
15.05
22.64
26.12
22.99
13.21
-0.58
-14.16
-23.87
-28.43
-29.70
-31.74
-38.91
-53.79
-76.18
-103.16
-130.31
-153.25
-168.79
-175.52
-173.38
-162.89
-144.48
-118.45
-85.77
-49.05
-12.94
16.61
34.27
37.34
26.76
6.86
-16.18
-36.21
-48.40
-49.63
-38.37
-14.44
20.78
64.02
110.31
153.60
188.07
209.49
216.21
209.31
192.40
170.67
149.74
134.10
125.39
121.30
116.06
102.51
75.36
34.10
-16.16
-66.42
-107.52
-133.77
-144.90
-145.31
-141.58
-139.81
-143.85
-154.99
-172.41
-193.81
-215.49
-232.52
-239.85
-233.44
-211.42
-174.59
-126.21
-71.13
-14.87
37.05
80.04
111.48
131.57
143.51
152.13
161.93
175.27
192.09
211.27
232.79
258.76
292.21
334.36
381.95
427.08
459.83
472.46
462.87
435.11
397.09
356.80
319.29
285.84
255.36
226.32
198.24
171.78
147.90
126.85
107.93
90.29
74.27
62.55
60.17
73.16
105.72
157.10
220.04
281.66
327.38
346.06
334.07
296.02
241.85
181.83
122.08
63.34
2.72
-63.02
-134.92
-211.38
-289.32
-365.36
-436.36
-498.79
-548.21
-580.16
-591.92
-584.16
-560.72
-527.19
-488.78
-449.29
-411.68
-379.21
-356.48
-348.33
-357.88
-384.20
-421.16
-458.49
-484.53
-489.97
-470.81
-429.54
-374.01
-314.63
-260.36
-215.58
-179.04
-145.58
-110.24
-72.13
-36.03
-10.20
-2.53
-16.36
-48.37
-89.53
-128.57
-156.18
-167.61
-163.08
-145.56
-118.43
-83.80
-41.85
7.54
63.45
122.58
179.73
229.63
270.15
303.46
335.04
370.94
413.98
461.23
503.61
529.21
528.23
498.30
444.82
377.72
307.27
240.97
182.69
133.98
96.34
71.66
62.81
70.58
89.27
108.16
116.25
109.23
91.22
73.28
57.57
41.06
19.03
-11.37
-49.13
-87.21
-116.12
-128.41
-122.07
-101.20
-72.38
-42.19
-15.48
5.93
23.16
38.92
55.97
75.36
95.05
111.01
117.76
110.44
87.65
52.93
13.84
-20.89
-44.92
-56.99
-60.35
-61.34
-66.90
-81.97
-107.98
-142.61
-180.79
-216.10
-242.68
-256.29
-255.42
-241.30
-217.00
-186.25
-152.36
-118.04
-85.50
-56.47
-31.95
-11.89
4.97
20.99
38.83
60.54
86.95
117.79
152.12
188.52
224.76
257.48
282.69
297.38
301.68
299.81
298.61
304.03
317.55
335.17
349.44
354.08
347.66
334.44
321.61
314.99
315.89
320.94
324.76
323.01
314.37
300.09
282.23
261.76
237.81
208.19
170.76
124.72
71.30
13.40
-45.37
-101.86
-154.30
-202.59
-248.17
-293.21
-339.55
-387.64
-435.90
-480.75
-517.55
-541.91
-551.17
-545.12
-526.03
-497.81
-465.14
-432.44
-403.19
-379.43
-361.37
-347.25
-333.93
-318.01
-297.23
-271.37
-242.24
-212.93
-186.59
-165.73
-151.59
-143.63
-139.04
-132.97
-119.65
-94.56
-56.89
-10.87
35.15
71.74
92.20
95.27
84.97
68.28
51.75
39.34
32.22
30.09
32.33
38.48
47.59
57.63
65.86
70.40
71.77
73.34
79.99
95.37
119.69
149.39
178.85
203.27
220.81
232.79
241.96
250.24
257.04
259.64
254.89
240.75
217.15
185.94
150.57
115.91
87.59
70.64
67.60
76.80
92.09
104.65
106.28
92.52
64.19
26.42
-13.89
-50.70
-80.27
-101.20
-113.36
-117.34
-114.20
-105.59
-93.77
-80.91
-68.76
-58.45
-50.80
-46.27
-45.13
-47.14
-51.33
-56.32
-60.68
-63.53
-64.49
-63.06
-57.83
-46.46
-26.54
2.84
39.41
77.69
110.40
131.26
137.61
131.43
117.91
102.87
89.75
78.02
63.80
42.13
10.13
-30.76
-74.62
-112.97
-138.03
-145.58
-136.02
-113.15
-81.82
-45.44
-5.36
38.06
83.62
128.06
166.44
194.40
210.57
217.38
219.74
222.43
227.51
233.92
238.66
238.78
232.98
221.81
206.71
188.90
168.81
146.07
120.19
91.10
59.18
25.27
-9.96
-46.40
-83.92
-121.53
-156.82
-186.24
-206.59
-216.69
-218.25
-215.40
-212.56
-211.84
-211.75
-208.01
-195.77
-172.29
-137.98
-95.71
-49.37
-2.73
40.52
76.16
99.79
108.08
100.43
79.84
52.07
23.07
-3.16
-25.54
-45.16
-63.37
-80.26
-95.15
-107.93
-120.08
-134.65
-154.32
-179.52
-207.47
-232.66
-249.21
-253.75
-247.65
-236.97
-230.30
-234.73
-252.35
-278.66
-304.12
-318.09
-313.20
-288.05
-246.77
-196.27
-142.83
-90.37
-41.30
1.09
31.24
42.58
31.11
-1.04
-44.74
-86.79
-115.30
-124.92
-118.60
-105.38
-94.73
-91.54
-93.70
-93.90
-84.02
-59.40
-20.58
27.93
80.45
132.69
182.28
228.19
268.91
301.96
324.62
335.09
333.70
323.12
307.81
293.04
283.76
282.91
290.30
302.01
311.07
309.67
291.86
256.13
206.21
149.89
95.84
50.69
17.57
-3.75
-15.33
-19.38
-17.89
-12.69
-5.82
0.43
4.37
5.44
4.25
2.25
0.56
-0.66
-2.32
-5.57
-10.90
-17.24
-22.09
-22.53
-16.27
-2.78
16.30
37.28
55.69
67.75
71.71
68.17
59.14
46.69
31.92
14.91
-4.36
-24.89
-44.22
-59.14
-67.27
-68.07
-63.02
-54.91
-46.48
-39.43
-34.06
-29.63
-25.10
-20.02
-15.01
-11.71
-12.22
-18.24
-30.02
-45.87
-62.66
-77.04
-86.85
-91.78
-92.87
-91.64
-89.03
-85.16
-79.81
-73.14
-66.09
-59.86
-55.08
-51.05
-45.95
-37.63
-25.05
-8.83
8.84
25.08
37.48
44.82
47.16
45.48
41.39
36.63
32.84
31.35
32.89
37.57
45.05
55.02
67.32
81.46
95.82
107.37
112.64
109.61
99.57
86.87
76.74
71.96
71.03
69.02
60.99
45.64
26.36
9.15
-1.60
-6.10
-9.47
-18.55
-37.44
-64.75
-93.94
-116.55
-126.59
-123.32
-111.59
-99.39
-94.65
-102.15
-122.09
-150.29
-179.71
-202.94
-214.59
-212.80
-199.26
-177.97
-153.30
-128.25
-103.67
-78.68
-51.85
-22.48
9.14
42.31
76.58
112.08
148.81
185.28
217.67
240.06
246.64
234.33
204.47
162.23
114.12
65.23
17.78
-27.75
-70.31
-106.22
-129.56
-134.88
-120.80
-91.68
-55.99
-22.24
4.84
25.44
42.47
57.84
70.39
76.94
75.48
67.57
58.08
52.47
52.94
56.83
57.82
49.01
26.39
-9.93
-56.42
-108.24
-160.74
-210.26
-253.75
-288.56
-312.65
-324.87
-325.42
-315.67
-297.83
-274.07
-246.23
-215.57
-182.71
-147.74
-110.47
-70.73
-28.60
15.16
58.91
99.92
134.88
160.51
174.47
176.28
167.26
150.31
128.93
106.34
84.93
66.51
52.90
46.12
47.65
57.19
71.92
86.88
96.78
98.16
90.73
77.35
62.22
49.20
40.47
36.47
36.35
38.52
40.65
39.73
32.70
17.67
-4.58
-30.38
-54.54
-72.93
-84.09
-89.19
-90.46
-89.05
-84.12
-73.70
-56.42
-33.09
-6.62
19.24
41.42
58.37
69.83
76.17
77.89
75.86
71.57
67.29
65.46
67.90
75.21
86.91
101.70
117.63
132.21
142.52
145.91
141.15
129.32
113.69
98.47
86.95
80.43
78.42
79.84
84.02
90.90
100.04
109.65
116.47
116.81
108.20
90.55
66.47
40.80
19.45
7.83
9.23
23.21
44.96
66.11
77.41
72.37
50.11
15.93
-20.79
-50.11
-65.22
-64.23
-50.03
-28.42
-5.65
13.45
26.46
33.10
34.42
31.58
24.89
13.85
-2.30
-23.53
-48.45
-74.54
-99.09
-120.34
-138.06
-153.30
-167.20
-180.02
-190.55
-196.47
-195.15
-184.89
-165.48
-138.03
-104.33
-66.32
-26.06
13.75
49.21
75.73
89.05
87.19
71.68
47.49
21.50
0.19
-12.35
-15.33
-10.94
-3.32
2.72
2.87
-5.72
-23.78
-49.41
-78.46
-105.40
-124.75
-132.61
-127.77
-111.90
-88.86
-63.27
-38.91
-17.58
1.27
19.95
41.18
66.66
96.04
126.77
154.96
176.70
189.34
192.36
187.33
177.23
165.24
153.68
143.10
132.31
119.10
101.48
78.89
52.79
26.31
3.12
-13.84
-23.44
-26.47
-25.22
-22.48
-20.83
-22.20
-27.87
-38.50
-54.04
-73.60
-95.19
-115.93
-132.67
-142.88
-145.40
-140.89
-131.58
-120.44
-110.22
-102.49
-97.20
-93.02
-88.05
-81.04
-72.16
-63.21
-56.93
-55.76
-60.63
-70.45
-82.62
-94.15
-102.93
-108.43
-111.58
-114.02
-117.14
-121.34
-126.07
-130.21
-132.77
-133.44
-132.58
-130.74
-127.98
-123.61
-116.47
-105.70
-91.44
-74.95
-58.17
-42.91
-30.02
-19.27
-9.75
-0.45
9.41
20.56
34.08
51.51
74.19
102.78
136.74
174.50
214.04
253.73
292.72
330.74
367.12
399.66
425.08
440.05
442.33
431.48
408.62
375.86
335.64
289.95
239.42
184.83
128.25
73.41
24.85
-13.66
-40.32
-55.40
-61.60
-64.24
-68.35
-76.56
-88.11
-99.89
-108.54
-112.02
-109.95
-104.39
-100.53
-103.36
-115.50
-136.02
-161.57
-188.33
-213.07
-232.84
-231.82
-198.20
-130.79
-41.82
51.18
135.10
203.99
255.08
293.43
322.44
341.74
350.13
347.30
334.78
315.73
293.38
270.25
248.46
228.53
208.53
185.85
158.50
126.25
90.42
53.13
16.69
-16.54
-45.69
-72.15
-98.49
-127.24
-159.49
-194.68
-231.19
-267.40
-302.14
-335.23
-366.83
-395.75
-418.71
-430.85
-427.96
-409.10
-377.82
-340.53
-303.56
-270.12
-239.74
-210.59
-182.79
-160.06
-147.99
-149.51
-160.43
-169.43
-162.95
-132.87
-82.35
-26.11
15.78
27.23
3.56
-47.23
-109.62
-168.24
-213.68
-243.78
-260.94
-268.12
-266.78
-257.27
-240.87
-221.05
-202.62
-189.32
-181.71
-176.83
-169.90
-156.68
-135.29
-106.29
-71.76
-34.12
4.30
40.84
72.78
98.08
116.32
129.47
141.44
156.66
178.57
208.61
246.03
288.20
330.81
368.28
394.36
403.55
393.24
365.43
327.00
287.69
256.36
237.26
228.37
222.80
212.75
193.76
166.89
137.69
112.66
95.51
85.35
77.87
68.39
55.07
40.06
28.09
23.36
26.93
35.98
45.39
50.59
49.78
44.57
38.71
35.74
37.07
41.41
45.59
46.39
42.17
33.45
22.46
11.81
3.20
-3.19
-8.40
-13.69
-19.73
-26.17
-31.91
-35.82
-37.37
-36.86
-35.09
-32.92
-30.86
-29.11
-27.75
-26.99
-27.23
-28.92
-32.34
-37.29
-43.07
-48.46
-52.14
-52.99
-50.65
-45.66
-39.31
-33.07
-27.84
-23.58
-19.40
-14.22
-7.54
0.16
7.59
13.36
16.68
17.66
17.08
15.88
14.77
14.09
13.93
14.33
15.35
16.91
18.87
20.85
22.55
23.71
24.21
24.02
23.22
21.97
20.58
19.30
18.20
17.01
15.22
12.30
8.07
2.73
-3.32
-9.79
-16.66
-24.10
-32.05
-39.91
-46.51
-50.64
-51.67
-49.92
-46.53
-42.73
-39.21
-35.84
-32.01
-27.26
-21.72
-16.14
-11.22
-7.17
-3.54
0.32
4.44
7.90
9.09
6.70
0.56
-7.99
-16.64
-23.18
-26.47
-26.69
-24.92
-22.57
-20.89
-20.96
-23.85
-30.47
-41.02
-54.27
-67.32
-76.07
-76.62
-66.78
-47.19
-21.37
5.23
26.93
39.70
42.28
36.41
25.88
15.03
7.23
4.04
5.27
9.77
16.38
24.25
32.79
41.19
48.38
53.36
55.85
56.50
56.55
57.07
58.38
59.87
60.49
59.16
55.30
48.87
40.47
31.51
24.13
20.73
23.04
30.99
42.24
53.02
59.77
60.75
56.53
49.09
40.47
31.77
23.17
14.72
7.04
1.22
-1.88
-2.49
-1.92
-1.84
-3.22
-5.79
-8.40
-9.88
-9.89
-8.99
-8.18
-8.32
-9.68
-12.09
-15.11
-18.28
-21.03
-22.74
-22.68
-20.25
-15.31
-8.24
0.08
8.74
17.11
24.96
32.25
38.84
44.25
47.85
49.17
48.27
45.83
42.83
40.15
38.10
36.32
34.05
30.49
25.25
18.48
10.79
3.05
-4.02
-10.08
-15.19
-19.80
-24.35
-29.01
-33.42
-36.81
-38.37
-37.87
-35.85
-33.53
-32.32
-33.02
-35.51
-38.73
-41.28
-42.04
-40.76
-38.08
-35.18
-33.40
-33.63
-36.12
-40.39
-45.40
-49.92
-52.91
-53.92
-53.19
-51.46
-49.44
-47.50
-45.44
-42.78
-39.18
-34.62
-29.31
-23.34
-16.40
-8.02
1.90
12.51
22.18
29.03
32.00
31.40
28.61
24.98
20.87
15.32
6.91
-4.76
-18.17
-29.89
-36.07
-34.25
-24.61
-9.84
6.09
19.69
29.16
34.40
36.27
35.52
32.16
25.40
14.18
-2.35
-24.40
-51.48
-82.49
-115.97
-150.33
-183.95
-215.25
-242.85
-265.40
-281.57
-290.02
-289.66
-280.17
-262.34
-238.00
-209.39
-178.40
-146.29
-113.86
-82.07
-52.13
-25.12
-1.36
20.14
41.47
64.94
92.16
123.63
159.00
197.42
237.68
277.89
314.92
344.52
362.12
364.13
349.15
318.50
276.01
227.24
178.50
135.89
104.26
86.49
82.93
91.45
107.92
127.19
144.30
155.52
159.23
155.99
148.15
138.76
130.07
122.55
114.78
104.34
89.27
69.06
44.86
18.78
-7.00
-30.93
-52.11
-70.09
-84.43
-94.83
-101.21
-103.87
-103.50
-101.04
-97.48
-93.62
-90.00
-86.89
-84.31
-82.09
-79.94
-77.68
-75.30
-72.98
-70.85
-68.86
-66.73
-64.02
-60.47
-56.07
-51.12
-46.05
-41.18
-36.60
-32.25
-28.14
-24.41
-21.36
-19.34
-18.48
-18.51
-18.81
-18.68
-17.62
-15.70
-13.49
-11.79
-11.20
-11.75
-12.94
-14.04
-14.49
-14.15
-13.36
-12.70
-12.68
-13.53
-15.14
-17.17
-19.21
-20.93
-22.15
-22.91
-23.51
-24.36
-25.93
-28.41
-31.65
-35.15
-38.19
-40.12
-40.55
-39.47
-37.28
-34.53
-31.71
-29.03
-26.40
-23.55
-20.25
-16.42
-12.30
-8.32
-5.05
-3.06
-2.70
-4.00
-6.61
-9.90
-13.11
-15.74
-17.74
-19.56
-21.89
-25.28
-29.82
-34.99
-39.92
-43.67
-45.64
-45.74
-44.39
-42.35
-40.53
-39.69
-40.24
-42.10
-44.68
-47.12
-48.48
-48.03
-45.38
-40.43
-33.22
-23.83
-12.15
2.18
19.77
41.22
66.55
94.63
122.87
147.52
164.59
171.04
165.74
149.79
126.09
98.39
70.39
45.01
24.09
8.36
-2.36
-8.86
-12.28
-13.78
-14.44
-15.11
-16.45
-18.82
-22.10
-25.58
-28.24
-29.18
-28.14
-25.72
-23.00
-20.94
-19.76
-18.78
-16.84
-13.03
-7.35
-0.78
4.96
8.30
8.33
5.28
0.28
-5.15
-9.75
-12.79
-13.98
-13.21
-10.12
-4.24
4.68
16.27
29.47
43.06
56.30
69.33
82.75
96.80
110.38
120.79
124.35
117.81
99.83
71.63
36.71
-0.34
-35.26
-64.95
-87.85
-103.41
-111.55
-112.41
-106.64
-96.03
-83.84
-74.45
-72.09
-79.19
-95.17
-116.35
-137.11
-151.74
-156.16
-148.78
-130.42
-103.36
-70.46
-34.35
2.69
38.51
70.91
97.77
117.68
130.72
138.72
144.48
150.26
156.22
159.89
157.69
147.25
129.68
109.68
93.43
85.46
86.36
93.04
101.29
108.73
116.28
126.86
142.41
161.32
178.02
185.44
178.36
155.96
122.00
82.52
42.92
5.91
-28.57
-61.63
-93.66
-123.29
-147.85
-164.75
-173.02
-173.79
-169.68
-163.51
-157.18
-151.27
-145.47
-139.38
-133.22
-127.87
-124.47
-123.66
-125.07
-127.25
-128.27
-126.92
-123.63
-120.84
-122.39
-131.87
-150.87
-177.94
-208.59
-236.57
-255.85
-262.46
-255.47
-236.76
-209.83
-178.51
-145.91
-114.15
-84.73
-58.98
-38.10
-22.90
-13.21
-7.37
-2.46
5.16
19.01
41.73
74.72
117.53
167.08
217.08
258.75
282.96
283.58
260.22
218.81
169.54
122.89
86.07
61.53
48.03
43.23
45.72
55.19
71.12
91.33
111.60
126.99
133.96
131.87
122.98
111.26
100.39
92.28
86.71
81.84
75.70
67.43
57.72
48.48
41.82
38.84
39.11
40.87
41.82
40.23
35.64
29.03
22.23
17.13
14.70
14.77
16.19
17.45
17.45
15.88
13.31
10.72
8.91
8.03
7.53
6.52
4.18
0.09
-5.69
-12.81
-20.65
-28.43
-35.22
-40.12
-42.48
-42.14
-39.42
-34.98
-29.45
-23.06
-15.51
-5.88
7.04
24.30
46.29
72.30
100.49
128.29
153.15
173.29
188.10
197.99
203.93
206.88
207.45
206.09
203.21
199.26
194.38
188.05
178.84
164.98
145.15
119.20
88.25
54.11
18.46
-17.48
-52.53
-84.64
-110.33
-124.88
-123.78
-104.52
-68.23
-20.22
30.99
75.53
104.46
111.46
94.13
54.55
-0.50
-60.23
-111.30
-140.51
-138.31
-102.00
-37.36
42.39
120.48
181.81
217.43
226.53
215.12
192.47
167.12
144.56
126.84
113.84
104.82
99.17
96.28
95.19
94.12
91.10
85.02
76.40
67.44
61.15
60.14
65.25
75.21
87.06
97.32
103.29
103.80
99.28
91.09
80.44
67.70
52.19
32.59
7.81
-22.28
-56.61
-93.29
-130.25
-166.03
-200.09
-232.77
-264.96
-297.64
-331.63
-367.23
-403.76
-439.03
-469.27
-489.80
-496.48
-487.49
-464.44
-431.93
-395.82
-360.81
-329.03
-300.06
-272.58
-246.30
-222.76
-204.52
-193.31
-188.76
-188.40
-189.30
-189.88
-190.33
-191.49
-192.83
-191.56
-183.61
-166.12
-139.89
-110.02
-83.89
-67.62
-63.12
-67.29
-73.77
-76.19
-70.56
-55.82
-32.62
-2.02
34.79
75.45
115.43
148.53
169.38
176.72
174.83
171.71
174.51
184.87
197.16
201.44
189.42
159.84
119.84
81.51
55.90
47.77
54.34
68.07
81.24
89.58
92.88
93.37
93.00
91.74
87.98
79.94
67.18
51.34
35.58
23.10
15.80
13.61
14.71
16.47
16.57
13.92
8.98
3.42
-0.74
-2.09
-0.44
3.12
6.76
8.72
8.09
5.05
0.63
-3.99
-7.91
-10.84
-12.96
-14.58
-15.97
-17.20
-18.21
-18.98
-19.39
-19.28
-18.43
-16.76
-14.37
-11.60
-8.91
-6.58
-4.54
-2.48
-0.12
2.48
4.86
6.36
6.55
5.58
4.11
2.95
2.71
3.42
4.68
5.98
7.02
7.84
8.66
9.63
10.69
11.53
11.81
11.35
10.21
8.61
6.79
4.95
3.14
1.41
-0.19
-1.70
-3.19
-4.94
-7.28
-10.37
-14.03
-17.69
-20.50
-21.68
-20.77
-17.81
-13.32
-8.10
-2.92
1.73
5.66
8.97
11.82
14.30
16.19
17.01
16.31
13.92
10.42
7.03
5.29
6.34
10.29
16.15
22.18
26.75
29.02
29.04
27.42
24.76
21.28
17.02
12.05
6.66
1.28
-3.81
-8.71
-13.62
-18.51
-22.78
-25.43
-25.63
-23.30
-19.38
-15.44
-12.95
-12.68
-14.50
-17.65
-21.24
-24.55
-27.18
-28.74
-28.80
-26.99
-23.13
-17.56
-11.13
-5.00
-0.22
2.70
4.08
4.86
6.12
8.57
12.10
15.95
19.19
21.28
22.39
23.25
24.59
26.60
28.79
30.27
30.36
28.95
26.58
24.00
21.61
19.31
16.67
13.35
9.51
5.86
3.27
2.32
2.92
4.26
5.27
4.96
2.94
-0.67
-5.34
-10.58
-15.99
-21.29
-26.12
-29.83
-31.61
-30.81
-27.32
-21.82
-15.56
-9.79
-5.14
-1.43
2.21
6.67
12.24
18.41
24.09
28.16
30.05
29.98
28.67
26.97
25.40
24.08
22.85
21.54
20.16
18.90
18.04
17.75
17.90
18.15
18.04
17.18
15.53
13.36
11.18
9.42
8.23
7.41
6.55
5.23
3.27
0.70
-2.35
-5.70
-9.20
-12.58
-15.40
-17.15
-17.27
-15.59
-12.26
-7.82
-2.94
1.84
6.21
10.11
13.65
17.05
20.45
23.96
27.54
30.99
34.05
36.49
38.18
39.20
39.81
40.35
41.06
42.05
43.23
44.47
45.70
46.92
48.08
48.83
48.55
46.37
41.70
34.46
25.44
15.98
7.55
1.30
-2.21
-2.92
-1.22
2.06
5.54
7.30
5.12
-2.69
-16.55
-35.14
-55.63
-74.54
-88.86
-96.97
-98.76
-95.40
-88.59
-79.97
-70.70
-61.43
-52.47
-43.96
-36.09
-29.01
-22.76
-17.13
-11.67
-6.08
-0.36
4.97
9.06
11.17
11.14
9.55
7.51
6.18
6.36
8.29
11.58
15.51
19.24
22.12
23.88
24.73
25.25
26.06
27.44
29.10
30.14
29.43
26.20
20.47
13.15
5.73
-0.26
-3.64
-3.84
-0.84
4.91
12.55
20.86
28.31
33.29
34.51
31.38
24.10
13.61
1.24
-11.56
-23.49
-33.45
-40.53
-44.02
-43.59
-39.48
-32.64
-24.50
-16.67
-10.43
-6.35
-4.15
-3.00
-1.85
0.11
3.09
6.82
10.65
13.90
16.08
17.04
16.87
15.80
14.19
12.44
10.91
9.91
9.48
9.50
9.74
10.02
10.35
10.91
11.80
12.79
13.36
12.80
10.69
7.21
3.21
-0.11
-1.76
-1.50
0.02
1.57
1.96
0.53
-2.55
-6.52
-10.54
-13.95
-16.54
-18.32
-19.26
-19.23
-17.97
-15.41
-11.86
-7.89
-4.15
-1.11
1.19
3.04
4.80
6.67
8.53
10.02
10.87
11.05
10.94
11.06
11.82
13.29
15.15
16.81
17.78
17.80
17.01
15.73
14.32
13.01
11.72
10.31
8.61
6.61
4.45
2.37
0.57
-0.90
-2.23
-3.72
-5.61
-7.94
-10.47
-12.82
-14.79
-16.43
-18.20
-20.65
-24.20
-28.76
-33.67
-37.92
-40.51
-40.82
-38.83
-35.07
-30.25
-25.21
-20.49
-16.43
-13.24
-10.92
-9.36
-8.16
-6.73
-4.42
-0.90
3.62
8.39
12.37
14.82
15.61
15.37
15.13
15.83
17.69
20.18
22.16
22.43
20.38
16.21
10.86
5.58
1.36
-1.52
-3.56
-5.88
-9.80
-16.19
-25.05
-35.38
-45.39
-53.16
-57.43
-58.14
-56.82
-56.18
-59.25
-68.23
-83.18
-101.33
-117.34
-124.47
-116.59
-90.17
-45.97
10.80
71.41
125.84
165.54
185.70
186.23
171.01
145.89
116.09
84.34
50.46
12.46
-30.98
-78.24
-123.92
-160.18
-179.48
-177.73
-156.07
-120.03
-77.30
-34.55
4.77
40.89
76.31
113.63
153.53
194.00
230.88
259.19
274.75
275.33
260.99
233.84
197.08
153.80
106.43
56.95
7.53
-39.28
-81.10
-116.70
-146.35
-171.01
-190.90
-204.41
-208.54
-200.78
-180.92
-151.78
-118.15
-84.58
-54.03
-27.63
-5.73
11.29
22.97
29.91
34.36
39.71
48.85
62.19
77.26
89.78
95.56
92.16
79.42
59.03
33.66
6.46
-19.38
-40.96
-56.28
-64.73
-67.39
-66.63
-65.45
-66.60
-72.02
-82.40
-96.91
-113.36
-128.56
-139.34
-143.64
-141.33
-134.23
-125.30
-117.22
-111.39
-107.54
-104.20
-99.41
-91.51
-79.57
-63.46
-43.70
-21.60
0.84
21.16
36.94
46.58
49.87
48.22
44.05
39.79
37.10
36.33
36.70
37.22
37.40
37.72
39.24
42.80
48.29
54.60
60.32
64.55
67.65
70.91
75.63
82.09
89.20
94.96
97.73
97.37
95.34
93.86
94.72
98.30
103.57
108.95
113.12
115.38
115.36
112.31
104.96
91.91
73.00
50.21
27.61
10.00
0.64
-0.46
3.32
6.64
4.57
-5.37
-22.33
-43.22
-64.43
-83.54
-99.97
-114.38
-127.50
-138.93
-147.10
-149.97
-146.08
-135.52
-119.95
-102.00
-84.35
-68.82
-55.99
-45.41
-36.02
-26.60
-16.20
-4.27
9.30
24.41
41.10
59.99
82.14
108.62
139.61
173.68
207.53
236.68
256.64
264.24
258.36
239.98
211.63
176.78
139.22
102.90
71.58
48.25
34.35
29.13
29.61
31.23
29.37
20.83
5.04
-15.85
-38.08
-57.72
-72.22
-80.84
-84.30
-83.78
-80.23
-74.18
-66.31
-57.94
-50.89
-46.76
-45.87
-46.85
-47.27
-45.05
-40.11
-34.80
-33.12
-38.58
-52.44
-72.86
-95.80
-116.97
-133.69
-145.29
-152.06
-153.74
-148.71
-134.88
-111.41
-80.32
-46.37
-15.30
8.70
24.82
35.46
44.47
54.83
67.31
80.58
92.59
101.95
108.43
112.50
114.51
114.15
110.80
104.12
94.72
84.05
73.88
65.49
59.06
53.82
48.51
42.09
34.09
24.55
13.80
2.15
-10.12
-22.61
-34.64
-45.32
-53.73
-59.32
-61.92
-61.70
-58.81
-53.25
-44.90
-33.97
-21.26
-8.31
2.95
10.96
15.04
15.78
14.64
13.28
13.03
14.43
17.49
21.85
27.14
32.90
38.33
42.15
42.69
38.39
28.41
13.14
-5.59
-24.97
-41.85
-53.74
-59.46
-59.43
-55.37
-49.45
-43.60
-38.80
-35.15
-32.12
-29.20
-26.25
-23.58
-21.59
-20.60
-20.59
-21.31
-22.48
-23.99
-25.95
-28.64
-32.21
-36.50
-40.96
-44.71
-46.80
-46.60
-43.92
-39.16
-33.05
-26.35
-19.57
-12.88
-6.29
0.04
5.71
10.17
12.91
13.75
12.91
10.94
8.44
6.03
4.19
3.23
3.15
3.67
4.25
4.28
3.39
1.55
-0.82
-2.93
-3.97
-3.24
-0.41
4.43
10.66
17.27
23.04
26.95
28.46
27.65
25.08
21.44
17.19
12.45
6.96
0.43
-7.19
-15.58
-24.04
-31.70
-37.59
-41.04
-41.75
-39.90
-36.14
-31.38
-26.56
-22.37
-19.13
-16.61
-14.30
-11.58
-8.06
-3.76
1.01
5.80
10.31
14.47
18.41
22.20
25.65
28.39
29.91
30.02
28.94
27.31
25.74
24.68
24.07
23.50
22.57
21.09
19.13
16.94
14.77
12.78
10.99
9.35
7.86
6.50
5.19
3.74
1.88
-0.67
-4.06
-8.36
-13.54
-19.59
-26.46
-34.00
-41.84
-49.30
-55.46
-59.36
-60.32
-58.16
-53.32
-46.59
-38.99
-31.42
-24.40
-18.11
-12.42
-7.03
-1.67
3.78
9.28
14.53
19.16
22.87
25.53
27.21
28.08
28.31
27.93
27.00
25.71
24.48
23.90
24.45
26.23
28.86
31.54
33.46
34.12
33.45
31.77
29.46
26.75
23.67
20.20
16.41
12.66
9.37
6.96
5.51
4.85
4.50
4.02
3.12
1.77
0.12
-1.65
-3.44
-5.37
-7.61
-10.44
-14.05
-18.50
-23.69
-29.36
-34.96
-39.79
-42.98
-43.75
-41.69
-36.86
-29.98
-22.09
-14.36
-7.61
-2.22
1.80
4.77
7.07
9.10
11.15
13.44
16.09
19.06
22.22
25.29
27.90
29.78
30.76
30.86
30.26
29.21
27.98
26.74
25.61
24.61
23.82
23.30
23.09
23.17
23.40
23.59
23.61
23.45
23.22
23.06
22.99
22.83
22.24
20.93
18.85
16.23
13.53
11.18
9.39
8.09
6.96
5.66
3.98
1.95
-0.23
-2.33
-4.28
-6.18
-8.22
-10.54
-13.13
-15.87
-18.60
-21.28
-24.10
-27.36
-31.27
-35.70
-39.99
-43.15
-44.15
-42.41
-37.98
-31.66
-24.51
-17.58
-11.51
-6.48
-2.35
1.15
4.21
6.93
9.38
11.69
14.01
16.42
18.87
21.19
23.12
24.43
25.03
25.06
24.80
24.52
24.39
24.36
24.20
23.62
22.44
20.71
18.66
16.60
14.82
13.43
12.35
11.45
10.60
9.75
8.96
8.31
7.82
7.39
6.90
6.13
4.95
3.26
1.12
-1.32
-3.76
-5.94
-7.62
-8.80
-9.66
-10.53
-11.79
-13.64
-16.12
-19.13
-22.45
-25.81
-28.88
-31.08
-31.79
-30.52
-27.12
-22.03
-16.15
-10.57
-6.14
-3.17
-1.46
-0.44
0.42
1.55
3.05
4.85
6.82
8.79
10.58
12.05
13.09
13.65
13.74
13.41
12.73
11.78
10.48
8.76
6.54
3.89
1.08
-1.38
-3.03
-3.67
-3.60
-3.49
-4.12
-5.93
-8.76
-11.93
-14.65
-16.46
-17.46
-18.18
-19.20
-20.75
-22.63
-24.40
-25.70
-26.58
-27.38
-28.68
-30.90
-34.23
-38.61
-43.85
-49.73
-55.82
-61.29
-64.75
-64.47
-59.02
-48.10
-33.01
-16.49
-1.73
8.79
14.26
15.67
15.04
14.29
14.37
15.06
15.63
15.61
15.38
15.97
18.33
22.55
27.59
31.56
32.72
30.35
25.07
18.59
12.83
9.01
7.31
6.98
6.93
6.38
5.15
3.54
2.04
0.94
0.21
-0.39
-1.01
-1.62
-1.94
-1.64
-0.57
1.15
3.05
4.57
5.19
4.70
3.26
1.36
-0.22
-0.80
0.14
2.56
5.92
9.38
12.23
14.26
15.92
18.06
21.27
25.45
29.60
32.27
32.31
29.43
24.48
18.98
14.51
12.04
11.81
13.41
16.23
19.80
23.75
27.74
31.19
33.22
32.83
29.40
23.09
15.01
6.99
0.79
-2.54
-3.13
-2.07
-0.75
-0.12
-0.24
-0.45
0.14
1.96
4.77
7.71
9.80
10.42
9.41
7.08
3.86
0.08
-4.05
-8.37
-12.69
-16.78
-20.42
-23.66
-26.65
-29.66
-32.83
-36.16
-39.55
-42.89
-46.13
-49.24
-52.06
-54.21
-55.16
-54.44
-52.05
-48.33
-43.85
-39.10
-34.22
-29.08
-23.43
-17.24
-10.78
-4.53
1.05
5.70
9.38
12.19
14.15
15.15
15.08
13.96
12.08
10.01
8.46
8.16
9.61
13.01
18.11
24.12
29.85
33.95
35.27
33.23
27.99
20.62
12.62
5.64
0.92
-1.04
-0.57
1.25
3.04
3.52
1.91
-1.91
-7.47
-13.88
-20.18
-25.49
-29.12
-30.69
-30.15
-27.84
-24.44
-20.77
-17.54
-15.08
-13.32
-11.83
-10.15
-8.04
-5.53
-2.88
-0.41
1.67
3.32
4.65
5.81
6.90
7.90
8.75
9.42
9.93
10.40
10.91
11.48
12.00
12.20
11.81
10.63
8.73
6.33
3.79
1.47
-0.47
-2.05
-3.42
-4.89
-6.78
-9.39
-12.89
-17.29
-22.38
-27.82
-33.10
-37.72
-41.09
-42.67
-42.02
-38.95
-33.68
-26.95
-19.84
-13.46
-8.51
-5.08
-2.68
-0.58
1.80
4.67
7.76
10.61
12.85
14.35
15.26
15.90
16.53
17.27
18.07
18.89
19.72
20.68
21.93
23.51
25.22
26.59
27.08
26.35
24.45
21.83
19.09
16.76
15.05
13.86
12.85
11.61
9.80
7.27
4.13
0.66
-2.67
-5.45
-7.45
-8.77
-9.88
-11.40
-13.87
-17.53
-22.31
-27.87
-33.63
-38.88
-42.81
-44.57
-43.62
-39.85
-33.77
-26.38
-18.91
-12.37
-7.30
-3.69
-1.05
1.19
3.49
6.05
8.76
11.41
13.81
15.80
17.44
18.83
20.10
21.30
22.46
23.50
24.41
25.24
26.14
27.30
28.82
30.58
32.26
33.43
33.68
32.89
31.33
29.49
27.86
26.74
26.01
25.29
24.16
22.30
19.76
16.79
13.71
10.76
7.93
5.11
2.16
-0.92
-4.06
-7.14
-10.12
-13.13
-16.37
-19.97
-24.02
-28.50
-33.33
-38.37
-43.43
-48.04
-51.55
-53.09
-51.90
-47.65
-40.70
-32.03
-22.97
-14.70
-7.92
-2.63
1.61
5.45
9.39
13.60
18.01
22.38
26.52
30.29
33.54
36.13
37.86
38.65
38.58
37.95
37.15
36.52
36.21
36.12
36.05
35.81
35.35
34.70
33.94
33.03
31.84
30.26
28.18
25.70
23.06
20.55
18.44
16.88
15.84
15.10
14.40
13.50
12.25
10.69
8.98
7.33
5.93
4.79
3.71
2.37
0.51
-1.94
-4.71
-7.45
-9.70
-11.29
-12.40
-13.50
-15.16
-17.78
-21.41
-25.77
-30.34
-34.44
-37.43
-38.73
-37.95
-35.02
-30.30
-24.49
-18.42
-12.70
-7.50
-2.57
2.49
7.82
13.12
17.78
21.20
23.23
24.35
25.54
27.94
32.36
38.88
46.58
53.76
58.33
58.68
54.68
48.48
44.36
47.83
63.57
93.49
135.35
182.95
227.77
261.53
278.31
275.87
255.64
221.89
180.85
139.77
105.97
85.54
81.56
92.82
113.57
134.98
147.99
146.42
128.70
97.79
59.39
19.40
-17.99
-51.09
-80.36
-107.47
-134.44
-162.95
-194.02
-227.64
-262.86
-297.86
-330.42
-358.56
-381.10
-398.07
-410.99
-422.78
-437.06
-456.87
-482.82
-511.72
-536.71
-549.19
-542.11
-513.03
-465.35
-407.06
-347.66
-294.78
-252.37
-220.81
-198.52
-183.88
-176.06
-174.72
-179.11
-187.37
-196.77
-204.45
-208.46
-208.12
-204.04
-197.32
-188.89
-179.07
-167.57
-153.84
-137.61
-119.32
-100.08
-81.53
-65.12
-51.74
-41.48
-33.68
-27.25
-21.13
-14.67
-7.72
-0.62
6.10
11.97
16.76
20.56
23.78
27.02
30.86
35.76
41.94
49.38
57.85
67.14
77.21
88.24
100.66
114.96
131.52
150.29
170.80
192.19
213.44
233.75
252.71
270.40
287.33
304.33
322.50
342.97
366.49
392.85
420.26
445.37
464.01
472.52
469.17
454.79
432.47
406.25
379.53
354.20
330.81
309.51
290.90
276.00
265.55
258.94
254.05
247.98
238.30
224.00
205.50
183.92
160.31
135.49
110.38
86.48
65.76
49.87
39.19
32.43
27.11
20.76
11.96
0.71
-11.98
-24.77
-36.61
-46.80
-54.94
-60.79
-64.35
-65.89
-65.87
-64.80
-63.00
-60.60
-57.51
-53.56
-48.63
-42.68
-35.94
-28.95
-22.51
-17.40
-13.99
-11.97
-10.33
-7.82
-3.45
2.92
10.56
18.21
24.71
29.39
32.23
33.57
33.72
32.78
30.63
27.04
21.70
14.19
3.94
-9.57
-26.41
-45.82
-66.07
-84.86
-100.06
-110.35
-115.67
-117.09
-116.28
-114.83
-113.77
-113.24
-112.66
-111.13
-107.98
-103.06
-96.77
-89.77
-82.48
-74.86
-66.55
-57.26
-47.12
-36.76
-26.92
-17.92
-9.45
-0.71
9.12
20.45
33.19
47.03
61.80
77.55
94.31
111.68
128.47
142.78
152.57
156.25
153.25
144.25
130.83
114.97
98.56
83.18
70.00
59.88
53.06
48.97
46.15
42.51
36.06
25.62
11.27
-5.84
-24.06
-41.97
-58.63
-73.45
-85.83
-95.04
-100.59
-102.53
-101.71
-99.53
-97.31
-95.70
-94.50
-92.98
-90.41
-86.37
-80.88
-74.22
-66.66
-58.45
-49.84
-41.14
-32.60
-24.23
-15.76
-6.81
2.77
12.64
21.91
29.40
34.03
35.28
33.29
28.81
22.90
16.59
10.82
6.26
3.25
1.81
1.56
1.93
2.38
2.71
3.16
4.26
6.32
9.17
12.08
13.97
14.07
12.25
9.19
5.91
3.30
1.58
0.34
-1.10
-3.31
-6.33
-9.79
-13.10
-15.95
-18.29
-20.45
-22.77
-25.43
-28.43
-31.64
-34.91
-38.18
-41.39
-44.35
-46.73
-48.08
-47.88
-45.90
-42.22
-37.22
-31.54
-25.75
-20.17
-14.88
-9.83
-4.89
-0.05
4.55
8.74
12.32
15.22
17.44
19.05
20.15
20.86
21.30
21.64
22.07
22.69
23.50
24.40
25.21
25.79
26.10
26.16
25.97
25.52
24.76
23.66
22.25
20.64
18.98
17.35
15.74
14.12
12.51
10.93
9.47
8.14
6.73
4.94
2.46
-0.89
-4.99
-9.46
-13.79
-17.60
-20.77
-23.56
-26.38
-29.70
-33.72
-38.22
-42.63
-46.10
-47.81
-47.27
-44.49
-39.97
-34.42
-28.63
-23.15
-18.32
-14.20
-10.72
-7.69
-4.92
-2.20
0.58
3.40
6.07
8.26
9.64
10.12
9.95
9.64
9.75
10.64
12.31
14.40
16.38
17.88
18.84
19.53
20.39
21.65
23.20
24.56
25.22
24.85
23.51
21.56
19.32
16.98
14.47
11.71
8.77
5.94
3.58
1.85
0.56
-0.76
-2.63
-5.30
-8.62
-12.16
-15.32
-17.63
-18.83
-18.87
-17.92
-16.26
-14.17
-11.81
-9.16
-6.08
-2.51
1.41
5.36
8.95
11.85
13.96
15.27
15.83
15.52
14.14
11.64
8.24
4.54
1.25
-1.11
-2.55
-3.56
-4.83
-6.88
-9.73
-13.05
-16.27
-18.98
-21.15
-23.07
-25.28
-28.28
-32.32
-37.28
-42.69
-47.87
-52.24
-55.61
-58.36
-61.33
-65.45
-71.20
-78.12
-84.78
-89.00
-88.31
-80.50
-64.13
-39.02
-6.64
29.79
65.77
96.55
118.65
131.07
135.50
135.49
134.75
135.57
137.92
139.68
137.82
129.79
114.57
92.88
66.95
39.50
13.16
-10.07
-28.81
-42.16
-49.51
-50.61
-45.96
-37.01
-26.18
-16.27
-9.45
-6.45
-6.22
-6.39
-4.47
1.19
10.74
22.83
35.09
44.84
49.77
48.56
41.13
28.70
13.32
-2.59
-16.89
-28.14
-35.76
-39.90
-41.27
-40.85
-39.76
-38.99
-39.20
-40.50
-42.34
-43.64
-43.20
-40.20
-34.57
-27.03
-18.81
-11.11
-4.84
-0.28
2.83
5.02
6.85
8.66
10.52
12.26
13.59
14.23
14.06
13.10
11.59
9.91
8.55
7.89
8.09
9.00
10.12
10.86
10.78
9.87
8.50
7.28
6.74
7.03
7.77
8.37
8.34
7.50
6.12
4.61
3.25
2.01
0.51
-1.66
-4.73
-8.55
-12.68
-16.64
-20.14
-23.17
-25.92
-28.57
-31.05
-33.06
-34.13
-33.90
-32.36
-29.86
-26.92
-24.01
-21.39
-19.00
-16.65
-14.17
-11.60
-9.15
-7.20
-6.07
-5.90
-6.55
-7.66
-8.82
-9.83
-10.85
-12.41
-15.17
-19.60
-25.53
-32.09
-37.87
-41.55
-42.47
-40.97
-38.22
-35.59
-33.89
-33.00
-31.85
-28.99
-23.36
-14.73
-3.83
8.01
19.46
29.57
37.88
44.29
48.85
51.59
52.59
52.03
50.41
48.39
46.77
46.12
46.67
48.08
49.72
50.80
50.72
49.19
46.32
42.44
38.00
33.42
29.02
24.99
21.42
18.26
15.40
12.76
10.27
8.00
6.02
4.39
3.06
1.93
0.81
-0.44
-1.92
-3.66
-5.55
-7.40
-8.95
-9.98
-10.38
-10.31
-10.13
-10.19
-10.74
-11.75
-12.99
-14.24
-15.36
-16.39
-17.47
-18.80
-20.58
-22.99
-26.12
-29.88
-33.91
-37.60
-40.21
-41.15
-40.23
-37.62
-33.86
-29.52
-25.11
-20.94
-17.17
-13.81
-10.77
-7.88
-4.92
-1.80
1.45
4.64
7.43
9.53
10.82
11.40
11.50
11.39
11.22
11.04
10.77
10.39
9.96
9.63
9.49
9.53
9.71
9.97
10.42
11.27
12.76
15.00
18.00
21.70
26.01
30.90
36.24
41.68
46.60
50.21
51.84
51.28
48.97
45.71
42.44
39.87
38.11
36.83
35.27
32.61
28.17
21.66
13.27
3.48
-7.02
-17.45
-27.07
-35.26
-41.57
-45.95
-48.63
-50.16
-51.23
-52.43
-54.05
-56.07
-58.26
-60.26
-61.78
-62.58
-62.54
-61.60
-59.82
-57.44
-54.77
-52.21
-50.16
-48.95
-48.79
-49.64
-50.99
-51.82
-50.71
-46.30
-37.91
-26.06
-12.52
0.12
9.41
14.00
14.21
11.83
9.52
9.54
12.83
18.68
25.25
30.70
34.38
37.22
41.05
47.28
55.87
65.14
72.85
77.58
79.54
80.21
80.99
81.90
81.32
77.13
68.28
55.67
41.64
28.34
16.05
2.83
-14.38
-37.70
-66.72
-97.96
-126.29
-147.11
-158.18
-160.35
-156.53
-149.55
-140.28
-127.04
-106.57
-76.41
-37.07
7.17
49.51
83.23
104.33
112.74
111.64
105.44
97.64
89.79
81.70
72.60
62.13
50.73
39.26
28.28
17.61
6.46
-6.07
-20.32
-35.64
-50.39
-62.41
-69.62
-70.79
-66.08
-57.06
-46.24
-36.27
-28.96
-24.77
-22.86
-21.76
-20.30
-18.31
-16.60
-16.32
-18.12
-21.53
-25.11
-27.18
-26.77
-24.02
-20.09
-16.37
-13.68
-11.81
-9.77
-6.38
-1.01
6.16
14.16
21.59
27.19
30.21
30.50
28.59
25.51
22.45
20.44
19.98
20.86
22.31
23.28
22.89
20.75
17.01
12.20
7.01
2.13
-1.91
-4.79
-6.44
-7.14
-7.32
-7.34
-7.25
-6.69
-5.04
-1.87
2.77
8.25
13.62
18.06
21.28
23.50
25.18
26.56
27.37
26.95
24.66
20.49
15.11
9.74
5.42
2.61
1.14
0.62
1.03
2.97
7.33
14.48
23.69
33.01
39.97
42.64
40.37
33.85
24.66
14.58
5.20
-2.06
-6.09
-6.13
-2.26
4.32
11.51
16.98
19.07
17.36
12.73
6.81
1.28
-2.60
-4.20
-3.45
-0.69
3.39
7.88
11.78
14.21
14.74
13.48
10.99
8.12
5.64
4.04
3.38
3.37
3.52
3.36
2.68
1.57
0.28
-0.95
-2.20
-3.80
-6.16
-9.50
-13.68
-18.30
-22.93
-27.42
-31.85
-36.28
-40.39
-43.36
-44.10
-41.84
-36.65
-29.45
-21.67
-14.53
-8.65
-3.87
0.30
4.25
7.95
11.13
13.50
15.02
15.95
16.60
17.05
17.13
16.53
15.13
13.12
10.93
9.01
7.57
6.63
6.10
6.03
6.60
7.93
9.88
11.96
13.47
13.94
13.31
12.02
10.63
9.44
8.23
6.45
3.52
-0.77
-6.18
-12.16
-18.15
-23.75
-28.72
-32.89
-36.04
-38.01
-38.73
-38.27
-36.96
-35.37
-34.24
-34.43
-36.67
-41.21
-47.72
-55.10
-61.81
-66.41
-67.99
-66.46
-62.34
-56.25
-48.66
-39.76
-29.73
-19.10
-8.75
0.44
7.97
13.98
19.13
24.00
28.73
32.97
36.14
37.86
38.28
37.86
37.02
35.83
34.10
31.67
28.77
25.95
23.84
22.70
22.21
21.63
20.25
17.70
14.15
10.11
6.10
2.49
-0.67
-3.47
-5.94
-8.09
-9.83
-11.04
-11.68
-11.80
-11.51
-10.90
-10.14
-9.33
-8.56
-7.97
-7.69
-7.83
-8.39
-9.26
-10.17
-10.83
-10.93
-10.31
-8.96
-7.08
-4.92
-2.71
-0.53
1.66
4.00
6.53
9.19
11.79
14.13
16.12
17.82
19.42
21.12
23.10
25.40
27.94
30.47
32.60
33.84
33.70
31.97
28.84
24.92
21.08
18.18
16.70
16.70
17.79
19.29
20.44
20.59
19.29
16.30
11.57
5.15
-2.79
-11.92
-21.59
-30.85
-38.62
-44.01
-46.56
-46.37
-44.00
-40.19
-35.66
-30.85
-25.99
-21.11
-16.12
-10.87
-5.18
1.01
7.61
14.35
20.83
26.64
31.27
34.09
34.30
31.26
24.91
16.15
6.82
-0.85
-5.03
-5.01
-1.32
4.59
10.94
16.36
20.16
22.21
22.77
22.27
21.20
20.15
19.77
20.63
22.95
26.47
30.40
33.70
35.40
34.94
32.47
28.71
24.74
21.35
18.74
16.19
12.35
5.69
-4.88
-19.45
-36.76
-54.50
-69.91
-80.85
-86.57
-87.89
-86.66
-84.68
-82.78
-80.69
-77.55
-72.81
-66.69
-60.10
-53.76
-47.67
-41.01
-32.87
-23.07
-12.68
-3.52
2.83
5.94
6.76
7.11
8.54
11.59
15.55
18.91
20.26
18.93
15.18
9.97
4.46
-0.54
-4.69
-8.17
-11.34
-14.55
-17.86
-21.05
-23.71
-25.48
-26.26
-26.26
-25.94
-25.85
-26.41
-27.75
-29.80
-32.28
-34.92
-37.56
-40.11
-42.47
-44.40
-45.51
-45.38
-43.87
-41.26
-38.36
-36.08
-34.98
-34.92
-34.98
-33.94
-30.99
-26.20
-20.59
-15.55
-12.11
-10.39
-9.64
-8.66
-6.36
-2.21
3.76
11.14
19.38
27.86
35.77
42.11
45.86
46.40
43.89
39.33
34.25
30.11
27.71
26.92
26.75
25.89
23.31
18.72
12.70
6.33
0.87
-2.83
-4.47
-4.33
-3.02
-1.18
0.94
3.58
7.30
12.61
19.55
27.42
34.94
40.65
43.49
43.04
39.66
34.18
27.60
20.82
14.72
10.16
7.90
8.31
11.15
15.46
19.96
23.52
25.34
24.88
21.69
15.24
5.55
-6.25
-17.57
-24.97
-25.44
-17.90
-3.92
12.98
28.91
41.25
49.49
54.75
58.55
61.74
64.08
64.65
62.62
57.71
50.22
40.67
29.62
17.47
4.57
-8.62
-21.34
-32.74
-41.93
-48.35
-51.88
-52.89
-52.18
-50.66
-49.17
-48.17
-47.72
-47.56
-47.38
-46.85
-45.75
-43.78
-40.54
-35.56
-28.57
-19.72
-9.79
0.06
8.72
15.55
20.63
24.62
28.34
32.28
36.36
40.09
42.86
44.40
44.96
45.14
45.57
46.55
47.94
49.29
50.10
50.06
49.10
47.26
44.55
40.92
36.39
31.28
26.14
21.69
18.40
16.25
14.67
12.91
10.34
6.84
2.76
-1.25
-4.61
-7.03
-8.60
-9.68
-10.79
-12.36
-14.67
-17.78
-21.46
-25.28
-28.79
-31.69
-33.94
-35.72
-37.23
-38.52
-39.36
-39.32
-38.02
-35.30
-31.48
-27.10
-22.81
-19.03
-15.83
-12.92
-9.94
-6.56
-2.67
1.69
6.58
12.22
18.97
27.05
36.22
45.57
53.74
59.31
61.37
59.91
55.86
50.69
45.86
42.26
39.98
38.40
36.59
33.75
29.58
24.29
18.42
12.58
7.25
2.64
-1.15
-4.07
-6.10
-7.42
-8.49
-10.02
-12.57
-16.24
-20.43
-23.97
-25.61
-24.59
-21.01
-15.91
-10.83
-7.33
-6.48
-8.50
-12.72
-17.72
-21.69
-23.02
-20.89
-15.52
-8.17
-0.64
5.47
9.30
10.87
10.96
10.57
10.59
11.52
13.58
16.75
20.82
25.42
29.85
33.26
34.85
34.19
31.32
26.78
21.22
15.22
9.08
2.91
-3.07
-8.45
-12.55
-14.81
-15.04
-13.63
-11.36
-9.06
-7.34
-6.36
-6.08
-6.41
-7.31
-8.86
-11.04
-13.68
-16.36
-18.56
-19.89
-20.26
-19.98
-19.62
-19.80
-20.85
-22.68
-24.76
-26.37
-26.92
-26.30
-24.85
-23.25
-22.13
-21.77
-22.12
-22.94
-24.01
-25.18
-26.38
-27.52
-28.41
-28.92
-28.90
-28.30
-27.08
-24.99
-21.56
-16.18
-8.54
0.96
11.09
20.06
26.12
28.27
26.71
22.62
17.67
13.29
10.14
8.14
6.80
5.68
4.69
3.91
3.23
2.19
0.04
-3.93
-9.89
-17.23
-24.85
-31.59
-36.83
-40.71
-43.94
-47.29
-51.10
-55.01
-58.04
-59.07
-57.31
-52.66
-45.89
-38.25
-31.05
-25.26
-21.22
-18.74
-17.26
-16.14
-14.70
-12.32
-8.39
-2.38
5.99
16.48
28.28
40.04
50.31
58.02
62.83
65.25
66.33
67.08
68.05
69.13
69.84
69.81
69.02
67.86
66.67
65.29
62.94
58.64
51.71
42.44
31.86
21.44
12.37
5.14
-0.56
-5.54
-10.65
-16.57
-23.49
-31.12
-38.68
-45.03
-49.04
-49.97
-47.88
-43.69
-38.93
-35.05
-32.81
-32.00
-31.68
-30.83
-29.00
-26.48
-24.06
-22.39
-21.41
-20.39
-18.30
-14.54
-9.38
-3.85
0.80
3.65
4.62
4.41
4.18
4.96
7.37
11.26
15.88
20.15
23.07
24.24
23.94
22.89
21.76
20.73
19.44
17.35
14.32
10.92
8.33
7.69
9.38
12.69
16.04
17.60
16.18
11.37
3.63
-6.18
-17.12
-28.19
-38.10
-45.42
-48.75
-47.41
-41.92
-34.21
-26.82
-21.97
-20.39
-21.01
-21.42
-19.15
-12.78
-2.60
9.78
22.41
33.95
44.12
53.33
61.77
68.78
72.92
72.52
66.83
56.50
43.45
30.02
17.98
8.00
-0.20
-7.34
-13.98
-20.23
-25.91
-30.90
-35.32
-39.48
-43.85
-48.72
-54.20
-60.21
-66.71
-73.70
-81.23
-89.06
-96.30
-101.24
-101.44
-94.53
-79.14
-55.94
-27.69
1.41
27.22
46.96
59.99
67.49
71.40
73.34
73.87
72.77
69.65
64.56
58.21
51.61
45.68
40.74
36.71
33.38
30.82
29.45
29.79
32.03
35.61
39.22
41.09
39.55
33.59
23.15
9.16
-6.80
-22.81
-37.26
-49.15
-58.40
-65.59
-71.77
-77.94
-84.68
-91.95
-99.06
-105.06
-109.13
-111.08
-111.47
-111.45
-112.23
-114.58
-118.38
-122.75
-126.33
-127.65
-125.36
-118.27
-105.41
-86.31
-61.13
-30.98
2.41
37.08
71.33
103.97
134.03
160.49
181.81
196.07
201.51
197.40
184.63
165.81
144.68
124.95
109.32
98.64
91.88
86.74
80.87
73.01
63.68
54.93
49.14
47.78
50.34
54.30
55.68
50.51
36.21
12.53
-18.22
-52.00
-83.95
-109.56
-125.53
-130.23
-124.07
-109.45
-90.41
-71.76
-57.76
-50.71
-50.04
-52.47
-53.24
-48.13
-35.14
-15.27
7.97
29.95
46.54
55.17
55.24
47.96
35.74
21.57
8.36
-1.70
-7.56
-9.55
-9.03
-7.71
-6.97
-7.32
-8.46
-9.72
-10.52
-10.84
-11.06
-11.66
-12.71
-13.72
-13.75
-11.89
-7.79
-1.80
5.11
11.84
17.55
21.76
24.25
24.91
23.77
21.09
17.60
14.33
12.23
11.71
12.45
13.57
14.10
13.40
11.36
8.36
4.92
1.60
-1.17
-3.04
-3.81
-3.47
-2.24
-0.57
1.07
2.39
3.39
4.34
5.73
8.05
11.61
16.38
21.83
27.03
31.07
33.39
34.25
34.53
35.31
37.25
40.23
43.37
45.65
46.45
45.77
44.21
42.50
41.13
40.19
39.52
38.70
37.13
33.92
27.95
18.24
4.48
-12.66
-31.56
-50.17
-66.72
-80.25
-90.62
-98.30
-103.82
-107.57
-109.74
-110.40
-109.62
-107.36
-103.41
-97.37
-88.99
-78.36
-66.12
-53.30
-40.88
-29.43
-18.96
-9.11
0.54
10.16
19.62
28.60
36.71
43.68
49.29
53.33
55.62
56.15
55.10
52.86
49.95
46.80
43.74
40.95
38.70
37.24
36.79
37.40
38.82
40.69
42.67
44.52
46.04
46.94
46.66
44.49
39.92
32.87
24.10
14.78
6.14
-1.20
-7.46
-13.47
-20.14
-27.86
-36.18
-43.96
-49.82
-52.74
-52.32
-48.84
-43.05
-35.86
-28.06
-20.37
-13.35
-7.44
-2.79
0.80
3.87
7.16
11.40
16.97
23.74
31.09
38.14
44.08
48.42
51.10
52.33
52.34
51.33
49.39
46.69
43.57
40.43
37.50
34.61
31.04
25.86
18.34
8.46
-3.04
-14.88
-25.84
-35.16
-42.66
-48.59
-53.24
-56.83
-59.46
-61.35
-62.91
-64.68
-67.10
-70.31
-74.07
-77.95
-81.47
-84.22
-85.73
-85.43
-82.65
-76.78
-67.69
-55.83
-42.26
-28.40
-15.63
-4.90
3.48
9.91
15.18
20.21
25.69
31.96
38.94
46.33
53.69
60.59
66.60
71.30
74.25
75.16
73.97
70.97
66.79
62.21
57.99
54.60
52.14
50.36
48.88
47.30
45.40
43.29
41.19
39.25
37.39
35.31
32.65
29.23
25.25
21.16
17.44
14.28
11.47
8.48
4.80
0.11
-5.50
-11.61
-17.59
-22.79
-26.68
-28.77
-28.79
-26.64
-22.54
-17.10
-11.24
-6.02
-2.39
-0.96
-1.78
-4.43
-8.03
-11.44
-13.51
-13.40
-10.86
-6.44
-1.32
3.03
5.39
5.31
3.19
0.07
-2.85
-4.67
-5.06
-4.11
-2.15
0.50
3.62
7.06
10.66
14.24
17.61
20.62
23.10
24.82
25.51
25.00
23.38
21.06
18.59
16.52
15.04
14.01
13.04
11.67
9.47
5.91
0.24
-8.36
-20.40
-35.61
-52.69
-69.66
-84.52
-96.05
-104.09
-109.14
-111.65
-111.43
-107.71
-99.76
-87.66
-72.73
-57.21
-43.39
-32.79
-25.85
-22.05
-20.42
-19.86
-19.29
-17.68
-13.95
-7.31
2.40
14.52
27.62
40.02
50.43
58.40
64.39
69.39
74.33
79.58
84.88
89.54
92.81
94.21
93.51
90.71
85.92
79.38
71.55
63.16
54.94
47.39
40.74
34.99
30.19
26.56
24.38
23.62
23.73
23.76
22.75
20.31
16.70
12.58
8.38
3.99
-1.23
-7.92
-16.23
-25.68
-35.39
-44.51
-52.50
-58.92
-63.22
-64.67
-62.58
-56.73
-47.78
-37.22
-27.05
-19.07
-14.33
-12.94
-14.06
-16.35
-18.40
-19.13
-18.08
-15.55
-12.56
-10.29
-9.69
-10.96
-13.56
-16.61
-19.41
-21.76
-24.03
-26.64
-29.78
-33.10
-35.85
-37.16
-36.44
-33.53
-28.67
-22.43
-15.51
-8.64
-2.49
2.48
6.02
8.14
8.93
8.53
7.12
5.05
2.92
1.51
1.56
3.47
7.13
11.93
16.89
21.01
23.62
24.50
24.15
23.45
23.33
24.32
26.16
27.82
27.94
25.47
20.29
13.30
6.03
0.05
-3.64
-4.79
-3.73
-1.15
2.02
4.68
5.48
3.10
-3.26
-13.40
-26.06
-39.17
-50.58
-58.75
-63.11
-64.01
-62.29
-58.89
-54.52
-49.62
-44.37
-38.74
-32.58
-25.69
-17.98
-9.66
-1.24
6.50
12.72
16.77
18.31
17.47
14.82
11.26
7.86
5.62
5.26
7.02
10.63
15.36
20.21
24.17
26.55
26.98
25.59
22.82
19.30
15.68
12.57
10.51
9.87
10.79
13.09
16.19
19.34
21.80
23.17
23.39
22.76
21.59
20.13
18.57
17.09
15.99
15.52
15.74
16.47
17.29
17.69
17.28
15.82
13.14
9.27
4.39
-1.03
-6.26
-10.57
-13.55
-15.31
-16.47
-17.88
-20.17
-23.53
-27.63
-31.92
-36.01
-39.87
-43.81
-48.32
-53.73
-59.87
-66.06
-71.21
-74.22
-74.29
-71.18
-65.14
-56.74
-46.55
-35.07
-22.76
-10.25
1.79
12.79
22.64
31.69
40.46
49.19
57.46
64.36
68.96
70.99
70.96
69.95
68.90
68.15
67.34
65.84
63.22
59.71
55.89
52.35
49.36
46.70
44.02
41.11
38.07
35.18
32.61
30.27
27.77
24.71
20.85
16.31
11.46
6.82
2.85
-0.25
-2.65
-4.91
-7.80
-12.11
-18.27
-26.21
-35.34
-44.80
-53.80
-61.85
-68.85
-74.84
-79.89
-83.87
-86.57
-87.70
-87.07
-84.53
-80.04
-73.73
-66.04
-57.62
-49.20
-41.27
-33.92
-26.80
-19.52
-11.87
-4.22
2.70
8.16
11.87
14.13
15.73
17.43
19.61
22.10
24.33
25.77
26.25
26.08
25.83
25.97
26.66
27.63
28.41
28.57
27.97
26.79
25.31
23.72
21.99
19.91
17.25
13.94
10.19
6.42
3.07
0.39
-1.62
-3.23
-4.75
-6.57
-8.96
-12.17
-16.31
-21.26
-26.58
-31.48
-34.95
-36.19
-34.89
-31.45
-26.86
-22.34
-18.80
-16.56
-15.38
-14.71
-14.09
-13.30
-12.35
-11.31
-10.29
-9.29
-8.34
-7.59
-7.26
-7.64
-8.86
-10.83
-13.24
-15.73
-17.97
-19.86
-21.39
-22.58
-23.27
-23.07
-21.42
-17.75
-11.78
-3.60
6.18
16.62
26.75
35.77
43.17
48.81
52.87
55.67
57.67
59.24
60.62
61.92
62.97
63.36
62.45
59.48
53.87
45.38
34.38
21.88
9.30
-1.88
-10.43
-15.74
-17.85
-17.35
-15.16
-12.19
-9.23
-6.80
-5.18
-4.42
-4.26
-4.14
-3.29
-0.96
3.29
9.30
16.16
22.52
26.99
28.65
27.36
23.67
18.48
12.62
6.58
0.53
-5.41
-10.98
-15.80
-19.46
-21.74
-22.74
-22.73
-22.05
-20.84
-19.15
-16.94
-14.30
-11.46
-8.69
-6.09
-3.61
-1.14
1.34
3.59
5.19
5.76
5.18
3.64
1.54
-0.66
-2.70
-4.52
-6.33
-8.52
-11.47
-15.32
-19.83
-24.32
-27.78
-29.32
-28.51
-25.63
-21.58
-17.40
-13.87
-11.21
-9.22
-7.54
-5.96
-4.41
-2.91
-1.36
0.38
2.50
4.99
7.66
10.21
12.35
13.98
15.14
15.96
16.53
16.92
17.25
17.64
18.17
18.80
19.31
19.45
19.18
18.70
18.42
18.76
19.89
21.60
23.39
24.69
25.08
24.31
22.31
19.08
14.73
9.55
4.01
-1.29
-5.89
-9.61
-12.61
-15.34
-18.18
-21.25
-24.32
-26.92
-28.59
-29.04
-28.22
-26.33
-23.74
-20.95
-18.44
-16.48
-14.96
-13.38
-11.16
-7.86
-3.56
1.15
5.45
8.66
10.64
11.76
12.62
13.66
14.93
16.08
16.67
16.54
15.92
15.31
15.16
15.65
16.44
17.02
16.87
15.72
13.69
11.13
8.47
6.13
4.43
3.54
3.52
4.17
5.03
5.49
4.93
2.93
-0.63
-5.52
-11.34
-17.50
-23.36
-28.28
-31.71
-33.33
-33.12
-31.36
-28.57
-25.31
-21.92
-18.48
-14.83
-10.78
-6.33
-1.71
2.79
6.84
10.38
13.49
16.23
18.58
20.31
21.09
20.71
19.25
17.06
14.63
12.38
10.48
8.87
7.37
5.83
4.32
3.07
2.37
2.33
2.71
2.96
2.34
0.39
-2.96
-7.21
-11.52
-15.09
-17.37
-18.19
-17.65
-16.01
-13.73
-11.39
-9.72
-9.32
-10.31
-12.19
-13.84
-14.06
-12.07
-7.98
-2.62
2.81
7.42
10.93
13.65
15.99
18.05
19.44
19.46
17.64
14.03
9.38
4.80
1.33
-0.48
-0.63
0.48
2.28
4.30
6.10
7.39
7.98
7.83
7.16
6.49
6.50
7.79
10.64
14.85
19.78
24.56
28.29
30.33
30.34
28.31
24.39
18.79
11.72
3.41
-5.73
-15.13
-23.96
-31.35
-36.70
-39.82
-41.19
-41.81
-42.81
-45.13
-49.17
-54.71
-61.19
-67.79
-73.79
-78.56
-81.68
-82.93
-82.37
-80.33
-77.16
-73.02
-67.50
-59.77
-48.89
-34.52
-17.33
1.05
18.62
33.71
45.64
54.69
61.82
67.93
73.50
78.43
82.29
84.81
86.06
86.45
86.59
86.89
87.29
87.24
85.82
82.18
75.93
67.45
57.80
48.35
40.30
34.36
30.65
28.84
28.42
28.93
30.08
31.74
33.97
36.94
40.81
45.61
51.00
56.12
59.78
60.83
58.75
54.02
48.07
42.87
40.15
40.67
43.95
48.42
52.06
52.99
49.71
41.29
27.28
7.91
-15.52
-40.47
-63.49
-81.12
-91.11
-93.21
-89.18
-81.89
-74.03
-67.16
-61.50
-56.31
-50.84
-44.70
-38.12
-31.62
-25.82
-21.22
-18.10
-16.53
-16.29
-16.99
-18.13
-19.31
-20.30
-21.01
-21.37
-21.33
-20.92
-20.36
-20.15
-20.87
-22.96
-26.40
-30.70
-35.06
-38.73
-41.36
-43.12
-44.55
-46.25
-48.46
-50.93
-52.98
-53.78
-52.75
-49.81
-45.37
-40.10
-34.69
-29.60
-25.09
-21.26
-18.00
-15.07
-12.04
-8.48
-4.13
0.90
6.15
11.07
15.33
18.97
22.18
25.02
27.21
28.13
27.38
25.06
21.95
19.18
17.59
17.37
18.01
18.75
18.97
18.45
17.40
16.19
15.11
14.26
13.65
13.18
12.73
12.04
10.76
8.58
5.37
1.33
-3.08
-7.30
-10.88
-13.68
-15.93
-18.12
-20.89
-24.86
-30.35
-37.21
-44.71
-51.59
-56.48
-58.38
-57.11
-53.30
-48.12
-42.79
-38.00
-33.86
-30.10
-26.38
-22.39
-18.01
-13.05
-7.34
-0.79
6.40
13.69
20.34
25.62
29.16
30.90
31.10
30.12
28.33
26.09
23.71
21.50
19.76
18.74
18.51
18.94
19.64
20.05
19.71
18.47
16.68
15.13
14.69
15.96
19.10
23.73
29.15
34.61
39.31
42.51
43.69
42.61
39.45
34.86
29.62
24.30
19.06
13.66
7.81
1.42
-5.32
-12.08
-18.68
-25.13
-31.47
-37.42
-42.26
-44.85
-44.13
-39.54
-31.35
-20.73
-9.54
0.06
6.19
7.64
4.33
-2.81
-12.07
-21.70
-30.41
-37.53
-42.88
-46.35
-47.83
-47.25
-44.81
-41.11
-36.79
-32.09
-26.47
-18.81
-7.94
6.55
23.89
42.22
59.11
72.30
80.38
83.19
81.84
78.44
75.47
75.17
78.83
86.26
95.75
104.33
108.85
107.38
100.35
90.49
81.52
75.96
73.58
71.85
67.73
60.10
50.64
42.56
38.22
37.45
37.90
37.22
35.37
35.14
40.32
52.97
71.67
92.00
109.20
120.62
126.52
128.87
129.07
126.59
118.97
103.34
78.32
45.06
7.11
-30.78
-64.17
-90.25
-108.20
-118.82
-123.64
-124.01
-120.79
-114.52
-105.96
-96.34
-87.31
-80.45
-76.66
-76.01
-77.81
-81.05
-84.77
-88.39
-91.55
-94.20
-96.35
-98.02
-99.37
-100.66
-102.12
-103.84
-105.69
-107.30
-108.25
-108.35
-107.62
-106.35
-104.81
-103.07
-100.85
-97.64
-92.96
-86.59
-78.74
-69.85
-60.44
-50.84
-41.21
-31.68
-22.59
-14.55
-8.29
-4.23
-2.13
-1.05
0.36
3.12
7.58
13.25
19.13
24.21
27.89
30.19
31.45
32.10
32.36
32.23
31.63
30.50
28.94
27.06
24.98
22.73
20.42
18.21
16.32
14.85
13.74
12.73
11.48
9.76
7.59
5.24
3.07
1.33
-0.01
-1.18
-2.51
-4.31
-6.75
-9.84
-13.40
-17.04
-20.09
-21.73
-21.13
-17.86
-12.11
-4.78
2.91
9.85
15.61
20.47
25.17
30.38
36.22
42.18
47.29
50.66
51.78
50.72
48.04
44.58
41.22
38.65
37.27
37.04
37.48
37.75
36.93
34.43
30.21
24.89
19.48
15.09
12.53
12.13
13.65
16.36
19.28
21.42
22.09
21.07
18.63
15.35
11.77
8.20
4.64
1.03
-2.58
-5.86
-8.33
-9.74
-10.19
-10.25
-10.54
-11.43
-12.83
-14.17
-14.77
-14.15
-12.27
-9.55
-6.74
-4.54
-3.41
-3.40
-4.14
-5.05
-5.63
-5.69
-5.48
-5.55
-6.48
-8.61
-11.89
-15.97
-20.31
-24.32
-27.37
-28.82
-28.12
-25.04
-19.91
-13.60
-7.24
-1.67
2.99
7.37
12.44
18.95
26.86
35.22
42.56
47.31
48.36
45.19
37.81
26.65
12.49
-3.55
-20.12
-35.82
-49.60
-60.87
-69.58
-75.91
-79.87
-81.12
-78.98
-72.78
-62.24
-47.86
-30.82
-12.69
4.87
20.66
34.06
44.89
53.16
58.70
61.05
59.73
54.62
46.37
36.41
26.50
18.06
11.65
7.04
3.59
0.97
-0.59
-0.60
1.19
4.20
7.15
8.63
7.98
5.46
2.02
-1.53
-5.10
-9.21
-14.38
-20.41
-26.11
-29.77
-30.10
-26.85
-20.80
-13.23
-5.09
3.22
11.71
20.30
28.59
35.92
41.80
46.18
49.29
51.38
52.35
51.80
49.49
45.68
41.26
37.25
34.24
31.98
29.51
25.78
20.39
13.88
7.48
2.42
-0.64
-1.87
-2.08
-2.16
-2.70
-3.78
-5.18
-6.68
-8.33
-10.45
-13.49
-17.87
-23.70
-30.81
-38.73
-46.64
-53.61
-58.66
-61.04
-60.38
-56.81
-50.92
-43.57
-35.75
-28.21
-21.36
-15.28
-9.81
-4.71
0.15
4.72
8.82
12.25
14.90
16.84
18.27
19.32
19.97
20.02
19.22
17.50
15.09
12.50
10.28
8.80
8.12
7.98
7.99
7.84
7.44
6.82
6.05
5.16
4.13
2.99
1.87
0.94
0.36
0.07
-0.24
-1.00
-2.59
-5.04
-8.02
-10.94
-13.30
-14.97
-16.23
-17.69
-19.98
-23.49
-28.17
-33.57
-38.91
-43.30
-45.99
-46.42
-44.48
-40.42
-34.81
-28.35
-21.72
-15.36
-9.53
-4.32
0.39
4.61
8.43
11.88
14.99
17.77
20.27
22.62
24.98
27.47
30.07
32.48
34.24
34.86
34.05
31.88
28.89
25.80
23.38
22.11
22.07
22.94
24.09
24.80
24.47
22.82
20.02
16.58
13.18
10.41
8.50
7.28
6.31
5.10
3.35
1.03
-1.68
-4.62
-7.75
-11.12
-14.80
-18.69
-22.56
-26.19
-29.54
-32.77
-36.15
-39.74
-43.22
-45.90
-47.02
-46.16
-43.55
-40.02
-36.55
-33.91
-32.27
-31.19
-30.01
-28.27
-25.98
-23.62
-21.88
-21.26
-21.83
-23.28
-25.09
-26.80
-28.04
-28.52
-27.87
-25.52
-20.86
-13.40
-3.12
9.40
23.08
36.75
49.48
60.79
70.50
78.42
84.12
86.94
86.46
82.79
76.79
69.78
63.03
57.22
52.10
46.82
40.40
32.36
22.92
12.79
2.66
-7.20
-17.00
-27.05
-37.22
-46.67
-54.02
-58.01
-58.25
-55.58
-51.74
-48.40
-46.29
-44.78
-42.31
-37.42
-29.58
-19.54
-8.77
1.39
10.50
19.04
27.90
37.58
47.73
57.30
64.96
69.76
71.16
68.94
63.01
53.31
40.11
24.31
7.62
-7.87
-20.22
-28.37
-32.53
-33.90
-34.06
-34.24
-34.89
-35.59
-35.38
-33.27
-28.61
-21.29
-11.71
-0.80
10.17
19.63
26.14
28.60
26.56
20.32
10.89
-0.17
-11.06
-20.00
-25.61
-27.31
-25.44
-21.19
-15.95
-10.70
-5.53
0.17
7.15
15.33
23.58
30.16
33.70
34.13
32.75
31.49
31.83
34.10
37.46
40.73
43.14
44.83
46.54
48.87
51.82
54.57
55.98
55.11
51.68
46.12
39.32
32.33
26.00
20.92
17.25
14.70
12.47
9.47
4.55
-3.15
-13.81
-26.85
-40.97
-54.38
-65.24
-72.06
-74.05
-71.30
-64.72
-55.66
-45.56
-35.55
-26.34
-18.33
-11.75
-6.82
-3.66
-2.14
-1.81
-1.91
-1.62
-0.38
1.98
5.21
8.73
11.81
13.73
13.94
12.30
9.09
5.08
1.20
-1.68
-3.13
-3.18
-2.16
-0.47
1.56
3.59
5.14
5.58
4.30
1.13
-3.37
-7.92
-10.92
-11.13
-8.23
-2.98
2.92
7.44
8.74
5.82
-1.32
-11.47
-22.61
-32.40
-38.86
-40.88
-38.49
-32.71
-25.01
-16.80
-9.18
-2.71
2.40
6.07
8.36
9.37
9.25
8.29
6.85
5.40
4.40
4.22
5.08
6.92
9.43
12.06
14.27
15.62
15.92
15.28
13.95
12.24
10.43
8.73
7.21
5.92
4.83
3.92
3.16
2.50
1.86
1.17
0.35
-0.68
-2.01
-3.75
-5.99
-8.80
-12.18
-16.06
-20.16
-24.08
-27.31
-29.38
-29.98
-29.01
-26.59
-23.04
-18.78
-14.24
-9.77
-5.65
-2.05
0.98
3.48
5.52
7.17
8.44
9.30
9.81
10.06
10.29
10.68
11.28
12.01
12.70
13.22
13.58
13.83
14.01
14.05
13.88
13.36
12.45
11.23
9.80
8.24
6.62
4.94
3.26
1.63
0.04
-1.58
-3.39
-5.55
-8.19
-11.25
-14.59
-18.00
-21.25
-24.05
-25.99
-26.63
-25.66
-23.03
-18.97
-14.07
-8.98
-4.29
-0.36
2.72
5.06
6.86
8.23
9.31
10.20
10.97
11.71
12.52
13.41
14.35
15.26
16.03
16.52
16.57
16.10
15.14
13.89
12.56
11.33
10.23
9.09
7.69
5.90
3.82
1.69
-0.25
-1.94
-3.52
-5.24
-7.25
-9.52
-11.94
-14.46
-17.15
-20.24
-23.81
-27.69
-31.32
-33.97
-34.98
-34.02
-31.25
-27.21
-22.61
-18.10
-14.00
-10.33
-6.87
-3.33
0.41
4.19
7.75
10.75
13.00
14.56
15.62
16.42
17.17
17.91
18.61
19.24
19.72
20.10
20.35
20.49
20.49
20.31
19.88
19.12
17.97
16.42
14.60
12.73
11.06
9.73
8.73
7.79
6.59
4.86
2.48
-0.41
-3.52
-6.53
-9.28
-11.73
-14.04
-16.48
-19.28
-22.64
-26.50
-30.51
-34.03
-36.25
-36.52
-34.52
-30.54
-25.32
-19.87
-14.97
-10.98
-7.76
-4.87
-1.85
1.51
5.19
8.96
12.60
15.94
18.82
21.10
22.65
23.40
23.40
22.90
22.26
21.77
21.59
21.67
21.83
21.88
21.67
21.14
20.27
19.04
17.40
15.33
12.95
10.52
8.34
6.70
5.71
5.21
4.83
4.19
3.07
1.52
-0.19
-1.78
-3.08
-4.16
-5.34
-7.01
-9.48
-12.83
-16.91
-21.34
-25.64
-29.36
-32.09
-33.58
-33.66
-32.27
-29.47
-25.49
-20.74
-15.75
-11.03
-6.92
-3.51
-0.61
2.06
4.74
7.55
10.41
13.24
15.87
18.24
20.28
21.94
23.10
23.68
23.70
23.27
22.64
22.02
21.61
21.42
21.35
21.18
20.69
19.71
18.21
16.36
14.41
12.69
11.47
10.89
10.84
11.03
10.99
10.23
8.41
5.46
1.57
-2.83
-7.32
-11.49
-15.09
-17.97
-20.09
-21.54
-22.58
-23.62
-25.11
-27.28
-29.98
-32.58
-34.15
-33.88
-31.40
-27.03
-21.58
-16.02
-11.06
-6.94
-3.46
-0.29
2.70
5.37
7.28
8.04
7.56
6.13
4.39
2.99
2.33
2.51
3.33
4.41
5.45
6.19
6.46
6.16
5.24
3.64
1.35
-1.52
-4.85
-8.48
-12.18
-15.68
-18.67
-20.96
-22.50
-23.57
-24.67
-26.35
-28.96
-32.50
-36.67
-40.97
-44.92
-48.09
-50.16
-50.81
-49.72
-46.61
-41.41
-34.28
-25.64
-16.08
-6.23
3.33
12.08
19.53
25.34
29.42
32.04
33.81
35.42
37.40
39.82
42.28
44.15
44.87
44.24
42.55
40.38
38.28
36.49
34.89
33.19
31.19
29.08
27.25
26.20
26.18
26.96
27.87
28.06
26.78
23.65
18.74
12.50
5.64
-1.14
-7.14
-11.79
-14.63
-15.45
-14.29
-11.59
-8.10
-4.74
-2.24
-0.88
-0.41
-0.12
0.68
2.44
5.17
8.53
12.12
15.71
19.30
23.00
26.80
30.48
33.66
35.98
37.34
37.88
37.90
37.56
36.73
34.99
31.87
27.13
21.01
14.13
7.31
1.22
-3.80
-7.74
-10.80
-13.19
-14.99
-16.21
-16.86
-17.07
-17.03
-16.95
-17.00
-17.22
-17.68
-18.50
-19.80
-21.65
-23.90
-26.21
-28.28
-29.98
-31.49
-33.20
-35.37
-37.91
-40.22
-41.46
-40.82
-38.04
-33.47
-27.96
-22.49
-17.74
-13.95
-10.96
-8.34
-5.75
-3.07
-0.43
1.93
3.76
5.10
6.14
7.17
8.38
9.74
11.02
11.95
12.40
12.42
12.26
12.18
12.24
12.27
11.96
11.00
9.35
7.22
4.94
2.81
0.96
-0.71
-2.36
-4.05
-5.70
-7.10
-8.20
-9.19
-10.53
-12.72
-16.06
-20.34
-24.90
-28.83
-31.36
-32.07
-31.06
-28.69
-25.39
-21.48
-17.12
-12.49
-7.88
-3.70
-0.31
2.10
3.68
4.78
5.82
7.08
8.62
10.27
11.80
12.98
13.64
13.71
13.21
12.33
11.26
10.21
9.22
8.25
7.20
5.98
4.56
2.99
1.32
-0.40
-2.11
-3.72
-5.12
-6.23
-7.16
-8.25
-9.89
-12.43
-15.95
-20.13
-24.31
-27.67
-29.49
-29.30
-27.05
-23.06
-18.03
-12.75
-7.96
-4.10
-1.19
1.04
3.02
5.11
7.40
9.74
11.81
13.37
14.32
14.73
14.79
14.75
14.82
15.14
15.73
16.50
17.23
17.68
17.68
17.19
16.24
14.94
13.36
11.60
9.72
7.81
5.92
4.02
2.00
-0.30
-2.93
-5.82
-8.71
-11.35
-13.73
-16.08
-18.87
-22.48
-26.95
-31.91
-36.59
-40.11
-41.76
-41.19
-38.42
-33.85
-28.09
-21.88
-15.90
-10.67
-6.38
-2.88
0.25
3.43
6.92
10.66
14.31
17.45
19.77
21.19
21.90
22.20
22.41
22.69
23.10
23.60
24.11
24.50
24.54
24.03
22.83
20.98
18.70
16.41
14.43
12.92
11.78
10.74
9.52
7.91
5.85
3.35
0.49
-2.70
-6.12
-9.68
-13.21
-16.62
-19.94
-23.36
-27.13
-31.29
-35.61
-39.48
-42.14
-42.92
-41.47
-37.88
-32.68
-26.56
-20.25
-14.34
-9.19
-4.89
-1.29
1.96
5.23
8.79
12.61
16.42
19.81
22.41
24.09
24.97
25.34
25.51
25.75
26.23
27.02
28.07
29.19
30.05
30.23
29.41
27.50
24.67
21.30
17.81
14.54
11.73
9.45
7.61
6.01
4.33
2.27
-0.38
-3.53
-6.87
-9.92
-12.32
-14.02
-15.39
-16.98
-19.33
-22.69
-26.94
-31.52
-35.69
-38.61
-39.61
-38.26
-34.54
-28.87
-21.99
-14.90
-8.47
-3.30
0.51
3.25
5.41
7.43
9.51
11.64
13.63
15.34
16.72
17.88
18.95
20.07
21.24
22.45
23.59
24.57
25.28
25.57
25.36
24.55
23.14
21.23
19.01
16.73
14.60
12.77
11.21
9.78
8.25
6.42
4.26
1.85
-0.63
-2.98
-5.16
-7.25
-9.39
-11.74
-14.44
-17.57
-21.16
-25.13
-29.19
-32.72
-34.91
-34.94
-32.38
-27.41
-20.89
-14.05
-8.04
-3.51
-0.41
1.76
3.69
5.81
8.29
10.97
13.57
15.88
17.78
19.31
20.55
21.63
22.58
23.43
24.09
24.39
24.09
23.06
21.29
18.91
16.26
13.58
11.08
8.75
6.50
4.24
2.00
-0.12
-1.94
-3.39
-4.60
-5.90
-7.69
-10.32
-13.87
-18.17
-22.72
-26.89
-30.04
-31.68
-31.63
-29.91
-26.75
-22.48
-17.50
-12.15
-6.73
-1.48
3.40
7.78
11.59
14.76
17.22
18.90
19.78
19.98
19.76
19.49
19.51
20.00
20.86
21.77
22.34
22.32
21.67
20.62
19.46
18.44
17.62
16.90
16.09
15.04
13.73
12.20
10.62
9.07
7.66
6.32
4.99
3.58
1.95
0.06
-2.09
-4.43
-6.94
-9.62
-12.54
-15.79
-19.44
-23.48
-27.85
-32.37
-36.76
-40.61
-43.46
-44.83
-44.43
-42.12
-38.09
-32.68
-26.44
-19.92
-13.67
-8.11
-3.40
0.49
3.87
7.02
10.21
13.39
16.40
19.00
21.09
22.75
24.08
25.22
26.14
26.77
27.05
27.12
27.19
27.44
27.78
27.85
27.20
25.52
22.83
19.54
16.22
13.36
11.12
9.39
7.84
6.22
4.40
2.37
0.16
-2.28
-4.97
-7.93
-10.98
-13.85
-16.30
-18.33
-20.22
-22.44
-25.38
-29.00
-32.82
-35.91
-37.38
-36.67
-33.76
-29.13
-23.51
-17.71
-12.28
-7.60
-3.64
-0.23
2.97
6.29
9.84
13.45
16.73
19.23
20.67
21.08
20.81
20.32
19.97
19.96
20.29
20.84
21.38
21.64
21.34
20.24
18.32
15.79
13.06
10.55
8.52
6.86
5.28
3.48
1.31
-1.12
-3.58
-5.81
-7.68
-9.22
-10.59
-11.99
-13.67
-15.86
-18.77
-22.32
-26.18
-29.69
-32.07
-32.58
-30.87
-27.08
-21.78
-15.84
-10.16
-5.37
-1.73
0.94
3.09
5.19
7.50
10.01
12.47
14.56
16.05
16.85
17.01
16.68
15.97
15.03
13.99
13.04
12.29
11.79
11.38
10.86
10.04
8.81
7.28
5.68
4.25
3.12
2.27
1.43
0.30
-1.36
-3.65
-6.41
-9.39
-12.37
-15.26
-18.14
-21.20
-24.56
-28.07
-31.30
-33.51
-33.98
-32.23
-28.21
-22.44
-15.85
-9.45
-3.95
0.34
3.64
6.35
8.80
11.12
13.11
14.57
15.46
15.94
16.31
16.81
17.48
18.17
18.68
18.91
18.90
18.80
18.72
18.63
18.42
17.90
16.92
15.45
13.57
11.47
9.38
7.50
5.90
4.43
2.89
1.01
-1.24
-3.68
-6.00
-7.95
-9.51
-10.94
-12.66
-15.07
-18.38
-22.55
-27.21
-31.81
-35.70
-38.25
-39.06
-37.96
-35.10
-30.89
-25.92
-20.74
-15.76
-11.21
-7.13
-3.44
-0.06
3.13
6.23
9.31
12.35
15.25
17.79
19.80
21.07
21.61
21.57
21.23
20.94
20.93
21.27
21.83
22.41
22.75
22.62
21.84
20.33
18.20
15.67
13.05
10.61
8.53
6.76
5.07
3.20
0.91
-1.83
-4.84
-7.83
-10.47
-12.61
-14.39
-16.18
-18.44
-21.57
-25.54
-29.97
-34.13
-37.16
-38.35
-37.35
-34.20
-29.32
-23.39
-17.17
-11.37
-6.46
-2.55
0.61
3.49
6.49
9.77
13.14
16.21
18.62
20.25
21.24
21.89
22.46
23.07
23.65
24.08
24.22
23.95
23.18
21.93
20.28
18.41
16.59
14.94
13.49
12.11
10.59
8.76
6.59
4.14
1.57
-0.99
-3.39
-5.62
-7.71
-9.77
-11.98
-14.54
-17.59
-21.10
-24.89
-28.60
-31.81
-34.10
-35.09
-34.49
-32.13
-28.08
-22.71
-16.69
-10.83
-5.87
-2.21
0.24
1.99
3.65
5.67
8.04
10.37
12.17
13.07
13.11
12.64
12.16
12.02
12.31
12.88
13.50
14.02
14.41
14.79
15.21
15.58
15.67
15.13
13.71
11.33
8.12
4.33
0.30
-3.67
-7.32
-10.45
-12.95
-14.88
-16.48
-18.16
-20.37
-23.26
-26.63
-29.84
-31.99
-32.32
-30.42
-26.36
-20.70
-14.25
-7.85
-2.20
2.32
5.71
8.17
10.07
11.68
13.16
14.50
15.71
16.76
17.78
18.91
20.24
21.72
23.09
24.07
24.41
24.02
22.97
21.44
19.72
17.96
16.26
14.60
12.85
10.90
8.59
5.92
3.02
0.07
-2.74
-5.31
-7.64
-9.84
-12.06
-14.42
-16.91
-19.46
-22.09
-24.96
-28.26
-32.11
-36.28
-40.11
-42.62
-42.80
-40.08
-34.60
-27.18
-19.08
-11.62
-5.66
-1.47
1.30
3.38
5.44
7.91
10.90
14.14
17.29
19.99
22.03
23.36
23.98
23.87
23.13
21.99
20.79
19.97
19.80
20.23
20.91
21.35
21.16
20.21
18.72
17.05
15.50
14.19
12.95
11.59
9.92
7.84
5.47
2.90
0.20
-2.58
-5.51
-8.65
-12.04
-15.70
-19.57
-23.59
-27.63
-31.49
-34.84
-37.21
-38.15
-37.29
-34.53
-30.06
-24.33
-18.00
-11.67
-5.88
-0.93
3.12
6.41
9.23
11.89
14.65
17.50
20.27
22.58
24.06
24.61
24.39
23.80
23.33
23.30
23.78
24.60
25.39
25.81
25.61
24.62
22.79
20.17
17.00
13.69
10.72
8.46
6.93
5.84
4.62
2.74
0.03
-3.28
-6.63
-9.39
-11.22
-12.27
-13.11
-14.45
-16.84
-20.43
-24.94
-29.65
-33.66
-36.07
-36.24
-33.95
-29.47
-23.48
-16.94
-10.82
-5.83
-2.24
0.13
1.70
3.05
4.59
6.46
8.62
10.82
12.77
14.25
15.09
15.35
15.22
15.03
15.06
15.48
16.22
16.96
17.32
17.02
15.97
14.34
12.37
10.30
8.26
6.27
4.35
2.57
0.98
-0.39
-1.67
-3.06
-4.80
-7.06
-9.90
-13.27
-17.00
-20.87
-24.55
-27.58
-29.44
-29.68
-28.02
-24.55
-19.73
-14.23
-8.76
-3.81
0.38
3.80
6.52
8.63
10.13
11.08
11.64
12.11
12.77
13.85
15.34
17.11
18.90
20.47
21.63
22.22
22.18
21.52
20.35
18.90
17.41
16.03
14.73
13.37
11.83
10.11
8.31
6.60
5.04
3.56
1.98
0.10
-2.12
-4.57
-7.03
-9.31
-11.38
-13.37
-15.59
-18.40
-22.03
-26.47
-31.44
-36.29
-40.25
-42.63
-42.99
-41.27
-37.71
-32.75
-27.00
-21.00
-15.24
-10.00
-5.38
-1.27
2.44
5.95
9.23
12.21
14.70
16.65
18.13
19.35
20.48
21.55
22.46
23.04
23.25
23.19
23.05
22.92
22.68
22.05
20.73
18.67
16.11
13.54
11.42
9.91
8.90
8.04
7.00
5.63
3.94
1.95
-0.33
-2.98
-6.00
-9.17
-12.19
-14.75
-16.84
-18.74
-20.94
-23.85
-27.46
-31.28
-34.41
-35.97
-35.46
-32.97
-29.03
-24.38
-19.62
-15.03
-10.58
-6.12
-1.64
2.69
6.58
9.79
12.31
14.30
16.02
17.60
18.94
19.80
19.92
19.22
17.81
16.03
14.26
12.84
11.89
11.29
10.76
9.91
8.50
6.43
3.92
1.36
-0.83
-2.46
-3.60
-4.56
-5.68
-7.23
-9.33
-11.88
-14.63
-17.19
-18.96
-19.23
-17.29
-12.88
-6.38
1.00
7.58
11.65
12.14
8.94
2.94
-4.27
-10.91
-15.49
-17.22
-16.08
-12.71
-8.07
-3.09
1.61
5.76
9.32
12.36
14.84
16.62
17.59
17.81
17.52
17.07
16.79
16.79
16.97
17.11
16.93
16.26
15.07
13.46
11.65
9.90
8.41
7.22
6.20
5.07
3.51
1.37
-1.27
-4.05
-6.59
-8.58
-10.01
-11.14
-12.34
-13.85
-15.78
-18.02
-20.44
-23.04
-25.85
-28.81
-31.54
-33.43
-33.72
-31.90
-27.96
-22.43
-16.20
-10.16
-4.93
-0.63
2.86
5.79
8.27
10.23
11.56
12.28
12.62
12.97
13.63
14.73
15.99
17.04
17.52
17.32
16.63
15.81
15.11
14.61
14.12
13.38
12.23
10.67
8.88
7.07
5.30
3.46
1.29
-1.39
-4.57
-7.98
-11.19
-13.85
-15.85
-17.36
-18.76
-20.39
-22.42
-24.69
-26.83
-28.35
-28.74
-27.68
-25.02
-20.91
-15.77
-10.19
-4.78
0.01
4.03
7.35
10.16
12.66
14.87
16.62
17.76
18.19
17.96
17.28
16.41
15.62
15.09
15.00
15.37
16.21
17.44
18.88
20.29
21.38
21.83
21.50
20.41
18.76
16.88
15.00
13.16
11.24
9.00
6.38
3.53
0.82
-1.36
-2.86
-3.89
-4.95
-6.59
-9.24
-12.98
-17.67
-22.87
-27.98
-32.32
-35.20
-36.04
-34.58
-30.99
-25.83
-19.93
-14.11
-8.91
-4.53
-0.77
2.79
6.63
11.02
16.00
21.17
25.95
29.77
32.30
33.56
33.86
33.55
32.85
31.77
30.17
28.00
25.36
22.53
19.85
17.56
15.85
14.73
14.18
14.12
14.37
14.69
14.78
14.44
13.57
12.18
10.24
7.71
4.45
0.37
-4.42
-9.61
-14.70
-19.32
-23.25
-26.53
-29.25
-31.38
-32.73
-33.03
-32.18
-30.31
-27.88
-25.43
-23.28
-21.48
-19.82
-18.03
-15.92
-13.51
-10.92
-8.33
-5.76
-3.14
-0.32
2.83
6.21
9.56
12.47
14.54
15.53
15.45
14.61
13.45
12.39
11.64
11.20
10.91
10.57
10.07
9.36
8.45
7.34
5.95
4.23
2.10
-0.44
-3.30
-6.29
-9.27
-12.19
-15.15
-18.34
-21.78
-25.23
-28.10
-29.67
-29.29
-26.72
-22.29
-16.78
-11.12
-6.02
-1.76
1.76
4.94
8.09
11.32
14.44
17.12
19.12
20.32
20.85
20.93
20.78
20.45
19.90
19.10
18.12
17.15
16.35
15.83
15.44
14.90
13.91
12.30
10.13
7.59
4.97
2.52
0.42
-1.27
-2.66
-4.06
-5.85
-8.40
-11.91
-16.23
-20.88
-25.12
-28.14
-29.38
-28.55
-25.80
-21.62
-16.67
-11.62
-6.97
-2.97
0.37
3.19
5.57
7.52
9.04
10.15
11.01
11.74
12.41
12.94
13.11
12.77
11.93
10.82
9.85
9.43
9.68
10.41
11.12
11.14
9.97
7.47
3.91
-0.04
-3.61
-6.25
-7.81
-8.61
-9.25
-10.36
-12.40
-15.48
-19.39
-23.64
-27.54
-30.37
-31.41
-30.19
-26.60
-21.06
-14.40
-7.68
-1.84
2.54
5.38
6.98
7.79
8.22
8.50
8.69
8.77
8.80
8.87
9.17
9.82
10.81
12.01
13.15
13.88
13.87
12.95
11.13
8.65
5.85
3.09
0.57
-1.65
-3.68
-5.67
-7.76
-10.04
-12.65
-15.73
-19.33
-23.30
-27.23
-30.49
-32.39
-32.40
-30.33
-26.43
-21.31
-15.75
-10.50
-6.01
-2.47
0.28
2.57
4.74
6.99
9.38
11.77
13.92
15.54
16.35
16.18
15.05
13.19
11.02
9.04
7.66
7.07
7.19
7.69
8.13
8.11
7.36
5.81
3.52
0.65
-2.60
-6.03
-9.42
-12.59
-15.49
-18.23
-21.09
-24.31
-27.97
-31.76
-35.04
-37.03
-37.18
-35.34
-31.72
-26.82
-21.24
-15.49
-10.02
-5.16
-1.15
1.99
4.40
6.45
8.49
10.73
13.14
15.50
17.56
19.14
20.23
20.91
21.37
21.70
21.92
21.93
21.51
20.41
18.39
15.37
11.40
6.78
1.88
-2.79
-6.74
-9.62
-11.31
-12.02
-12.29
-12.91
-14.67
-18.13
-23.33
-29.77
-36.44
-42.05
-45.47
-45.95
-43.43
-38.45
-32.02
-25.25
-18.98
-13.68
-9.28
-5.46
-1.86
1.66
5.08
8.23
10.98
13.31
15.27
16.89
18.10
18.78
18.92
18.74
18.66
19.09
20.25
21.90
23.49
24.23
23.51
21.04
17.01
11.93
6.45
1.24
-3.22
-6.67
-9.07
-10.58
-11.62
-12.71
-14.43
-17.18
-21.00
-25.51
-29.91
-33.31
-34.84
-34.02
-30.80
-25.62
-19.19
-12.36
-5.84
-0.08
4.76
8.76
12.06
14.79
16.98
18.60
19.67
20.34
20.89
21.61
22.69
24.05
25.39
26.30
26.46
25.75
24.31
22.45
20.43
18.41
16.34
14.09
11.58
8.87
6.12
3.44
0.73
-2.32
-6.09
-10.77
-16.26
-22.02
-27.25
-31.07
-32.73
-31.82
-28.33
-22.71
-15.81
-8.66
-2.21
2.96
6.72
9.36
11.43
13.38
15.47
17.62
19.67
21.44
22.85
23.84
24.41
24.50
24.09
23.22
22.09
21.03
20.33
20.18
20.43
20.70
20.48
19.31
17.03
13.78
9.91
5.76
1.58
-2.52
-6.57
-10.56
-14.51
-18.40
-22.17
-25.75
-28.93
-31.35
-32.50
-31.92
-29.34
-24.94
-19.26
-13.10
-7.21
-2.00
2.55
6.75
10.92
15.09
18.94
21.85
23.26
22.92
21.10
18.49
15.97
14.23
13.61
14.08
15.32
16.92
18.48
19.68
20.16
19.58
17.66
14.30
9.71
4.46
-0.71
-5.12
-8.48
-10.95
-13.00
-15.21
-17.92
-21.14
-24.52
-27.49
-29.41
-29.72
-28.04
-24.33
-18.86
-12.17
-4.99
2.00
8.30
13.63
17.86
20.90
22.66
23.16
22.53
21.21
19.82
18.93
18.90
19.75
21.06
22.32
23.00
22.86
21.91
20.35
18.42
16.32
14.22
12.13
9.99
7.70
5.07
2.01
-1.50
-5.31
-9.13
-12.64
-15.62
-18.08
-20.32
-22.86
-26.15
-30.36
-35.17
-39.78
-43.09
-44.18
-42.50
-38.24
-32.11
-25.13
-18.24
-11.99
-6.45
-1.42
3.44
8.32
13.20
17.85
21.98
25.37
27.91
29.69
30.83
31.46
31.74
31.81
31.85
32.03
32.39
32.81
32.99
32.52
31.07
28.63
25.41
21.85
18.35
15.11
12.10
9.11
5.99
2.73
-0.52
-3.55
-6.28
-8.86
-11.61
-14.96
-19.19
-24.35
-30.19
-36.22
-41.80
-46.20
-48.70
-48.71
-45.93
-40.59
-33.32
-25.18
-17.25
-10.35
-4.78
-0.30
3.59
7.37
11.25
15.20
19.04
22.54
25.55
28.02
29.91
31.23
32.03
32.41
32.52
32.59
32.79
33.15
33.55
33.68
33.16
31.76
29.48
26.57
23.43
20.41
17.72
15.26
12.84
10.25
7.37
4.32
1.24
-1.72
-4.47
-7.03
-9.45
-11.94
-14.67
-17.96
-21.98
-26.83
-32.33
-37.99
-43.05
-46.62
-47.93
-46.48
-42.29
-35.96
-28.43
-20.76
-13.79
-7.98
-3.32
0.51
3.94
7.28
10.68
14.06
17.36
20.48
23.35
25.91
28.11
29.85
31.11
31.88
32.27
32.37
32.25
31.91
31.32
30.43
29.16
27.46
25.21
22.41
19.15
15.80
12.88
10.82
9.75
9.28
8.70
7.24
4.47
0.59
-3.75
-7.70
-10.71
-12.71
-14.18
-15.82
-18.28
-21.89
-26.52
-31.77
-36.94
-41.32
-44.21
-45.01
-43.38
-39.31
-33.29
-26.18
-19.04
-12.73
-7.73
-3.90
-0.79
2.15
5.23
8.37
11.30
13.68
15.32
16.30
16.80
17.06
17.26
17.50
17.82
18.25
18.77
19.33
19.81
20.06
19.94
19.24
17.90
15.88
13.34
10.49
7.66
5.12
3.02
1.30
-0.32
-2.15
-4.50
-7.50
-11.06
-14.98
-19.02
-22.99
-26.76
-30.15
-32.83
-34.39
-34.38
-32.51
-28.84
-23.77
-17.96
-12.10
-6.70
-1.89
2.40
6.36
10.08
13.39
16.10
18.03
19.26
20.03
20.70
21.47
22.29
22.95
23.21
22.99
22.49
21.95
21.57
21.38
21.12
20.42
19.00
16.73
13.85
10.73
7.82
5.41
3.56
2.07
0.61
-1.09
-3.17
-5.55
-7.99
-10.33
-12.53
-14.75
-17.21
-20.10
-23.48
-27.35
-31.60
-36.10
-40.58
-44.56
-47.38
-48.24
-46.57
-42.31
-36.03
-28.76
-21.56
-15.31
-10.26
-6.21
-2.74
0.53
3.80
7.07
10.26
13.35
16.26
18.96
21.33
23.22
24.50
25.21
25.49
25.58
25.76
26.16
26.72
27.18
27.11
26.17
24.18
21.34
18.13
15.14
12.82
11.32
10.51
10.01
9.47
8.55
7.12
5.09
2.55
-0.37
-3.45
-6.47
-9.21
-11.55
-13.55
-15.42
-17.52
-20.24
-23.85
-28.37
-33.50
-38.58
-42.76
-45.17
-45.24
-42.94
-38.69
-33.26
-27.44
-21.81
-16.62
-11.89
-7.49
-3.30
0.72
4.55
8.14
11.43
14.34
16.72
18.45
19.48
19.91
19.98
20.03
20.33
20.97
21.84
22.75
23.48
23.88
23.86
23.40
22.46
21.03
19.15
16.95
14.60
12.33
10.33
8.67
7.38
6.39
5.57
4.72
3.59
1.92
-0.43
-3.42
-6.73
-9.84
-12.29
-13.81
-14.55
-14.98
-15.81
-17.65
-20.84
-25.25
-30.35
-35.28
-39.10
-41.04
-40.63
-37.86
-33.13
-27.22
-21.06
-15.46
-10.94
-7.56
-4.98
-2.68
-0.30
2.29
4.94
7.34
9.25
10.60
11.51
12.18
12.79
13.43
14.17
15.01
15.98
16.99
17.87
18.42
18.44
17.87
16.79
15.35
13.65
11.72
9.52
7.03
4.41
1.81
-0.53
-2.51
-4.20
-5.79
-7.54
-9.65
-12.24
-15.34
-18.89
-22.77
-26.72
-30.31
-33.00
-34.15
-33.33
-30.43
-25.73
-19.91
-13.77
-7.99
-2.92
1.42
5.21
8.62
11.63
14.07
15.73
16.58
16.80
16.73
16.72
16.89
17.20
17.53
17.86
18.26
18.81
19.47
19.99
20.06
19.42
18.01
16.03
13.83
11.68
9.72
7.84
5.86
3.59
0.96
-1.99
-5.10
-8.11
-10.76
-12.89
-14.47
-15.63
-16.74
-18.22
-20.42
-23.57
-27.65
-32.37
-37.15
-41.25
-43.89
-44.44
-42.64
-38.67
-33.20
-27.13
-21.31
-16.28
-12.08
-8.39
-4.79
-0.94
3.21
7.45
11.49
15.08
18.10
20.50
22.23
23.15
23.19
22.45
21.23
20.03
19.31
19.25
19.74
20.44
20.93
20.87
20.13
18.69
16.69
14.36
11.99
9.82
8.05
6.67
5.47
4.19
2.58
0.57
-1.80
-4.32
-6.82
-9.13
-11.15
-12.83
-14.23
-15.60
-17.36
-19.98
-23.77
-28.59
-33.71
-38.03
-40.31
-39.74
-36.24
-30.52
-23.75
-17.11
-11.40
-6.79
-3.01
0.40
3.87
7.65
11.79
16.18
20.48
24.14
26.53
27.22
26.22
24.19
22.11
20.90
20.94
21.84
22.74
22.76
21.39
18.75
15.46
12.26
9.82
8.45
8.22
8.99
10.53
12.47
14.35
15.65
15.83
14.52
11.60
7.35
2.40
-2.38
-6.24
-8.74
-10.01
-10.68
-11.62
-13.67
-17.29
-22.41
-28.32
-33.82
-37.56
-38.44
-36.12
-31.08
-24.55
-17.92
-12.22
-7.69
-3.89
-0.00
4.65
10.31
16.71
23.29
29.35
34.26
37.58
39.15
39.30
38.86
39.02
40.94
45.13
51.25
57.99
63.62
66.67
66.65
64.24
60.95
58.53
58.18
60.07
63.32
66.48
68.10
67.23
63.55
57.16
48.34
37.50
25.32
12.84
1.36
-8.01
-14.75
-19.06
-21.50
-22.50
-22.05
-19.97
-16.51
-12.76
-10.48
-11.35
-15.82
-22.74
-29.73
-34.32
-35.07
-32.18
-27.13
-21.77
-17.54
-15.02
-14.02
-13.88
-13.75
-12.73
-9.97
-4.96
2.11
10.01
16.54
18.99
15.24
4.62
-11.62
-30.63
-49.06
-64.14
-74.49
-80.05
-81.59
-80.08
-76.39
-71.40
-66.16
-61.98
-60.04
-61.01
-64.70
-70.11
-75.83
-80.54
-83.24
-83.44
-81.09
-76.64
-70.95
-65.03
-59.68
-55.15
-50.93
-45.96
-39.30
-30.62
-20.58
-10.51
-1.86
4.54
8.82
11.90
14.92
18.68
23.25
28.17
32.84
36.92
40.47
43.70
46.62
48.95
50.15
49.88
48.21
45.67
42.89
40.16
37.33
33.94
29.72
24.87
20.10
16.16
13.43
11.68
10.22
8.28
5.28
0.85
-5.27
-13.24
-22.82
-33.04
-42.13
-47.86
-48.51
-43.64
-34.46
-23.29
-12.54
-3.72
2.82
7.65
11.48
14.71
17.29
19.01
19.88
20.28
20.76
21.81
23.61
26.07
28.81
31.34
33.11
33.60
32.55
30.03
26.53
22.75
19.34
16.50
14.06
11.62
8.86
5.83
2.83
0.22
-1.92
-3.83
-5.99
-8.76
-12.14
-15.78
-19.26
-22.38
-25.32
-28.61
-32.82
-38.21
-44.50
-50.85
-56.15
-59.30
-59.55
-56.74
-51.26
-44.02
-36.13
-28.69
-22.45
-17.66
-14.01
-10.86
-7.51
-3.49
1.21
6.24
10.92
14.65
17.02
18.00
17.87
17.10
16.28
15.88
16.17
17.17
18.57
19.90
20.67
20.60
19.62
17.97
15.91
13.65
11.26
8.68
5.85
2.81
-0.25
-3.12
-5.77
-8.40
-11.37
-14.94
-19.00
-22.88
-25.42
-25.38
-22.02
-15.45
-6.75
2.47
10.67
16.98
21.35
24.36
26.78
28.98
30.94
32.25
32.49
31.53
29.59
27.21
24.98
23.35
22.51
22.43
22.87
23.49
23.97
24.04
23.56
22.52
20.93
18.82
16.19
13.07
9.55
5.89
2.38
-0.69
-3.25
-5.44
-7.54
-9.91
-12.75
-16.06
-19.65
-23.35
-27.01
-30.64
-34.19
-37.46
-39.95
-40.97
-39.92
-36.47
-30.85
-23.75
-16.10
-8.78
-2.43
2.71
6.67
9.69
12.08
14.20
16.31
18.54
20.80
22.89
24.54
25.66
26.27
26.63
26.98
27.43
27.90
28.20
28.10
27.50
26.37
24.83
23.01
21.05
19.03
17.10
15.25
13.46
11.54
9.30
6.58
3.36
-0.17
-3.70
-6.88
-9.61
-12.02
-14.40
-17.11
-20.38
-24.18
-28.21
-31.96
-34.82
-36.21
-35.69
-33.13
-28.83
-23.39
-17.64
-12.28
-7.68
-3.85
-0.55
2.58
5.70
8.81
11.79
14.49
16.86
18.82
20.33
21.32
21.78
21.78
21.52
21.29
21.29
21.62
22.12
22.56
22.59
22.02
20.76
18.90
16.69
14.36
12.05
9.75
7.34
4.64
1.59
-1.66
-4.82
-7.54
-9.53
-10.73
-11.39
-11.90
-12.84
-14.76
-17.94
-22.40
-27.69
-32.97
-37.23
-39.48
-39.10
-36.05
-30.90
-24.63
-18.25
-12.51
-7.70
-3.60
0.22
4.11
8.12
11.98
15.24
17.51
18.68
18.97
18.80
18.63
18.74
19.19
19.86
20.51
20.85
20.67
19.87
18.54
16.91
15.28
13.82
12.54
11.20
9.54
7.43
4.94
2.32
-0.19
-2.43
-4.46
-6.51
-8.77
-11.33
-14.18
-17.20
-20.36
-23.67
-27.07
-30.34
-32.97
-34.25
-33.58
-30.70
-25.89
-19.95
-13.88
-8.52
-4.21
-0.78
2.28
5.46
8.94
12.58
15.97
18.71
20.61
21.72
22.25
22.38
22.13
21.42
20.25
18.83
17.58
17.00
17.35
18.49
19.90
20.91
20.92
19.75
17.56
14.81
11.95
9.31
7.01
5.02
3.26
1.62
0.01
-1.64
-3.46
-5.51
-7.82
-10.32
-12.90
-15.43
-17.90
-20.48
-23.49
-27.18
-31.54
-36.17
-40.22
-42.71
-42.79
-40.09
-34.88
-28.03
-20.69
-13.96
-8.60
-4.88
-2.50
-0.82
0.88
3.16
6.18
9.78
13.47
16.71
19.07
20.44
20.94
20.88
20.60
20.39
20.39
20.61
20.95
21.23
21.28
20.98
20.30
19.25
17.88
16.18
14.20
12.10
10.14
8.61
7.70
7.25
6.85
5.99
4.31
1.82
-1.12
-3.98
-6.47
-8.53
-10.44
-12.55
-15.12
-18.20
-21.67
-25.26
-28.78
-31.98
-34.58
-36.20
-36.38
-34.77
-31.28
-26.19
-20.14
-13.95
-8.42
-4.04
-0.91
1.24
2.91
4.53
6.41
8.60
10.89
13.03
14.77
15.93
16.51
16.73
16.86
17.14
17.70
18.40
19.03
19.29
18.94
17.94
16.39
14.58
12.79
11.20
9.87
8.73
7.61
6.30
4.63
2.48
-0.13
-3.07
-6.04
-8.73
-10.94
-12.71
-14.32
-16.24
-18.84
-22.27
-26.31
-30.46
-34.06
-36.47
-37.21
-36.04
-33.06
-28.65
-23.45
-18.18
-13.41
-9.42
-6.19
-3.42
-0.78
1.92
4.71
7.38
9.67
11.39
12.48
13.00
13.21
13.39
13.85
14.73
15.91
17.07
17.81
17.82
17.03
15.62
13.82
11.86
9.82
7.75
5.70
3.73
1.92
0.31
-1.14
-2.57
-4.09
-5.86
-7.96
-10.44
-13.36
-16.76
-20.55
-24.58
-28.45
-31.65
-33.56
-33.59
-31.37
-27.06
-21.22
-14.81
-8.90
-4.22
-0.96
1.22
2.94
4.79
7.04
9.60
12.13
14.29
15.85
16.77
17.12
17.05
16.71
16.21
15.75
15.44
15.35
15.44
15.53
15.37
14.72
13.56
12.00
10.36
8.97
8.04
7.62
7.43
7.07
6.11
4.28
1.54
-1.87
-5.57
-9.18
-12.42
-15.22
-17.74
-20.31
-23.22
-26.70
-30.57
-34.36
-37.35
-38.81
-38.27
-35.58
-31.12
-25.55
-19.64
-14.02
-9.07
-4.93
-1.56
1.14
3.34
5.18
6.88
8.57
10.34
12.18
13.93
15.43
16.55
17.25
17.65
17.97
18.35
18.89
19.50
20.02
20.29
20.16
19.59
18.62
17.37
15.94
14.40
12.82
11.19
9.46
7.57
5.42
2.98
0.24
-2.70
-5.62
-8.23
-10.35
-12.02
-13.56
-15.53
-18.43
-22.49
-27.44
-32.51
-36.63
-38.77
-38.28
-35.07
-29.66
-22.98
-16.10
-9.88
-4.83
-0.98
1.97
4.47
6.91
9.43
12.00
14.44
16.63
18.52
20.17
21.67
23.09
24.34
25.30
25.82
25.85
25.51
25.00
24.52
24.11
23.57
22.62
21.01
18.70
15.94
13.06
10.47
8.43
6.95
5.85
4.83
3.56
1.87
-0.21
-2.51
-4.72
-6.60
-8.01
-9.07
-10.10
-11.59
-14.03
-17.69
-22.48
-27.87
-32.95
-36.68
-38.17
-37.06
-33.58
-28.47
-22.71
-17.19
-12.45
-8.66
-5.67
-3.11
-0.64
1.99
4.85
7.78
10.56
12.91
14.68
15.85
16.57
17.01
17.33
17.57
17.73
17.79
17.73
17.60
17.41
17.19
16.84
16.21
15.19
13.74
11.93
9.83
7.57
5.18
2.73
0.29
-1.97
-3.93
-5.55
-6.95
-8.37
-10.11
-12.43
-15.42
-18.96
-22.64
-25.89
-28.04
-28.47
-26.85
-23.21
-18.02
-12.01
-5.97
-0.52
4.03
7.64
10.40
12.50
14.08
15.29
16.28
17.18
18.06
18.95
19.78
20.49
21.04
21.44
21.80
22.21
22.71
23.28
23.79
24.08
23.92
23.07
21.35
18.77
15.55
12.16
9.17
6.99
5.72
4.97
4.13
2.54
-0.03
-3.42
-7.07
-10.37
-12.93
-14.80
-16.31
-17.94
-20.11
-23.07
-26.82
-31.16
-35.62
-39.52
-42.04
-42.40
-40.16
-35.45
-28.90
-21.51
-14.34
-8.13
-3.28
0.22
2.62
4.29
5.64
7.02
8.70
10.76
13.14
15.53
17.65
19.33
20.55
21.49
22.35
23.18
23.89
24.36
24.44
24.14
23.55
22.81
21.93
20.90
19.65
18.15
16.48
14.76
13.07
11.44
9.78
7.95
5.89
3.60
1.14
-1.34
-3.66
-5.69
-7.33
-8.66
-9.89
-11.34
-13.27
-15.81
-18.90
-22.34
-25.82
-28.96
-31.42
-32.84
-32.89
-31.32
-28.10
-23.47
-18.02
-12.52
-7.71
-4.03
-1.47
0.39
2.18
4.43
7.30
10.53
13.55
15.84
17.11
17.54
17.52
17.43
17.50
17.65
17.70
17.47
17.02
16.50
16.09
15.84
15.55
14.94
13.77
11.96
9.71
7.34
5.24
3.61
2.46
1.61
0.81
-0.19
-1.50
-3.15
-5.10
-7.27
-9.50
-11.59
-13.33
-14.67
-15.84
-17.34
-19.70
-23.11
-27.12
-30.65
-32.47
-31.77
-28.56
-23.72
-18.54
-14.14
-10.99
-8.90
-7.29
-5.57
-3.43
-0.93
1.70
4.30
6.81
9.32
11.91
14.53
16.92
18.82
20.07
20.75
21.14
21.51
21.96
22.25
22.02
20.88
18.78
16.01
13.10
10.55
8.66
7.35
6.30
5.12
3.55
1.51
-0.92
-3.58
-6.31
-9.05
-11.77
-14.56
-17.51
-20.71
-24.18
-27.80
-31.27
-34.09
-35.74
-35.77
-33.98
-30.53
-25.90
-20.69
-15.52
-10.80
-6.72
-3.25
-0.27
2.44
5.03
7.53
9.91
12.09
13.94
15.38
16.31
16.68
16.54
16.06
15.51
15.18
15.30
15.85
16.67
17.49
18.01
18.12
17.75
16.91
15.68
14.10
12.28
10.40
8.60
6.93
5.30
3.45
1.16
-1.61
-4.61
-7.40
-9.57
-11.01
-11.96
-12.93
-14.50
-16.99
-20.36
-24.27
-28.09
-31.16
-32.91
-32.91
-30.97
-27.28
-22.39
-17.12
-12.33
-8.54
-5.78
-3.61
-1.43
1.22
4.42
7.92
11.33
14.32
16.80
18.79
20.35
21.38
21.71
21.28
20.28
19.07
18.09
17.69
17.86
18.38
18.82
18.85
18.28
17.17
15.64
13.83
11.95
10.13
8.49
7.08
5.78
4.37
2.57
0.29
-2.38
-5.16
-7.70
-9.85
-11.60
-13.16
-14.79
-16.77
-19.28
-22.48
-26.39
-30.72
-34.83
-37.72
-38.48
-36.58
-32.29
-26.59
-20.77
-15.93
-12.55
-10.35
-8.60
-6.52
-3.70
-0.21
3.46
6.77
9.30
11.00
12.06
12.83
13.61
14.54
15.56
16.54
17.33
17.88
18.19
18.26
18.05
17.51
16.62
15.48
14.16
12.75
11.16
9.23
6.82
3.94
0.78
-2.33
-5.10
-7.43
-9.37
-11.09
-12.75
-14.46
-16.36
-18.58
-21.25
-24.29
-27.33
-29.68
-30.60
-29.58
-26.51
-21.86
-16.35
-10.82
-5.83
-1.62
1.91
5.06
8.13
11.24
14.32
17.18
19.54
21.21
22.16
22.47
22.32
21.86
21.27
20.61
19.97
19.35
18.70
17.93
16.97
15.75
14.30
12.78
11.33
10.15
9.31
8.75
8.36
7.90
7.15
5.87
3.88
1.16
-2.08
-5.45
-8.43
-10.59
-11.87
-12.52
-13.11
-14.21
-16.29
-19.46
-23.50
-27.95
-32.16
-35.45
-37.11
-36.61
-33.78
-28.94
-22.86
-16.62
-11.21
-7.15
-4.44
-2.50
-0.58
1.90
5.17
8.95
12.75
16.02
18.40
19.80
20.42
20.60
20.71
21.05
21.82
23.00
24.43
25.84
26.86
27.20
26.73
25.50
23.79
21.86
19.91
18.02
16.18
14.39
12.69
11.12
9.63
8.10
6.28
3.98
1.15
-2.05
-5.24
-8.00
-9.99
-11.17
-11.79
-12.35
-13.37
-15.30
-18.27
-22.11
-26.34
-30.30
-33.27
-34.68
-34.20
-31.88
-28.11
-23.51
-18.79
-14.48
-10.81
-7.66
-4.75
-1.77
1.36
4.58
7.75
10.78
13.70
16.61
19.50
22.26
24.59
26.21
27.03
27.23
27.17
27.19
27.41
27.69
27.72
27.17
25.95
24.15
22.03
19.87
17.91
16.15
14.53
12.94
11.31
9.64
7.97
6.30
4.53
2.54
0.19
-2.43
-5.03
-7.19
-8.56
-9.14
-9.37
-9.96
-11.52
-14.35
-18.26
-22.78
-27.35
-31.48
-34.73
-36.67
-36.92
-35.17
-31.45
-26.20
-20.25
-14.53
-9.76
-6.23
-3.81
-2.09
-0.57
1.11
3.09
5.28
7.39
9.03
9.93
10.03
9.62
9.21
9.28
10.12
11.69
13.59
15.30
16.42
16.73
16.28
15.27
13.90
12.35
10.77
9.29
7.98
6.88
5.94
4.93
3.62
1.85
-0.38
-2.83
-5.20
-7.24
-8.87
-10.23
-11.58
-13.19
-15.24
-17.70
-20.38
-22.88
-24.68
-25.29
-24.34
-21.77
-17.81
-13.05
-8.20
-3.91
-0.57
1.73
3.25
4.40
5.60
7.17
9.15
11.36
13.50
15.27
16.54
17.32
17.77
18.04
18.14
18.03
17.62
16.90
15.94
14.83
13.66
12.39
10.97
9.41
7.82
6.40
5.32
4.66
4.29
4.03
3.67
3.06
2.15
0.84
-0.90
-3.01
-5.34
-7.63
-9.66
-11.42
-13.15
-15.33
-18.33
-22.33
-27.05
-31.84
-35.92
-38.53
-39.20
-37.77
-34.41
-29.57
-23.86
-17.97
-12.55
-8.05
-4.65
-2.24
-0.51
1.02
2.74
4.93
7.62
10.65
13.71
16.41
18.40
19.48
19.67
19.22
18.53
18.00
17.86
18.16
18.71
19.25
19.54
19.43
18.83
17.76
16.29
14.55
12.83
11.38
10.40
9.88
9.54
9.05
8.16
6.81
5.18
3.52
1.86
0.09
-2.12
-5.07
-8.72
-12.75
-16.58
-19.65
-21.69
-22.86
-23.76
-25.13
-27.54
-31.05
-35.14
-38.81
-40.92
-40.64
-37.74
-32.59
-26.13
-19.34
-13.09
-7.85
-3.80
-0.85
1.22
2.72
4.08
5.64
7.69
10.21
12.93
15.39
17.08
17.70
17.32
16.38
15.49
15.24
15.92
17.49
19.50
21.37
22.58
22.86
22.26
20.98
19.39
17.70
16.09
14.69
13.55
12.75
12.24
11.84
11.24
10.16
8.44
6.22
3.85
1.70
0.05
-1.16
-2.18
-3.42
-5.17
-7.47
-10.13
-12.84
-15.44
-17.95
-20.64
-23.77
-27.43
-31.35
-34.93
-37.47
-38.31
-37.21
-34.33
-30.19
-25.51
-20.94
-16.90
-13.49
-10.59
-7.94
-5.35
-2.73
-0.17
2.18
4.25
6.09
7.88
9.77
11.85
14.03
16.07
17.70
18.72
19.09
18.90
18.30
17.49
16.53
15.42
14.13
12.70
11.26
9.98
8.99
8.23
7.49
6.49
5.00
2.98
0.61
-1.75
-3.82
-5.44
-6.71
-7.89
-9.27
-11.07
-13.45
-16.46
-20.06
-24.03
-27.89
-30.96
-32.55
-32.19
-29.86
-26.00
-21.35
-16.58
-12.18
-8.29
-4.83
-1.74
0.98
3.22
4.92
6.12
7.01
7.77
8.50
9.18
9.58
9.52
8.87
7.72
6.31
4.88
3.62
2.49
1.17
-0.75
-3.66
-7.73
-12.82
-18.46
-24.11
-29.38
-34.16
-38.67
-43.24
-48.16
-53.51
-59.32
-65.55
-72.24
-79.54
-87.54
-96.32
-105.90
-116.35
-127.69
-139.84
-152.30
-164.04
-173.39
-178.43
-177.45
-169.40
-154.36
-133.23
-107.38
-77.94
-45.52
-10.41
26.75
64.18
98.79
126.51
143.46
147.06
136.87
114.73
84.17
49.57
15.28
-14.83
-37.61
-50.65
-52.56
-43.30
-24.44
1.05
29.52
57.66
83.30
105.56
124.49
140.27
152.86
161.95
167.41
169.51
168.76
165.41
159.18
149.55
136.56
121.43
106.48
94.23
86.03
81.35
77.99
73.16
64.79
52.39
37.13
21.24
7.25
-2.61
-6.92
-5.19
2.03
13.20
26.02
37.98
47.04
52.24
53.77
52.73
50.48
47.99
45.55
42.88
39.52
35.17
29.99
24.32
18.46
12.53
6.34
-0.34
-7.55
-14.91
-21.56
-26.28
-27.79
-25.20
-18.43
-8.40
3.08
13.84
22.03
26.66
27.83
26.51
24.23
22.69
23.44
27.57
35.29
45.61
56.40
64.93
68.98
67.78
62.19
54.24
45.96
38.43
31.41
23.81
14.53
3.21
-9.52
-22.23
-33.39
-41.67
-46.34
-47.24
-44.88
-40.23
-34.59
-29.29
-25.35
-23.41
-23.66
-25.87
-29.40
-33.38
-36.64
-38.05
-36.78
-32.77
-26.90
-20.89
-16.81
-16.22
-19.58
-25.97
-33.67
-41.06
-47.42
-53.09
-58.93
-65.41
-72.17
-78.15
-82.48
-85.26
-87.57
-90.73
-95.12
-99.60
-101.94
-99.98
-92.97
-82.08
-69.98
-59.65
-53.19
-51.13
-52.54
-55.56
-58.07
-58.43
-55.77
-50.20
-42.78
-35.06
-28.59
-24.28
-22.15
-21.49
-21.35
-21.06
-20.39
-19.30
-17.54
-14.50
-9.50
-2.43
6.02
14.35
21.16
25.94
29.55
33.86
40.63
50.45
62.27
73.70
82.03
85.16
82.12
72.90
58.27
39.52
18.45
-2.42
-20.04
-31.37
-34.19
-27.87
-13.69
5.47
25.85
43.71
56.15
61.58
59.96
52.75
42.41
31.69
22.90
17.12
14.22
13.21
12.97
12.87
12.95
13.63
15.31
18.03
21.37
24.68
27.46
29.48
30.70
31.30
31.50
31.69
32.30
33.72
36.07
38.94
41.50
42.67
41.55
37.75
31.48
23.45
14.66
6.24
-0.66
-5.06
-6.32
-4.43
-0.18
4.94
9.06
10.57
8.61
3.31
-4.35
-13.02
-21.49
-29.15
-35.97
-42.23
-48.31
-54.36
-60.21
-65.40
-69.31
-71.27
-70.78
-67.54
-61.59
-53.35
-43.59
-33.30
-23.44
-14.75
-7.54
-1.73
2.99
7.01
10.60
13.87
16.82
19.37
21.45
23.05
24.18
24.79
24.82
24.27
23.27
22.19
21.43
21.37
22.12
23.41
24.66
25.19
24.54
22.58
19.62
16.18
12.79
9.76
7.10
4.68
2.33
0.02
-2.28
-4.51
-6.63
-8.60
-10.36
-11.90
-13.25
-14.67
-16.58
-19.42
-23.47
-28.48
-33.75
-38.17
-40.70
-40.63
-37.90
-32.98
-26.68
-19.88
-13.29
-7.39
-2.35
1.82
5.31
8.33
11.11
13.81
16.47
18.99
21.17
22.79
23.75
24.05
23.87
23.50
23.23
23.23
23.54
24.08
24.68
25.02
24.61
22.90
19.43
14.15
7.43
0.08
-6.97
-12.96
-17.54
-20.71
-22.59
-23.21
-22.42
-19.96
-15.79
-10.27
-4.26
1.12
4.85
6.36
5.75
3.71
1.36
-0.14
-0.01
1.92
5.26
9.28
13.31
16.93
20.03
22.75
25.28
27.65
29.65
30.94
31.18
30.30
28.48
26.24
24.10
22.41
21.22
20.35
19.58
18.84
18.26
18.02
18.17
18.51
18.75
18.56
17.87
16.77
15.37
13.71
11.74
9.41
6.81
4.19
1.90
0.08
-1.40
-2.90
-4.82
-7.36
-10.36
-13.46
-16.28
-18.56
-20.33
-21.85
-23.49
-25.59
-28.35
-31.85
-36.05
-40.70
-45.35
-49.25
-51.60
-51.70
-49.27
-44.60
-38.46
-31.80
-25.52
-20.04
-15.34
-11.10
-6.90
-2.53
1.98
6.31
10.07
12.98
15.06
16.66
18.31
20.54
23.59
27.42
31.76
36.25
40.60
44.55
47.86
50.17
51.11
50.38
47.95
44.14
39.60
35.05
31.13
28.09
25.84
23.99
22.02
19.55
16.53
13.16
9.85
6.94
4.63
2.85
1.44
0.30
-0.66
-1.44
-2.18
-3.15
-4.63
-6.76
-9.39
-12.09
-14.40
-15.99
-16.91
-17.51
-18.26
-19.57
-21.65
-24.50
-27.98
-31.85
-35.77
-39.27
-41.71
-42.42
-40.93
-37.24
-31.87
-25.69
-19.70
-14.59
-10.61
-7.55
-4.97
-2.43
0.24
2.99
5.63
7.94
9.82
11.28
12.42
13.34
14.12
14.85
15.58
16.32
17.09
17.87
18.58
19.13
19.39
19.26
18.65
17.63
16.33
14.94
13.65
12.52
11.51
10.48
9.31
7.95
6.42
4.77
2.97
0.91
-1.52
-4.35
-7.47
-10.65
-13.62
-16.21
-18.42
-20.44
-22.54
-24.93
-27.62
-30.45
-33.04
-34.94
-35.67
-34.90
-32.54
-28.81
-24.18
-19.30
-14.72
-10.82
-7.62
-4.97
-2.67
-0.76
0.48
0.62
-0.46
-2.42
-4.40
-5.39
-4.76
-2.46
0.97
4.83
8.72
12.71
17.11
22.02
26.92
30.87
33.03
33.23
32.15
30.87
30.27
30.42
30.74
30.41
29.02
26.84
24.60
23.00
22.25
22.05
21.85
21.19
19.89
17.96
15.42
12.14
8.04
3.20
-1.93
-6.63
-10.20
-12.24
-12.96
-13.03
-13.46
-15.09
-18.34
-22.96
-28.19
-33.01
-36.42
-37.71
-36.61
-33.29
-28.26
-22.25
-16.04
-10.25
-5.27
-1.16
2.18
4.90
7.01
8.45
9.04
8.67
7.39
5.44
3.28
1.39
0.16
-0.20
0.30
1.43
2.95
4.57
6.14
7.53
8.66
9.39
9.58
9.16
8.25
7.13
6.23
5.84
6.02
6.56
7.15
7.44
7.29
6.66
5.69
4.47
2.98
1.18
-1.02
-3.55
-6.27
-8.96
-11.56
-14.16
-17.06
-20.50
-24.59
-29.15
-33.73
-37.64
-40.16
-40.76
-39.25
-35.83
-31.08
-25.81
-20.77
-16.42
-12.82
-9.63
-6.36
-2.68
1.40
5.53
9.17
11.89
13.60
14.51
14.93
15.09
15.02
14.60
13.72
12.45
11.05
9.91
9.28
9.13
9.16
8.85
7.73
5.63
2.73
-0.40
-3.11
-4.87
-5.54
-5.39
-5.05
-5.18
-6.27
-8.48
-11.61
-15.16
-18.52
-21.10
-22.46
-22.42
-21.14
-19.15
-17.19
-16.08
-16.38
-18.19
-21.02
-23.95
-25.90
-25.99
-23.91
-19.95
-14.86
-9.54
-4.77
-0.97
1.79
3.72
5.19
6.59
8.22
10.27
12.71
15.30
17.64
19.27
19.87
19.41
18.14
16.53
15.03
13.95
13.34
13.05
12.81
12.35
11.54
10.35
8.89
7.23
5.38
3.32
1.03
-1.40
-3.80
-5.92
-7.57
-8.62
-9.09
-9.14
-9.02
-8.93
-9.06
-9.57
-10.60
-12.23
-14.43
-17.01
-19.56
-21.47
-22.12
-21.16
-18.59
-14.86
-10.64
-6.59
-3.02
0.10
3.05
5.95
8.73
11.08
12.61
13.14
12.80
12.00
11.23
10.90
11.22
12.13
13.49
15.06
16.66
18.17
19.51
20.60
21.27
21.28
20.42
18.64
16.08
13.15
10.31
7.86
5.90
4.29
2.77
1.17
-0.53
-2.30
-4.06
-5.86
-7.81
-10.01
-12.53
-15.32
-18.38
-21.68
-25.28
-29.12
-32.94
-36.32
-38.69
-39.50
-38.54
-35.90
-32.00
-27.40
-22.60
-17.89
-13.43
-9.25
-5.42
-2.00
1.02
3.69
6.15
8.58
11.08
13.60
16.02
18.16
19.90
21.25
22.27
23.04
23.68
24.28
24.98
26.00
27.40
29.02
30.53
31.41
31.25
29.95
27.80
25.34
23.13
21.44
20.17
19.01
17.61
15.92
14.09
12.41
11.01
9.84
8.65
7.11
5.01
2.32
-0.87
-4.33
-7.92
-11.51
-14.99
-18.30
-21.34
-24.17
-26.96
-29.91
-33.12
-36.38
-39.16
-40.71
-40.40
-37.93
-33.62
-28.24
-22.78
-18.03
-14.37
-11.64
-9.35
-6.95
-4.07
-0.67
3.03
6.69
10.05
12.98
15.47
17.57
19.26
20.52
21.35
21.90
22.41
23.16
24.30
25.76
27.25
28.43
29.08
29.16
28.90
28.54
28.26
28.11
27.93
27.55
26.79
25.56
23.86
21.71
19.19
16.39
13.52
10.76
8.28
6.17
4.37
2.61
0.60
-1.88
-4.91
-8.30
-11.77
-15.02
-17.86
-20.29
-22.54
-24.97
-27.97
-31.80
-36.36
-41.14
-45.25
-47.66
-47.55
-44.65
-39.42
-32.87
-26.20
-20.37
-15.82
-12.45
-9.82
-7.45
-5.01
-2.42
0.27
2.88
5.28
7.36
9.08
10.53
11.82
13.09
14.41
15.70
16.69
17.01
16.42
14.87
12.64
10.14
7.77
5.77
4.10
2.49
0.63
-1.69
-4.49
-7.55
-10.51
-13.01
-14.80
-15.94
-16.80
-17.99
-20.10
-23.45
-27.81
-32.37
-36.01
-37.74
-37.28
-35.30
-33.18
-32.31
-33.28
-35.24
-36.02
-32.92
-23.76
-7.72
14.68
42.15
73.35
107.34
143.42
180.53
216.90
250.13
277.67
297.67
309.08
311.74
305.93
292.37
272.19
247.35
220.66
195.28
173.90
157.66
145.52
134.38
120.56
101.79
79.08
56.99
41.96
39.08
49.27
68.20
88.11
101.36
103.91
96.80
84.81
73.40
65.93
62.58
61.35
60.11
58.05
55.88
54.68
54.65
54.58
52.36
46.10
35.16
20.67
5.16
-8.50
-18.09
-22.71
-22.79
-19.64
-14.61
-8.56
-1.66
6.19
14.94
23.93
31.97
37.63
39.92
38.56
34.07
27.36
19.10
9.35
-2.49
-17.18
-35.08
-55.69
-77.76
-99.92
-121.47
-142.98
-166.17
-193.11
-225.24
-262.58
-303.86
-347.17
-390.79
-433.46
-473.97
-510.42
-540.06
-559.82
-567.29
-561.78
-544.17
-516.12
-478.87
-432.84
-378.89
-320.42
-264.94
-222.93
-204.15
-212.69
-243.87
-284.97
-320.09
-336.60
-329.86
-304.03
-268.51
-232.85
-202.60
-178.44
-158.17
-139.63
-122.66
-108.70
-99.05
-93.30
-88.98
-82.53
-71.27
-54.85
-35.59
-17.71
-5.49
-1.71
-6.64
-18.29
-33.34
-48.65
-62.37
-74.29
-85.42
-96.93
-109.17
-121.09
-130.50
-134.91
-132.52
-123.05
-107.90
-89.55
-70.62
-52.85
-36.50
-20.41
-2.76
17.95
42.09
68.56
95.30
120.06
141.25
158.64
173.24
186.94
201.99
220.53
244.16
273.01
305.02
335.57
358.34
367.21
358.74
334.09
299.28
263.46
235.71
221.89
222.91
235.18
252.61
269.17
280.63
285.17
282.70
273.92
259.68
240.86
218.73
195.15
172.68
153.64
139.34
129.42
122.03
114.74
105.60
93.93
80.40
66.44
53.23
40.98
28.78
15.26
-0.30
-17.37
-34.04
-47.92
-57.19
-61.56
-62.45
-62.51
-64.55
-70.35
-80.15
-92.44
-104.63
-113.98
-118.38
-116.91
-109.74
-97.80
-82.25
-64.28
-45.01
-25.70
-7.80
7.41
19.06
27.08
32.15
35.32
37.48
39.12
40.20
40.48
39.88
38.54
36.85
35.20
33.79
32.42
30.67
27.96
23.94
18.74
13.06
7.99
4.74
4.19
6.57
11.35
17.30
22.76
26.14
26.42
23.66
19.14
15.01
13.73
17.21
26.14
39.77
56.08
72.38
86.13
95.62
100.32
100.86
98.70
95.43
92.24
89.60
87.22
84.41
80.58
75.59
69.94
64.59
60.55
58.47
58.30
59.14
59.69
58.75
55.77
51.11
45.79
40.88
37.07
34.36
32.32
30.37
28.02
24.80
20.13
13.22
3.37
-9.58
-24.92
-41.08
-55.99
-67.84
-75.68
-79.55
-80.24
-78.83
-76.25
-73.10
-69.67
-66.17
-62.87
-60.16
-58.40
-57.66
-57.47
-56.93
-55.03
-51.17
-45.49
-38.79
-32.15
-26.36
-21.62
-17.47
-13.19
-8.28
-2.62
3.46
9.44
14.87
19.35
22.46
23.62
22.28
18.09
11.30
2.84
-5.87
-13.41
-18.82
-21.88
-23.08
-23.22
-23.04
-22.84
-22.56
-21.91
-20.62
-18.65
-16.21
-13.71
-11.51
-9.86
-8.91
-8.74
-9.41
-10.99
-13.54
-17.06
-21.51
-26.81
-32.81
-39.29
-45.96
-52.37
-57.96
-62.01
-63.84
-62.89
-59.01
-52.49
-44.08
-34.74
-25.42
-16.79
-9.09
-2.22
4.03
9.81
15.03
19.47
22.92
25.28
26.72
27.61
28.36
29.24
30.27
31.29
32.13
32.75
33.32
34.11
35.23
36.47
37.35
37.32
36.13
34.00
31.54
29.43
28.04
27.25
26.50
25.12
22.75
19.40
15.41
11.20
7.01
2.83
-1.56
-6.45
-12.01
-18.28
-25.11
-32.15
-38.87
-44.54
-48.29
-49.38
-47.33
-42.17
-34.47
-25.21
-15.67
-7.14
-0.59
3.60
5.80
7.06
8.60
11.18
14.72
18.29
20.79
21.63
21.20
20.69
21.32
23.66
27.23
30.95
33.86
35.65
36.81
38.02
39.54
40.92
41.19
39.54
35.82
30.66
25.12
20.14
16.10
12.84
9.89
6.81
3.52
0.28
-2.49
-4.42
-5.38
-5.49
-4.94
-3.90
-2.50
-0.79
1.23
3.47
5.90
8.59
11.78
15.81
21.00
27.31
34.15
40.46
44.94
46.57
45.04
40.92
35.49
30.33
26.89
26.02
27.90
32.09
37.72
43.65
48.79
52.20
53.26
51.76
47.89
42.21
35.42
28.29
21.36
14.92
9.07
3.79
-0.86
-4.81
-7.84
-9.77
-10.50
-10.05
-8.58
-6.42
-4.16
-2.59
-2.63
-4.97
-9.81
-16.76
-24.93
-33.33
-41.35
-48.92
-56.42
-64.34
-72.89
-81.85
-90.58
-98.37
-104.56
-108.62
-110.16
-108.76
-104.14
-96.44
-86.23
-74.52
-62.38
-50.62
-39.47
-28.73
-17.96
-6.94
4.10
14.60
23.91
31.68
38.01
43.33
48.07
52.32
55.77
57.94
58.49
57.60
55.96
54.49
53.88
54.14
54.60
54.30
52.44
48.90
44.30
39.71
36.11
33.87
32.52
31.06
28.26
23.39
16.51
8.60
1.29
-3.62
-4.73
-1.42
5.99
16.24
27.47
37.65
45.03
48.59
48.33
45.25
40.80
36.21
31.75
26.58
19.37
9.23
-3.35
-16.38
-27.08
-33.28
-34.45
-31.89
-27.78
-23.76
-19.86
-14.56
-5.92
7.04
23.51
41.32
58.12
72.73
85.61
98.12
110.98
123.46
133.45
138.87
139.04
134.97
128.34
119.76
107.92
90.41
65.89
36.04
5.94
-17.74
-29.64
-28.21
-16.04
1.67
19.62
34.28
44.05
48.30
46.27
36.84
19.23
-5.85
-35.55
-65.34
-90.41
-107.36
-115.20
-115.31
-110.63
-104.05
-97.43
-91.06
-84.18
-75.80
-65.51
-53.97
-42.71
-33.62
-28.25
-27.25
-30.26
-36.11
-43.31
-50.48
-56.61
-61.04
-63.36
-63.23
-60.51
-55.29
-48.06
-39.62
-30.96
-23.03
-16.68
-12.50
-10.85
-11.73
-14.75
-19.14
-23.91
-28.14
-31.32
-33.54
-35.44
-37.84
-41.33
-45.96
-51.31
-56.64
-61.21
-64.58
-66.64
-67.53
-67.64
-67.36
-67.06
-67.01
-67.16
-67.23
-66.63
-64.70
-60.91
-55.15
-47.77
-39.53
-31.22
-23.35
-16.07
-9.10
-2.13
4.98
12.04
18.57
24.07
28.24
31.15
33.19
34.80
36.30
37.76
39.08
40.12
40.79
41.05
40.87
40.21
38.98
37.12
34.64
31.67
28.44
25.22
22.22
19.63
17.52
15.88
14.61
13.53
12.40
10.93
8.92
6.30
3.11
-0.53
-4.56
-8.98
-13.81
-18.94
-23.98
-28.24
-30.93
-31.43
-29.63
-25.94
-21.17
-16.18
-11.58
-7.59
-4.15
-1.02
1.92
4.64
7.06
9.01
10.45
11.42
12.03
12.43
12.73
13.02
13.34
13.75
14.21
14.68
15.10
15.35
15.35
15.13
14.81
14.45
14.06
13.49
12.47
10.78
8.34
5.33
2.17
-0.65
-2.81
-4.25
-5.33
-6.62
-8.79
-12.33
-17.28
-23.19
-29.18
-34.19
-37.19
-37.57
-35.20
-30.52
-24.29
-17.44
-10.80
-4.95
-0.16
3.59
6.50
8.84
10.95
13.03
15.23
17.53
19.75
21.69
23.18
24.13
24.66
25.02
25.43
26.03
26.77
27.46
27.84
27.60
26.53
24.49
21.63
18.26
14.90
12.03
9.92
8.47
7.24
5.61
3.12
-0.31
-4.39
-8.54
-12.21
-15.14
-17.40
-19.37
-21.48
-24.19
-27.73
-32.04
-36.72
-41.05
-44.14
-45.14
-43.57
-39.48
-33.50
-26.59
-19.70
-13.53
-8.27
-3.77
0.27
4.07
7.66
10.89
13.64
15.90
17.83
19.59
21.31
22.98
24.53
25.80
26.74
27.30
27.51
27.40
27.03
26.46
25.74
24.91
23.90
22.54
20.67
18.23
15.35
12.34
9.48
6.94
4.69
2.58
0.45
-1.70
-3.81
-5.80
-7.69
-9.67
-11.93
-14.66
-17.99
-21.89
-26.29
-31.03
-35.86
-40.37
-43.99
-46.07
-46.07
-43.77
-39.41
-33.67
-27.44
-21.53
-16.37
-11.96
-7.96
-3.90
0.50
5.21
9.91
14.19
17.76
20.54
22.64
24.19
25.33
26.13
26.67
27.02
27.27
27.46
27.56
27.45
27.06
26.29
25.14
23.62
21.85
19.96
18.15
16.57
15.33
14.40
13.67
13.03
12.43
11.89
11.42
10.89
9.98
8.27
5.44
1.52
-3.12
-7.87
-12.14
-15.67
-18.59
-21.25
-24.08
-27.28
-30.90
-34.81
-38.85
-42.76
-46.14
-48.43
-49.05
-47.58
-43.98
-38.67
-32.33
-25.73
-19.44
-13.79
-8.84
-4.49
-0.63
2.83
5.94
8.64
10.94
12.83
14.41
15.83
17.23
18.63
19.90
20.82
21.24
21.24
20.98
20.74
20.66
20.71
20.73
20.55
20.05
19.17
17.97
16.51
14.91
13.34
11.92
10.67
9.40
7.73
5.28
2.04
-1.61
-4.95
-7.20
-7.93
-7.29
-5.94
-4.86
-4.94
-6.72
-10.36
-15.65
-22.03
-28.68
-34.59
-38.73
-40.25
-38.76
-34.53
-28.44
-21.75
-15.62
-10.86
-7.66
-5.63
-4.16
-2.65
-0.80
1.30
3.37
5.10
6.30
6.99
7.39
7.79
8.38
9.22
10.25
11.37
12.41
13.29
13.90
14.16
13.95
13.08
11.48
9.22
6.65
4.29
2.57
1.66
1.32
0.98
0.04
-1.78
-4.29
-6.97
-9.28
-10.94
-12.17
-13.53
-15.66
-18.97
-23.35
-28.23
-32.71
-35.74
-36.50
-34.68
-30.57
-24.95
-18.89
-13.28
-8.62
-4.81
-1.39
2.17
6.25
10.80
15.51
19.88
23.43
25.84
27.04
27.10
26.30
24.98
23.47
22.06
20.84
19.78
18.73
17.51
15.97
14.09
11.97
9.79
7.77
6.13
5.03
4.50
4.34
4.13
3.37
1.68
-1.10
-4.67
-8.44
-11.77
-14.20
-15.71
-16.66
-17.70
-19.50
-22.56
-26.98
-32.51
-38.45
-43.79
-47.41
-48.35
-46.19
-41.18
-34.24
-26.54
-19.21
-12.87
-7.58
-2.96
