1712257137.00
64.000000
-0.00
-0.00
-0.00
-0.00
-0.00
-0.00
-0.00
-0.00
-0.00
-0.00
0.00
0.01
0.01
-0.00
-0.03
-0.05
-0.05
0.00
0.13
0.36
0.66
1.01
1.37
1.72
2.06
2.40
2.79
3.24
3.80
4.42
5.06
5.66
6.20
6.68
7.15
7.68
8.31
9.14
10.09
11.04
11.88
12.56
13.14
13.76
14.65
15.96
17.91
20.32
22.90
25.38
27.58
29.57
31.68
34.32
37.81
42.54
48.15
54.10
59.83
64.97
69.58
74.14
79.34
85.71
93.76
103.00
112.62
121.73
129.77
136.75
143.30
150.75
157.77
166.64
177.95
191.79
206.97
220.57
228.25
225.36
208.53
176.87
132.76
80.05
23.07
-34.94
-92.44
-149.16
-205.23
-260.37
-313.74
-363.87
-409.82
-450.89
-486.46
-515.68
-537.14
-549.10
-549.80
-538.16
-513.95
-478.36
-433.51
-382.02
-326.52
-269.27
-211.99
-155.94
-102.16
-51.50
-4.95
36.63
72.58
102.61
126.87
145.88
160.34
170.95
178.34
182.92
184.96
184.69
182.40
178.43
173.18
167.07
160.44
153.55
146.53
139.46
132.38
125.34
118.39
111.61
105.06
98.81
92.89
87.31
82.08
77.21
72.72
68.61
64.88
61.54
58.61
56.07
53.93
52.18
50.80
49.77
49.02
48.46
47.99
47.44
46.63
45.39
43.54
40.96
37.56
33.34
28.31
22.60
16.40
9.95
3.52
-2.65
-8.31
-13.27
-17.39
-20.60
-22.89
-24.31
-24.97
-24.98
-24.46
-23.55
-22.36
-20.97
-19.43
-17.77
-16.02
-14.18
-12.27
-10.29
-8.22
-6.08
-3.87
-1.59
0.79
3.21
5.67
8.18
10.77
13.46
16.31
19.33
22.59
26.15
29.97
34.05
38.42
43.09
48.07
53.32
58.81
64.50
70.45
76.50
82.62
88.82
95.14
101.55
107.97
114.29
120.40
126.26
131.62
136.40
140.53
143.90
146.24
147.07
145.68
141.18
134.63
126.53
117.45
107.96
98.47
89.08
79.55
69.39
58.14
45.64
31.89
17.41
2.95
-10.87
-23.94
-36.72
-50.10
-64.97
-81.74
-100.29
-119.83
-139.20
-157.50
-174.41
-190.38
-206.40
-223.78
-243.82
-267.59
-295.28
-325.75
-356.19
-382.47
-400.05
-405.37
-397.10
-376.66
-347.91
-315.70
-284.34
-256.26
-231.55
-208.40
-184.31
-157.40
-127.22
-94.86
-62.17
-30.89
-2.04
24.01
47.09
66.71
82.20
93.43
101.49
108.96
119.09
134.38
155.21
179.33
202.59
220.46
229.91
230.54
224.70
216.54
210.40
209.14
213.27
221.06
229.68
236.51
240.15
240.51
238.27
233.87
227.09
217.03
202.69
183.55
159.93
132.86
103.82
74.39
46.17
20.73
-0.54
-16.58
-26.98
-32.18
-33.45
-32.45
-30.75
-29.46
-29.19
-30.18
-32.63
-36.84
-43.00
-50.97
-59.96
-68.77
-76.19
-81.63
-85.32
-88.10
-90.77
-93.42
-95.14
-94.37
-89.71
-80.52
-67.27
-51.20
-33.81
-16.59
-1.12
10.71
16.90
16.19
9.04
-1.63
-11.01
-13.98
-7.08
10.13
35.00
63.04
89.77
112.05
128.49
139.01
144.06
144.13
139.81
132.01
122.17
112.04
103.09
95.99
90.34
84.89
78.00
68.40
55.56
39.63
21.25
1.14
-20.04
-41.75
-63.42
-84.48
-104.47
-123.22
-140.84
-157.57
-173.42
-188.02
-200.64
-210.55
-217.51
-221.95
-225.10
-228.55
-233.96
-242.51
-254.73
-270.50
-289.18
-309.78
-331.14
-352.09
-371.49
-388.35
-401.82
-411.27
-416.21
-416.15
-410.45
-398.24
-378.56
-350.93
-316.14
-276.80
-237.27
-202.52
-176.43
-160.15
-151.63
-146.48
-139.92
-128.69
-112.01
-91.18
-68.35
-45.16
-22.27
0.40
22.86
44.68
65.09
83.67
100.99
118.69
139.04
163.84
193.36
225.70
256.90
282.08
296.99
299.60
290.81
274.13
254.27
235.34
219.63
207.14
196.43
185.80
174.39
162.58
151.50
142.25
135.13
129.50
124.14
117.92
110.33
101.60
92.41
83.41
74.96
67.14
59.99
53.72
48.79
45.72
44.84
45.97
48.45
51.24
53.19
53.35
51.23
47.01
41.44
35.63
30.71
27.39
25.80
25.51
25.76
25.83
25.36
24.33
22.91
21.34
19.68
17.82
15.63
13.03
10.06
6.85
3.52
0.12
-3.27
-6.54
-9.46
-11.77
-13.35
-14.29
-14.87
-15.43
-16.18
-17.10
-18.04
-18.78
-19.25
-19.44
-19.38
-19.11
-18.72
-18.56
-19.21
-21.35
-25.57
-32.07
-40.60
-50.55
-61.12
-71.24
-79.46
-83.82
-82.09
-72.42
-54.28
-29.18
-0.53
27.13
49.61
64.18
70.32
69.50
64.46
58.27
53.48
51.68
53.35
58.12
65.00
72.76
80.16
86.06
89.51
89.82
86.74
80.71
72.93
65.09
58.92
55.49
54.79
55.83
57.09
57.16
55.20
51.03
44.99
37.65
29.66
21.68
14.50
8.95
5.66
4.83
5.98
8.10
10.00
10.83
10.42
9.31
8.35
8.19
8.82
9.56
9.30
7.14
2.93
-2.54
-7.61
-10.40
-9.33
-3.78
5.79
17.94
30.73
42.31
51.47
57.88
62.21
65.69
69.76
75.41
82.86
91.40
99.61
105.80
108.54
107.08
101.50
92.63
81.82
70.47
59.78
50.48
42.72
36.15
30.15
24.09
17.67
11.05
4.76
-0.58
-4.56
-7.29
-9.35
-11.57
-14.66
-18.89
-24.01
-29.31
-33.90
-36.91
-37.64
-35.49
-30.01
-21.01
-8.70
6.01
21.55
35.91
47.19
54.05
56.19
54.32
49.80
44.09
38.21
32.55
26.84
20.55
13.22
4.69
-4.87
-15.12
-25.73
-36.65
-47.96
-59.78
-71.99
-84.08
-95.21
-104.56
-111.70
-116.86
-121.01
-125.52
-131.62
-139.92
-150.04
-160.76
-170.41
-177.42
-180.80
-180.35
-176.43
-169.56
-159.96
-147.39
-131.42
-111.88
-89.27
-64.83
-40.23
-16.94
4.17
22.89
39.29
53.27
64.42
72.19
76.30
77.12
75.54
72.67
69.30
65.63
61.34
55.99
49.28
41.34
32.64
23.88
15.87
9.31
4.84
2.79
3.16
5.48
8.93
12.57
15.63
17.78
19.18
20.35
21.82
23.89
26.41
28.93
30.93
32.06
32.25
31.67
30.60
29.22
27.61
25.80
23.82
21.84
20.03
18.49
17.19
15.92
14.45
12.61
10.37
7.86
5.32
2.97
0.95
-0.74
-2.28
-4.04
-6.40
-9.61
-13.58
-17.81
-21.51
-23.83
-24.21
-22.56
-19.33
-15.20
-10.93
-7.07
-3.93
-1.61
-0.10
0.72
1.10
1.46
2.27
3.93
6.59
10.09
14.04
17.99
21.60
24.72
27.30
29.30
30.59
30.99
30.40
28.95
26.97
24.94
23.32
22.46
22.54
23.63
25.59
28.11
30.58
32.20
32.12
29.83
25.42
19.68
13.93
9.53
7.41
7.78
10.11
13.45
16.79
19.34
20.75
21.07
20.77
20.69
21.82
24.89
29.91
35.73
40.23
40.91
35.92
25.01
9.71
-7.16
-22.69
-34.99
-43.79
-50.26
-56.15
-62.89
-71.01
-80.11
-89.09
-96.68
-101.62
-102.81
-99.37
-90.86
-77.50
-60.37
-41.44
-23.12
-7.69
3.33
9.44
11.23
9.90
6.90
3.49
0.57
-1.31
-1.96
-1.50
-0.37
0.76
1.04
-0.17
-3.08
-7.33
-12.03
-16.14
-18.91
-20.14
-20.20
-19.69
-18.99
-17.93
-15.84
-11.98
-6.13
0.88
7.27
10.76
9.33
1.90
-11.44
-29.52
-50.38
-71.78
-91.48
-107.68
-119.34
-126.40
-129.61
-129.92
-127.83
-122.84
-113.60
-98.59
-77.12
-50.01
-19.52
11.29
39.43
62.61
79.57
90.03
94.80
95.59
94.74
94.51
96.35
100.21
104.54
106.94
104.79
95.75
77.90
49.66
10.22
-39.68
-96.82
-155.11
-206.47
-242.81
-258.32
-251.01
-222.79
-178.16
-122.69
-62.03
-1.81
52.08
93.81
119.02
126.60
119.89
106.12
93.87
89.77
96.13
110.51
127.46
141.41
148.98
149.74
145.36
137.96
128.74
117.49
103.17
84.84
62.69
38.30
14.38
-6.11
-21.03
-29.76
-33.29
-33.69
-33.17
-33.22
-34.17
-35.38
-35.74
-34.37
-31.01
-26.14
-20.66
-15.47
-11.24
-8.35
-7.33
-8.98
-14.48
-24.79
-40.04
-58.94
-78.92
-96.85
-110.18
-117.86
-120.56
-120.19
-118.79
-117.78
-117.45
-117.21
-116.09
-113.30
-108.55
-101.99
-94.04
-85.13
-75.62
-65.81
-56.00
-46.65
-38.34
-31.84
-28.04
-27.74
-31.38
-38.48
-47.11
-53.89
-54.56
-45.39
-24.61
6.76
45.23
86.02
124.73
158.32
185.44
205.89
220.06
228.54
232.20
232.34
230.54
228.29
226.55
225.50
224.87
224.31
223.82
223.65
224.16
225.35
226.76
227.51
226.46
222.67
215.64
205.62
193.67
181.40
170.54
162.32
156.94
153.37
149.73
143.99
134.82
122.24
107.44
92.21
78.09
65.69
54.65
44.10
33.31
22.11
10.76
-0.42
-11.47
-22.74
-34.58
-46.89
-58.89
-69.49
-77.80
-83.70
-87.89
-91.44
-95.27
-99.67
-104.31
-108.57
-111.86
-113.86
-114.50
-113.87
-112.17
-109.73
-107.01
-104.53
-102.61
-101.13
-99.63
-97.40
-93.94
-89.18
-83.48
-77.43
-71.59
-66.19
-61.32
-56.82
-52.55
-48.36
-44.03
-39.41
-34.36
-28.96
-23.43
-18.22
-13.76
-10.37
-8.04
-6.53
-5.38
-4.09
-2.33
-0.00
2.65
5.20
7.14
8.07
7.85
6.65
4.84
2.83
1.00
-0.46
-1.50
-2.17
-2.61
-2.89
-3.08
-3.22
-3.33
-3.51
-3.96
-4.86
-6.35
-8.38
-10.66
-12.83
-14.58
-15.80
-16.56
-17.00
-17.14
-16.86
-15.99
-14.43
-12.33
-10.06
-7.99
-6.36
-5.22
-4.50
-4.12
-4.17
-4.78
-6.02
-7.78
-9.67
-11.25
-12.28
-12.94
-13.89
-15.97
-19.89
-25.85
-33.43
-41.78
-50.00
-57.46
-63.80
-68.85
-72.35
-73.95
-73.35
-70.60
-66.22
-61.06
-55.95
-51.28
-46.96
-42.52
-37.46
-31.53
-24.87
-17.89
-11.14
-5.12
-0.27
3.08
4.79
4.90
3.62
1.35
-1.63
-5.21
-9.52
-14.82
-21.31
-28.95
-37.42
-46.10
-54.32
-61.46
-67.14
-71.23
-73.89
-75.37
-75.98
-75.88
-75.12
-73.67
-71.49
-68.65
-65.31
-61.77
-58.30
-55.14
-52.42
-50.18
-48.35
-46.86
-45.51
-44.07
-42.31
-39.94
-36.55
-31.56
-24.22
-13.80
0.12
17.30
36.69
56.41
74.17
87.77
95.60
97.28
93.85
87.76
82.23
80.32
83.77
92.12
102.72
111.44
114.24
108.56
94.11
72.65
47.00
19.97
-6.37
-30.79
-52.55
-71.10
-86.07
-97.47
-105.98
-112.77
-119.18
-126.15
-133.90
-142.02
-149.82
-156.96
-163.61
-170.46
-178.33
-187.70
-198.40
-209.54
-219.84
-227.98
-232.88
-233.95
-231.07
-224.51
-214.72
-202.07
-186.47
-167.24
-143.23
-113.40
-77.71
-37.83
2.79
39.61
68.34
86.27
92.77
89.08
77.33
59.86
38.74
15.93
-6.41
-25.97
-40.60
-48.90
-50.58
-46.52
-38.35
-27.92
-16.64
-5.27
6.20
18.37
32.13
48.41
68.15
92.42
122.30
158.25
199.03
240.81
277.28
301.10
306.51
291.72
259.95
218.45
175.79
138.89
111.20
92.58
80.62
72.44
65.93
60.13
54.84
50.12
45.92
42.04
38.16
33.99
29.41
24.51
19.60
15.19
11.81
9.75
8.74
7.85
5.74
1.21
-6.14
-15.48
-24.82
-31.64
-33.90
-30.94
-23.77
-14.63
-6.00
0.50
4.78
8.32
13.82
24.36
42.75
70.62
107.77
151.66
197.56
239.41
271.27
288.76
290.03
275.73
248.24
210.66
166.08
117.22
66.56
16.49
-30.84
-73.89
-112.25
-146.75
-179.25
-211.64
-244.75
-277.21
-305.29
-323.66
-327.25
-313.07
-281.32
-235.57
-181.89
-127.55
-79.29
-41.78
-16.42
-1.12
8.65
17.83
29.40
42.93
55.15
62.26
62.61
58.15
53.63
53.68
60.00
70.43
80.40
86.17
87.73
89.60
99.22
123.44
164.64
218.78
275.92
323.75
352.00
356.16
338.50
306.33
268.42
231.59
199.02
170.68
145.22
121.62
99.85
80.29
62.76
46.13
28.83
9.95
-10.11
-29.65
-46.45
-58.75
-66.01
-68.96
-69.26
-68.85
-69.28
-71.38
-75.02
-79.25
-82.74
-84.38
-83.74
-81.25
-78.14
-75.83
-75.39
-77.06
-80.24
-83.75
-86.33
-87.05
-85.61
-82.26
-77.65
-72.60
-67.82
-63.78
-60.66
-58.28
-56.25
-54.16
-51.69
-48.85
-45.89
-43.17
-41.04
-39.67
-39.03
-39.03
-39.59
-40.60
-42.00
-43.61
-45.12
-46.18
-46.53
-46.06
-44.81
-42.92
-40.55
-37.84
-34.98
-32.20
-29.76
-27.87
-26.61
-25.92
-25.62
-25.47
-25.27
-24.91
-24.34
-23.56
-22.63
-21.58
-20.43
-19.17
-17.78
-16.32
-14.82
-13.35
-11.91
-10.44
-8.83
-7.02
-5.10
-3.29
-1.88
-1.14
-1.15
-1.82
-2.86
-3.88
-4.58
-4.75
-4.39
-3.66
-2.85
-2.22
-1.96
-2.10
-2.54
-3.16
-3.83
-4.53
-5.28
-6.06
-6.86
-7.61
-8.29
-8.97
-9.84
-11.09
-12.82
-14.87
-16.89
-18.39
-18.92
-18.26
-16.48
-13.89
-10.88
-7.79
-4.82
-2.07
0.43
2.61
4.38
5.70
6.59
7.15
7.54
7.86
8.18
8.52
8.87
9.29
9.83
10.51
11.33
12.19
12.99
13.65
14.09
14.34
14.38
14.26
14.04
13.83
13.68
13.60
13.49
13.22
12.76
12.23
11.87
11.97
12.72
14.09
15.85
17.71
19.41
20.71
21.47
21.49
20.59
18.68
15.85
12.40
8.64
4.82
0.97
-3.07
-7.50
-12.31
-17.23
-21.75
-25.32
-27.55
-28.35
-27.95
-26.77
-25.25
-23.67
-22.16
-20.74
-19.40
-18.20
-17.28
-16.78
-16.69
-16.88
-17.01
-16.75
-15.89
-14.47
-12.77
-11.12
-9.82
-8.88
-8.18
-7.45
-6.46
-5.13
-3.51
-1.77
-0.13
1.18
2.00
2.26
2.04
1.55
1.09
0.86
0.88
0.96
0.79
0.10
-1.24
-3.11
-5.24
-7.30
-9.06
-10.42
-11.43
-12.19
-12.79
-13.34
-13.91
-14.56
-15.27
-15.91
-16.21
-15.83
-14.48
-12.02
-8.67
-4.90
-1.26
1.79
4.04
5.63
6.76
7.64
8.28
8.60
8.49
7.98
7.22
6.44
5.84
5.51
5.41
5.44
5.49
5.55
5.68
6.01
6.60
7.49
8.56
9.66
10.59
11.25
11.55
11.48
11.05
10.26
9.18
7.85
6.34
4.70
2.90
0.90
-1.32
-3.66
-5.90
-7.79
-9.14
-9.94
-10.34
-10.63
-11.12
-12.03
-13.45
-15.34
-17.52
-19.72
-21.62
-22.92
-23.39
-22.93
-21.56
-19.39
-16.64
-13.57
-10.50
-7.78
-5.74
-4.63
-4.55
-5.42
-7.00
-8.91
-10.78
-12.37
-13.70
-15.01
-16.70
-19.08
-22.17
-25.66
-28.99
-31.64
-33.48
-34.90
-36.70
-39.85
-45.01
-52.33
-61.24
-70.50
-78.34
-82.65
-81.46
-73.44
-58.50
-38.05
-14.97
7.09
24.80
36.12
40.98
41.22
39.70
39.29
41.90
48.01
57.00
67.67
78.76
89.06
97.33
102.13
102.02
96.25
85.37
71.49
57.67
46.75
40.20
37.63
37.20
36.70
34.62
30.66
25.53
20.23
15.45
11.38
7.84
4.64
1.79
-0.59
-2.37
-3.62
-4.62
-5.71
-7.07
-8.59
-9.91
-10.57
-10.25
-8.89
-6.71
-4.08
-1.30
1.41
3.95
6.25
8.18
9.63
10.56
11.04
11.26
11.43
11.70
12.20
12.91
13.82
14.82
15.80
16.57
16.85
16.36
14.78
11.89
7.55
1.83
-4.95
-12.21
-19.19
-25.16
-29.55
-32.09
-32.81
-32.03
-30.27
-28.11
-26.17
-24.93
-24.56
-24.96
-25.64
-26.03
-25.69
-24.54
-22.98
-21.76
-21.79
-23.80
-28.05
-33.92
-39.81
-43.37
-42.13
-34.54
-20.82
-3.23
14.67
29.15
37.65
39.48
35.66
28.10
18.73
8.99
-0.16
-7.93
-13.50
-16.14
-15.57
-12.23
-7.26
-2.11
1.91
4.00
4.02
2.37
-0.23
-3.01
-5.31
-6.71
-7.01
-6.28
-4.66
-2.31
0.58
3.86
7.34
10.74
13.76
16.09
17.54
18.11
17.93
17.23
16.30
15.33
14.53
13.95
13.68
13.65
13.84
14.10
14.33
14.41
14.27
13.88
13.25
12.45
11.49
10.43
9.35
8.29
7.31
6.42
5.54
4.53
3.31
1.87
0.29
-1.20
-2.46
-3.44
-4.19
-4.91
-5.80
-7.01
-8.62
-10.55
-12.58
-14.42
-15.68
-16.01
-15.19
-13.15
-10.03
-6.19
-2.07
1.93
5.42
8.19
10.17
11.38
11.99
12.15
11.99
11.57
10.91
10.06
9.09
8.11
7.24
6.58
6.14
5.89
5.78
5.76
5.75
5.70
5.58
5.37
5.07
4.67
4.15
3.48
2.67
1.77
0.88
0.08
-0.65
-1.37
-2.22
-3.27
-4.49
-5.76
-6.89
-7.76
-8.35
-8.82
-9.40
-10.34
-11.79
-13.69
-15.81
-17.71
-18.93
-19.15
-18.25
-16.41
-13.93
-11.15
-8.32
-5.58
-3.01
-0.72
1.19
2.66
3.70
4.45
5.06
5.63
6.16
6.60
6.88
7.00
7.06
7.16
7.33
7.49
7.52
7.36
7.11
6.96
7.10
7.55
8.13
8.54
8.48
7.83
6.69
5.35
4.11
3.18
2.61
2.29
2.02
1.62
0.98
0.10
-0.96
-2.11
-3.23
-4.28
-5.26
-6.25
-7.38
-8.76
-10.43
-12.29
-14.09
-15.43
-15.94
-15.37
-13.70
-11.20
-8.23
-5.14
-2.20
0.50
2.90
4.95
6.60
7.76
8.43
8.74
8.87
8.98
9.16
9.37
9.56
9.73
9.93
10.25
10.75
11.37
12.00
12.52
12.88
13.11
13.30
13.46
13.51
13.33
12.82
11.96
10.86
9.69
8.56
7.58
6.72
5.91
5.05
3.99
2.62
0.88
-1.22
-3.55
-5.95
-8.17
-10.13
-11.74
-13.07
-14.20
-15.25
-16.38
-17.71
-19.30
-21.04
-22.65
-23.72
-23.83
-22.70
-20.29
-16.82
-12.74
-8.51
-4.49
-0.91
2.15
4.66
6.66
8.14
9.14
9.74
10.09
10.37
10.72
11.22
11.83
12.43
12.93
13.28
13.54
13.82
14.22
14.77
15.33
15.72
15.70
15.13
14.04
12.57
10.99
9.52
8.30
7.38
6.66
6.03
5.35
4.57
3.65
2.61
1.47
0.25
-1.01
-2.23
-3.33
-4.18
-4.74
-5.05
-5.24
-5.52
-6.04
-6.88
-8.03
-9.35
-10.69
-11.88
-12.78
-13.20
-12.96
-11.89
-9.94
-7.19
-3.92
-0.45
2.85
5.78
8.26
10.36
12.18
13.77
15.02
15.80
15.98
15.58
14.82
14.00
13.42
13.21
13.26
13.28
13.02
12.38
11.48
10.50
9.67
9.05
8.60
8.25
7.94
7.74
7.67
7.70
7.72
7.65
7.42
7.09
6.77
6.49
6.17
5.62
4.65
3.17
1.26
-0.95
-3.31
-5.80
-8.46
-11.38
-14.53
-17.78
-20.89
-23.59
-25.75
-27.29
-28.19
-28.43
-27.91
-26.51
-24.14
-20.82
-16.76
-12.40
-8.25
-4.80
-2.33
-0.90
-0.28
-0.15
-0.23
-0.34
-0.45
-0.62
-0.82
-0.91
-0.78
-0.33
0.37
1.15
1.83
2.35
2.78
3.18
3.64
4.10
4.46
4.65
4.72
4.77
4.87
4.99
5.02
4.78
4.22
3.38
2.46
1.64
1.05
0.68
0.46
0.22
-0.14
-0.68
-1.36
-2.11
-2.89
-3.69
-4.55
-5.53
-6.66
-7.94
-9.32
-10.74
-12.07
-13.11
-13.64
-13.38
-12.09
-9.70
-6.40
-2.58
1.20
4.43
6.75
8.04
8.44
8.20
7.62
6.98
6.48
6.19
6.10
6.09
6.03
5.78
5.31
4.74
4.29
4.16
4.47
5.15
6.01
6.81
7.38
7.67
7.70
7.54
7.17
6.58
5.76
4.76
3.71
2.75
1.99
1.43
0.99
0.62
0.29
0.07
-0.00
0.09
0.18
0.09
-0.40
-1.35
-2.74
-4.37
-6.11
-7.82
-9.47
-11.00
-12.27
-13.07
-13.14
-12.36
-10.72
-8.40
-5.66
-2.77
0.04
2.65
4.97
6.94
8.49
9.59
10.21
10.33
9.95
9.10
7.89
6.52
5.29
4.42
4.10
4.29
4.81
5.39
5.81
5.93
5.76
5.40
4.97
4.57
4.26
4.04
3.91
3.84
3.81
3.80
3.74
3.56
3.15
2.56
1.93
1.50
1.52
2.03
2.80
3.40
3.33
2.36
0.57
-1.59
-3.59
-4.98
-5.64
-5.70
-5.45
-5.20
-5.12
-5.22
-5.43
-5.67
-5.89
-6.11
-6.34
-6.59
-6.76
-6.69
-6.28
-5.43
-4.21
-2.80
-1.43
-0.39
0.23
0.42
0.40
0.38
0.54
0.94
1.46
1.98
2.37
2.60
2.73
2.85
2.95
2.98
2.83
2.44
1.77
0.86
-0.26
-1.54
-2.96
-4.48
-6.05
-7.56
-8.92
-10.01
-10.79
-11.15
-11.09
-10.61
-9.74
-8.59
-7.22
-5.68
-3.97
-2.08
-0.10
1.82
3.49
4.77
5.59
6.05
6.22
6.22
6.11
5.87
5.55
5.21
4.94
4.78
4.73
4.74
4.77
4.83
4.95
5.13
5.29
5.32
5.07
4.54
3.73
2.75
1.68
0.57
-0.48
-1.34
-1.87
-1.99
-1.77
-1.48
-1.45
-1.98
-3.22
-5.03
-7.14
-9.17
-10.76
-11.68
-11.74
-10.88
-9.14
-6.68
-3.78
-0.73
2.13
4.57
6.38
7.50
7.95
7.86
7.41
6.86
6.33
5.81
5.26
4.56
3.71
2.85
2.20
1.94
2.06
2.36
2.60
2.61
2.39
2.05
1.74
1.51
1.29
0.97
0.45
-0.23
-1.00
-1.76
-2.40
-2.92
-3.40
-3.91
-4.58
-5.50
-6.74
-8.28
-9.99
-11.60
-12.75
-13.12
-12.52
-10.94
-8.60
-5.78
-2.84
0.01
2.62
4.87
6.64
7.89
8.59
8.82
8.75
8.53
8.27
7.96
7.53
6.91
6.07
5.10
4.09
3.19
2.52
2.15
2.17
2.51
3.06
3.64
4.03
4.06
3.65
2.85
1.75
0.52
-0.67
-1.64
-2.34
-2.81
-3.19
-3.64
-4.24
-4.99
-5.82
-6.69
-7.59
-8.54
-9.48
-10.18
-10.29
-9.49
-7.70
-5.12
-2.20
0.51
2.64
4.08
4.94
5.42
5.71
5.87
5.91
5.86
5.76
5.69
5.74
5.94
6.27
6.64
6.92
6.99
6.80
6.40
5.94
5.62
5.58
5.86
6.32
6.76
6.99
6.82
6.20
5.17
3.86
2.48
1.20
0.17
-0.57
-1.08
-1.48
-1.87
-2.28
-2.71
-3.19
-3.74
-4.45
-5.38
-6.50
-7.68
-8.71
-9.35
-9.44
-8.97
-8.06
-6.86
-5.51
-4.03
-2.44
-0.71
1.04
2.68
4.00
4.91
5.41
5.60
5.63
5.61
5.51
5.28
4.92
4.47
4.13
4.02
4.21
4.61
5.01
5.24
5.18
4.85
4.37
3.85
3.33
2.73
1.88
0.64
-1.07
-3.20
-5.59
-8.01
-10.33
-12.51
-14.66
-16.96
-19.51
-22.26
-24.94
-27.25
-28.99
-30.15
-30.95
-31.68
-32.51
-33.40
-34.10
-34.28
-33.77
-32.61
-31.10
-29.69
-28.73
-28.40
-28.71
-29.55
-30.81
-32.53
-34.82
-37.94
-42.08
-47.43
-53.97
-61.51
-69.54
-77.33
-83.98
-88.75
-91.27
-91.73
-90.65
-88.74
-86.71
-85.13
-84.56
-85.64
-88.92
-94.64
-102.34
-110.82
-118.40
-123.64
-125.81
-125.23
-122.83
-119.62
-116.06
-111.95
-106.74
-100.05
-92.18
-84.13
-77.33
-73.16
-72.68
-76.58
-85.14
-98.11
-114.21
-130.97
-144.86
-152.21
-150.47
-139.26
-120.55
-97.92
-75.07
-54.45
-36.67
-20.71
-4.93
12.00
30.50
50.14
70.13
89.72
108.68
127.19
145.89
165.69
187.83
213.79
244.80
280.96
320.19
357.90
387.50
402.36
398.09
374.33
335.10
287.38
238.71
194.87
158.64
130.00
107.25
88.43
72.07
57.36
43.81
31.00
18.67
6.93
-3.49
-11.34
-15.31
-14.82
-10.58
-4.65
0.31
2.08
-0.10
-5.24
-10.93
-14.43
-13.69
-7.99
1.98
14.66
28.16
40.83
51.39
59.03
63.32
64.15
61.84
57.05
50.66
43.53
36.34
29.49
23.18
17.50
12.62
8.75
6.12
4.82
4.74
5.55
6.76
7.81
8.23
7.59
5.60
2.16
-2.57
-8.14
-13.85
-18.85
-22.41
-24.07
-23.59
-20.86
-15.75
-8.11
2.07
14.37
27.81
40.91
52.08
60.06
64.21
64.50
61.39
55.51
47.54
38.33
28.97
20.74
14.86
12.15
12.56
15.21
18.58
20.93
20.96
18.12
12.77
6.02
-0.72
-6.17
-9.58
-10.84
-10.38
-8.86
-6.93
-5.02
-3.38
-2.14
-1.32
-0.89
-0.70
-0.45
0.21
1.55
3.54
5.92
8.20
9.93
10.90
11.17
11.06
10.93
10.94
10.84
10.00
7.53
2.64
-5.07
-15.39
-27.43
-39.88
-51.32
-60.56
-67.01
-70.79
-72.59
-73.53
-74.64
-76.54
-79.22
-81.99
-83.74
-83.39
-80.38
-75.07
-68.86
-63.74
-61.58
-63.20
-67.79
-73.07
-76.04
-74.24
-66.79
-54.62
-39.99
-25.28
-12.11
-0.72
9.65
20.11
31.41
43.55
55.94
67.62
77.71
85.50
90.58
92.83
92.35
89.54
84.95
79.26
73.15
67.17
61.72
57.02
53.06
49.74
46.87
44.34
42.13
40.36
39.04
38.01
36.74
34.56
30.91
25.76
19.74
14.14
10.35
9.40
11.53
16.18
22.18
28.16
32.88
35.46
35.50
33.12
28.93
23.95
19.36
16.14
14.82
15.36
17.22
19.71
22.28
24.61
26.58
28.08
28.89
28.69
27.16
24.11
19.58
13.85
7.41
0.99
-4.62
-8.72
-10.92
-11.28
-10.42
-9.33
-8.94
-9.85
-12.02
-14.88
-17.71
-19.98
-21.68
-23.17
-24.96
-27.37
-30.29
-33.22
-35.54
-36.74
-36.61
-35.26
-32.97
-30.04
-26.71
-23.17
-19.55
-16.01
-12.70
-9.72
-7.17
-5.04
-3.29
-1.75
-0.28
1.27
2.98
4.85
6.82
8.76
10.54
12.01
13.04
13.60
13.66
13.39
12.94
12.56
12.44
12.65
13.06
13.26
12.64
10.60
6.76
1.28
-5.14
-11.36
-16.31
-19.35
-20.70
-21.39
-22.86
-26.41
-32.59
-41.01
-50.46
-59.34
-66.30
-70.61
-72.45
-72.67
-72.49
-72.97
-74.69
-77.52
-80.86
-83.82
-85.71
-86.24
-85.55
-84.16
-82.78
-81.97
-81.91
-82.04
-80.95
-76.54
-66.56
-49.52
-25.63
2.62
30.92
54.13
68.08
70.85
63.27
48.44
30.39
12.74
-2.25
-13.86
-22.56
-29.28
-34.88
-39.83
-44.11
-47.35
-49.13
-49.18
-47.66
-45.27
-43.20
-42.85
-45.45
-51.74
-61.75
-74.66
-88.86
-102.10
-111.86
-116.10
-113.85
-105.64
-93.39
-79.84
-67.56
-58.20
-52.08
-48.28
-45.24
-41.34
-35.43
-27.15
-16.93
-5.82
4.87
14.03
21.04
25.87
28.81
30.21
30.20
28.74
25.95
22.44
19.28
17.65
18.23
20.80
24.15
26.67
27.03
24.71
20.06
13.83
6.85
-0.22
-6.80
-12.01
-14.74
-13.98
-9.36
-1.64
7.39
15.50
20.86
22.71
21.42
18.20
14.40
11.06
8.74
7.66
7.97
9.97
13.95
19.88
27.25
34.89
41.36
45.47
46.77
45.81
43.85
42.23
41.67
41.95
42.04
40.72
37.25
31.84
25.56
19.82
15.73
13.63
13.03
12.86
11.83
8.91
3.47
-4.53
-14.57
-25.54
-35.82
-43.64
-47.44
-46.29
-40.11
-29.72
-16.61
-2.53
10.77
21.90
30.05
35.15
37.90
39.50
41.14
43.52
46.52
49.32
50.81
50.23
47.44
42.96
37.67
32.46
28.13
25.32
24.59
26.19
30.03
35.49
41.55
47.20
51.74
54.95
57.03
58.42
59.73
61.67
65.07
70.80
79.41
90.83
104.31
118.41
131.53
142.33
150.20
155.50
159.66
164.71
172.67
184.67
200.38
218.00
234.84
248.41
257.34
261.77
262.86
261.84
259.00
253.34
242.93
225.75
200.75
168.24
130.04
88.93
48.06
10.37
-21.94
-47.58
-66.40
-79.25
-87.90
-94.60
-101.56
-110.36
-121.51
-134.44
-147.81
-160.07
-169.99
-177.02
-181.34
-183.68
-184.99
-186.12
-187.64
-189.74
-192.26
-194.82
-197.04
-198.67
-199.72
-200.57
-201.83
-204.15
-207.81
-212.49
-217.13
-220.28
-220.83
-218.65
-215.13
-213.00
-215.46
-224.78
-240.97
-261.20
-280.35
-292.72
-294.02
-282.87
-261.03
-232.33
-200.96
-169.89
-140.30
-111.93
-83.98
-55.78
-26.98
2.57
32.81
63.11
91.95
116.79
134.81
143.85
143.36
134.52
119.75
101.72
82.74
64.51
48.36
35.43
26.46
21.32
18.72
16.43
12.08
4.19
-7.11
-20.29
-33.17
-43.93
-51.91
-57.54
-61.69
-64.63
-65.41
-61.82
-51.28
-31.78
-2.56
35.71
81.24
131.47
183.19
232.55
275.27
307.29
325.77
329.88
321.07
302.45
277.73
250.26
222.46
195.77
170.95
148.23
127.32
107.16
85.90
61.44
32.43
-0.55
-34.15
-62.40
-78.29
-76.36
-55.45
-19.89
21.45
58.44
83.67
95.09
96.09
92.93
91.27
93.50
98.28
102.06
101.25
93.97
80.44
62.21
41.22
19.13
-2.54
-21.90
-36.44
-43.29
-40.27
-26.89
-5.27
20.10
43.41
59.35
64.70
59.19
44.97
25.23
2.75
-20.81
-44.77
-68.65
-91.49
-111.60
-127.01
-135.99
-137.57
-131.67
-119.16
-101.64
-81.38
-61.03
-43.12
-29.60
-21.22
-17.55
-17.28
-18.99
-21.61
-24.53
-27.48
-30.24
-32.69
-35.00
-37.87
-42.32
-49.23
-58.70
-69.64
-80.08
-88.02
-92.16
-92.40
-89.66
-85.26
-80.32
-75.42
-70.51
-65.09
-58.49
-49.95
-39.03
-25.83
-11.16
3.51
16.42
26.04
31.47
32.61
30.10
25.13
19.23
14.07
11.21
11.70
15.78
22.80
31.55
40.76
49.49
57.36
64.29
70.24
75.00
78.23
79.82
80.04
79.57
79.18
79.39
80.24
81.32
82.09
82.14
81.39
79.97
78.01
75.47
72.20
68.10
63.32
58.37
53.92
50.51
48.25
46.78
45.47
43.68
41.20
38.21
35.24
32.74
30.93
29.73
28.87
28.16
27.58
27.21
27.07
26.96
26.61
25.91
25.09
24.68
25.15
26.48
27.94
28.25
26.10
20.73
12.28
1.75
-9.44
-19.99
-29.12
-36.62
-42.62
-47.43
-51.40
-55.15
-59.70
-66.54
-77.28
-93.11
-114.24
-139.73
-167.84
-196.77
-225.24
-252.61
-278.38
-301.43
-319.73
-330.66
-332.03
-323.10
-305.04
-280.62
-253.20
-225.68
-199.75
-175.83
-153.35
-131.31
-108.65
-84.42
-57.78
-27.95
5.65
42.86
82.38
121.48
156.29
182.61
197.02
197.54
183.98
157.49
120.11
74.37
23.16
-30.05
-81.10
-125.26
-157.97
-175.78
-177.49
-164.70
-141.62
-113.86
-86.71
-63.38
-44.13
-26.77
-8.19
13.66
38.53
63.99
86.77
104.52
116.99
125.85
133.62
142.15
151.59
160.13
164.89
163.20
153.73
136.99
115.08
90.89
67.32
46.84
31.40
22.57
21.54
28.97
44.46
66.21
90.95
114.46
132.61
142.47
143.07
135.32
121.38
103.75
84.40
64.70
45.53
27.80
12.74
1.87
-3.39
-2.24
5.16
17.53
32.65
47.70
59.93
67.49
70.21
70.14
71.33
78.64
95.98
124.79
163.28
206.90
249.81
286.61
313.62
329.20
333.41
327.26
312.14
289.35
259.96
224.75
184.34
139.72
92.87
47.14
6.97
-23.25
-40.56
-44.46
-36.93
-21.46
-1.85
18.68
37.67
53.01
62.69
65.12
59.61
46.88
28.78
7.55
-14.98
-37.69
-59.87
-80.69
-98.85
-112.86
-121.58
-124.69
-122.66
-116.45
-106.98
-94.90
-80.72
-64.98
-48.39
-31.78
-15.81
-0.92
12.69
24.90
35.47
44.03
50.19
53.66
54.45
52.89
49.66
45.75
42.22
39.93
39.12
39.27
39.27
37.95
34.70
29.84
24.48
19.88
16.67
14.35
11.48
6.28
-2.37
-14.41
-28.61
-43.07
-56.07
-66.52
-74.10
-79.04
-81.77
-82.65
-81.91
-79.72
-76.43
-72.59
-68.94
-66.22
-64.94
-65.21
-66.68
-68.73
-70.73
-72.31
-73.46
-74.51
-75.87
-77.78
-80.17
-82.71
-84.93
-86.46
-87.13
-87.00
-86.31
-85.46
-84.90
-85.06
-86.26
-88.52
-91.44
-94.08
-95.24
-93.82
-89.33
-82.24
-73.88
-66.12
-60.57
-58.18
-58.95
-62.20
-67.06
-72.95
-79.74
-87.68
-97.03
-107.83
-119.76
-132.25
-144.73
-156.69
-167.79
-177.64
-185.70
-191.28
-193.69
-192.37
-187.07
-177.62
-163.74
-144.83
-120.25
-89.93
-55.10
-18.45
16.38
46.04
68.66
84.38
94.98
102.76
109.39
115.38
120.36
123.78
125.52
126.00
125.86
125.48
124.84
123.60
121.53
118.61
115.04
111.02
106.54
101.34
95.02
87.36
78.43
68.65
58.64
48.99
40.19
32.66
26.88
23.43
22.83
25.34
30.63
37.81
45.60
52.76
58.39
62.09
63.83
63.69
61.83
58.46
54.00
49.02
44.02
39.15
34.18
28.63
22.21
15.09
7.98
1.85
-2.58
-5.16
-6.49
-7.62
-9.68
-13.32
-18.51
-24.54
-30.31
-34.62
-36.48
-35.23
-30.59
-22.76
-12.52
-1.18
9.54
17.94
22.92
24.61
24.41
24.71
28.00
35.95
48.68
64.65
81.29
96.00
107.20
114.84
120.12
124.63
129.35
134.05
137.53
138.25
135.03
127.45
115.74
100.41
82.10
61.64
40.24
19.62
1.59
-12.53
-22.45
-29.01
-33.67
-37.86
-42.32
-46.99
-51.49
-55.60
-59.60
-64.11
-69.64
-76.04
-82.39
-87.29
-89.53
-88.60
-84.94
-79.53
-73.45
-67.38
-61.48
-55.75
-50.29
-45.52
-42.05
-40.36
-40.39
-41.44
-42.30
-41.65
-38.58
-33.01
-25.87
-18.93
-14.23
-13.53
-17.73
-26.65
-39.20
-53.71
-68.26
-81.01
-90.35
-95.16
-95.04
-90.48
-82.76
-73.52
-64.20
-55.61
-47.81
-40.35
-32.69
-24.65
-16.58
-9.22
-3.45
0.12
1.33
0.67
-0.98
-2.60
-3.39
-3.09
-1.90
-0.21
1.81
4.36
7.88
12.69
18.50
24.44
29.33
32.13
32.46
30.74
27.75
24.08
19.54
13.05
3.08
-11.47
-30.54
-52.42
-74.29
-93.06
-106.37
-113.05
-113.04
-106.89
-95.52
-80.20
-62.98
-46.79
-34.89
-29.82
-32.23
-40.43
-50.79
-59.05
-61.79
-57.46
-46.69
-32.00
-16.99
-5.45
-0.56
-4.01
-15.53
-32.84
-52.30
-69.98
-82.86
-89.57
-90.45
-87.10
-81.51
-75.46
-70.16
-66.23
-63.81
-62.60
-61.81
-60.21
-56.30
-48.75
-36.86
-20.91
-2.18
17.38
35.71
51.21
63.11
71.50
77.12
80.98
84.04
86.99
90.12
93.41
96.63
99.47
101.77
103.45
104.44
104.54
103.30
100.13
94.64
87.11
78.80
71.69
67.87
68.71
74.20
82.99
93.11
102.83
111.51
119.54
127.91
137.35
147.88
158.91
169.81
180.44
191.37
203.46
217.24
232.24
246.96
259.27
267.16
269.42
265.77
256.49
241.89
222.05
197.24
168.67
138.87
111.24
88.73
72.33
60.32
48.92
34.02
13.16
-13.47
-43.32
-73.06
-100.16
-123.83
-144.86
-164.84
-185.34
-207.47
-231.65
-257.35
-282.80
-304.93
-319.80
-323.78
-314.84
-293.54
-262.91
-227.53
-192.12
-160.43
-134.75
-116.03
-104.25
-98.67
-97.97
-100.28
-103.45
-105.46
-104.87
-101.06
-94.20
-84.95
-73.97
-61.71
-48.18
-33.20
-16.77
0.46
17.03
30.77
39.48
41.60
36.91
26.67
13.30
-0.12
-10.66
-16.17
-15.90
-10.67
-2.89
4.11
7.16
4.36
-4.24
-16.76
-30.45
-42.88
-52.99
-61.15
-68.70
-76.94
-86.47
-96.90
-107.03
-115.43
-120.87
-122.72
-121.04
-116.55
-110.33
-103.58
-97.29
-92.22
-89.06
-88.61
-91.90
-99.81
-112.47
-128.74
-146.07
-160.87
-169.31
-168.22
-155.73
-131.92
-99.19
-62.39
-28.33
-4.20
4.87
-1.94
-20.20
-41.56
-57.09
-61.11
-53.53
-39.56
-26.89
-22.10
-28.03
-43.39
-64.37
-87.06
-108.98
-129.32
-147.99
-164.56
-177.99
-187.13
-191.65
-192.46
-191.40
-190.17
-189.26
-187.52
-182.59
-172.02
-154.38
-129.93
-100.52
-68.87
-37.63
-8.61
17.50
41.04
62.97
84.37
106.08
128.56
151.87
175.72
199.40
221.69
240.95
255.35
263.42
264.42
258.54
246.75
230.46
211.13
190.16
168.97
149.14
132.52
120.73
114.64
113.74
116.05
118.65
118.71
114.51
105.96
94.56
82.61
72.19
64.42
59.16
55.32
51.36
45.96
38.38
28.65
17.53
6.30
-3.61
-10.90
-14.70
-14.72
-11.22
-5.01
2.69
10.37
16.48
19.89
20.20
17.99
14.57
11.41
9.53
9.02
9.08
8.46
6.01
1.27
-5.19
-11.86
-16.65
-17.49
-12.98
-2.81
12.20
30.50
50.40
70.66
90.78
110.92
131.53
153.12
176.07
200.70
227.16
255.16
283.67
310.91
334.86
353.96
367.64
376.03
379.12
375.92
364.64
343.78
313.77
277.90
241.78
211.33
190.44
179.50
175.71
174.75
172.94
168.46
161.27
152.20
141.65
129.28
114.28
96.19
75.48
53.49
31.68
10.84
-9.09
-28.39
-46.51
-61.41
-69.98
-69.53
-59.48
-42.29
-22.87
-6.76
1.89
1.67
-6.07
-18.25
-31.50
-43.40
-52.96
-60.74
-68.53
-78.91
-94.39
-116.50
-144.86
-176.95
-208.79
-236.09
-255.50
-265.36
-265.62
-257.35
-242.21
-222.22
-199.88
-178.17
-160.34
-149.20
-146.42
-151.89
-163.65
-178.41
-192.36
-202.05
-205.07
-200.41
-188.47
-170.68
-148.91
-124.96
-100.20
-75.70
-52.41
-31.46
-14.05
-1.16
6.81
10.26
10.16
7.74
4.14
0.24
-3.29
-5.95
-7.40
-7.47
-6.34
-4.55
-2.90
-2.29
-3.49
-6.90
-12.46
-19.73
-28.02
-36.65
-45.13
-53.30
-61.37
-69.85
-79.48
-90.95
-104.44
-119.09
-132.85
-142.66
-145.37
-138.80
-122.66
-98.86
-70.86
-42.66
-17.64
2.07
15.63
23.06
24.75
21.19
13.11
1.68
-11.46
-24.41
-35.53
-43.79
-48.86
-50.79
-49.54
-44.88
-36.57
-24.93
-11.27
2.11
12.44
17.50
16.29
9.38
-1.50
-13.98
-25.82
-35.18
-41.01
-43.13
-42.35
-40.18
-38.36
-37.94
-38.75
-39.22
-36.93
-29.61
-16.00
3.67
27.82
54.16
80.28
104.28
124.91
141.58
154.20
162.99
168.27
170.33
169.47
165.99
160.45
153.75
147.06
141.53
137.98
136.57
136.70
137.06
135.87
131.28
121.70
106.25
85.00
59.02
30.23
1.05
-26.23
-49.87
-69.15
-84.39
-96.81
-108.07
-119.72
-132.67
-146.89
-161.35
-174.31
-183.86
-188.45
-187.29
-180.46
-168.71
-153.34
-135.95
-118.34
-102.21
-88.79
-78.32
-69.64
-60.36
-47.55
-28.87
-3.50
27.50
61.62
95.87
127.65
155.22
177.68
194.66
206.05
212.07
213.36
211.00
206.27
200.21
193.13
184.53
173.27
158.10
138.27
113.85
85.94
56.56
28.44
4.53
-12.46
-20.78
-20.10
-11.59
2.32
18.68
34.86
49.01
60.27
68.44
73.56
75.69
74.87
71.27
65.47
58.38
51.05
44.40
39.04
35.24
33.12
32.69
33.95
36.75
40.69
45.08
49.13
52.14
53.73
53.92
52.95
51.14
48.67
45.52
41.57
36.62
30.53
23.30
15.13
6.43
-2.25
-10.22
-16.88
-21.86
-25.12
-27.00
-28.12
-29.28
-31.27
-34.71
-39.91
-46.84
-55.17
-64.40
-74.02
-83.69
-93.26
-102.74
-112.13
-121.31
-129.91
-137.41
-143.32
-147.39
-149.80
-151.08
-151.93
-152.91
-154.17
-155.43
-155.95
-154.69
-150.37
-141.55
-126.97
-105.91
-78.89
-48.03
-16.83
10.70
31.43
44.27
50.63
53.79
57.68
65.35
78.12
95.47
115.62
136.42
155.94
172.73
185.65
193.74
196.22
192.76
183.84
170.83
155.79
140.85
127.63
116.80
108.18
101.09
94.87
89.20
84.02
79.39
75.32
71.74
68.64
66.23
64.88
64.98
66.68
69.62
73.02
75.81
76.91
75.61
71.69
65.56
57.97
49.79
41.74
34.19
27.27
21.04
15.77
11.89
9.83
9.64
10.89
12.71
14.13
14.44
13.32
10.77
6.91
1.81
-4.35
-11.14
-17.75
-23.16
-26.55
-27.71
-27.13
-25.80
-24.77
-24.65
-25.54
-27.20
-29.32
-31.87
-35.01
-38.91
-43.43
-48.03
-51.95
-54.55
-55.62
-55.50
-54.88
-54.49
-54.80
-56.02
-58.16
-61.14
-64.73
-68.30
-70.65
-70.13
-65.13
-54.80
-39.59
-21.35
-2.77
13.40
25.21
31.85
33.55
31.20
25.89
18.64
10.39
1.99
-5.73
-12.11
-16.81
-19.87
-21.64
-22.60
-23.09
-23.20
-22.82
-21.83
-20.27
-18.53
-17.22
-16.99
-18.22
-20.89
-24.52
-28.42
-31.88
-34.49
-36.24
-37.61
-39.38
-42.33
-46.82
-52.43
-57.84
-61.06
-60.04
-53.44
-41.25
-24.97
-7.16
9.33
22.24
30.48
34.09
33.87
30.83
25.81
19.37
11.93
3.96
-3.97
-11.20
-17.23
-21.70
-24.53
-25.86
-25.99
-25.31
-24.35
-23.64
-23.64
-24.60
-26.49
-28.98
-31.59
-33.90
-35.68
-37.04
-38.38
-40.27
-43.42
-48.36
-55.24
-63.37
-71.10
-75.89
-74.95
-66.26
-49.46
-26.25
-0.00
25.24
46.03
60.38
67.92
69.57
66.77
60.97
53.39
45.05
36.88
29.72
24.10
20.11
17.35
15.12
12.82
10.15
7.22
4.50
2.43
1.15
0.35
-0.64
-2.68
-6.32
-11.61
-17.94
-24.31
-29.69
-33.44
-35.61
-36.88
-38.36
-41.18
-46.16
-53.41
-62.13
-70.44
-75.64
-74.80
-65.81
-48.25
-23.93
3.45
29.47
50.39
64.27
71.13
72.45
70.12
65.54
59.38
51.87
43.28
34.31
26.06
19.60
15.51
13.57
12.92
12.45
11.36
9.43
6.99
4.68
2.95
1.88
1.11
0.02
-1.98
-5.21
-9.64
-14.92
-20.43
-25.52
-29.68
-32.72
-34.83
-36.45
-38.15
-40.44
-43.61
-47.72
-52.43
-56.90
-59.60
-58.67
-52.34
-39.80
-21.75
-0.46
20.80
38.86
51.64
58.53
60.26
58.21
53.69
47.65
40.65
33.19
25.82
19.20
13.84
9.93
7.38
5.78
4.70
3.77
2.75
1.55
0.21
-1.16
-2.38
-3.33
-3.98
-4.48
-5.09
-6.19
-8.04
-10.72
-14.04
-17.64
-21.15
-24.27
-26.86
-28.99
-30.84
-32.68
-34.90
-37.91
-42.06
-47.34
-53.08
-57.80
-59.46
-56.11
-46.69
-31.68
-13.09
6.08
22.88
35.27
42.59
45.34
44.60
41.46
36.62
30.50
23.50
16.20
9.41
3.98
0.47
-0.98
-0.82
0.17
1.21
1.70
1.48
0.74
-0.15
-0.85
-1.28
-1.64
-2.39
-3.96
-6.62
-10.29
-14.58
-18.90
-22.73
-25.76
-28.01
-29.75
-31.36
-33.27
-35.90
-39.66
-44.74
-50.85
-56.91
-61.03
-60.89
-54.57
-41.46
-22.69
-0.96
20.30
38.08
50.55
57.40
59.45
57.97
54.14
48.80
42.47
35.58
28.66
22.31
17.07
13.26
10.85
9.53
8.82
8.23
7.48
6.48
5.30
4.07
2.86
1.59
0.10
-1.79
-4.27
-7.40
-11.15
-15.38
-19.79
-24.02
-27.69
-30.46
-32.24
-33.21
-33.81
-34.69
-36.58
-40.13
-45.59
-52.61
-59.90
-65.31
-66.25
-60.52
-47.20
-27.26
-3.47
20.45
40.92
55.58
63.71
65.96
63.71
58.48
51.48
43.65
35.78
28.56
22.57
18.12
15.18
13.40
12.35
11.63
11.05
10.55
10.13
9.76
9.30
8.51
7.18
5.23
2.72
-0.11
-3.05
-5.95
-8.87
-11.95
-15.36
-19.12
-23.01
-26.71
-29.85
-32.21
-33.89
-35.24
-36.87
-39.48
-43.69
-49.64
-56.67
-63.16
-66.67
-64.69
-55.49
-38.99
-17.04
7.08
29.66
47.72
59.72
65.69
66.67
64.04
58.98
52.28
44.56
36.48
28.85
22.50
17.99
15.44
14.44
14.30
14.32
14.12
13.61
13.00
12.41
11.85
11.04
9.62
7.38
4.33
0.74
-3.04
-6.73
-10.24
-13.64
-17.08
-20.63
-24.22
-27.68
-30.75
-33.28
-35.28
-37.01
-38.94
-41.73
-45.97
-51.83
-58.70
-65.00
-68.43
-66.58
-57.91
-42.43
-21.97
0.30
20.89
37.07
47.57
52.62
53.40
51.25
47.23
41.85
35.36
28.05
20.50
13.56
8.04
4.50
2.98
2.93
3.58
4.12
4.09
3.51
2.76
2.28
2.30
2.62
2.60
1.47
-1.36
-6.01
-11.94
-18.27
-23.97
-28.42
-31.49
-33.60
-35.44
-37.78
-41.19
-46.04
-52.34
-59.68
-66.92
-72.15
-72.91
-66.96
-53.17
-32.32
-7.10
18.55
40.74
56.78
65.81
68.59
66.81
62.16
55.89
48.69
40.96
33.13
25.84
19.76
15.48
13.20
12.70
13.35
14.37
15.05
14.97
14.03
12.40
10.41
8.36
6.33
4.18
1.56
-1.93
-6.58
-12.40
-19.10
-26.06
-32.59
-38.08
-42.28
-45.28
-47.57
-49.83
-52.85
-57.37
-63.88
-72.18
-81.05
-88.01
-89.77
-83.21
-66.76
-41.36
-10.49
20.80
47.67
66.94
77.85
81.57
80.18
75.62
69.17
61.54
53.33
45.31
38.32
33.03
29.59
27.65
26.55
25.69
24.82
24.02
23.53
23.46
23.59
23.35
22.02
19.09
14.48
8.69
2.52
-3.24
-8.20
-12.48
-16.57
-21.02
-26.00
-31.23
-36.06
-39.84
-42.28
-43.63
-44.69
-46.57
-50.38
-56.83
-65.80
-75.93
-84.53
-88.04
-83.12
-67.99
-43.41
-12.85
18.65
46.10
66.17
77.94
82.53
81.95
78.02
71.79
63.74
54.35
44.52
35.54
28.64
24.44
22.74
22.64
23.11
23.44
23.53
23.75
24.49
25.79
27.10
27.42
25.80
21.77
15.67
8.51
1.59
-4.12
-8.32
-11.48
-14.52
-18.35
-23.36
-29.27
-35.25
-40.29
-43.66
-45.22
-45.54
-45.65
-46.82
-50.16
-56.24
-64.74
-74.17
-81.97
-84.90
-80.11
-66.17
-43.92
-16.46
11.75
36.38
54.53
65.34
69.71
69.34
65.79
60.05
52.66
44.17
35.41
27.48
21.35
17.49
15.73
15.45
15.89
16.53
17.15
17.73
18.20
18.32
17.68
15.86
12.60
8.02
2.57
-3.11
-8.41
-13.05
-17.12
-21.06
-25.33
-30.18
-35.43
-40.55
-44.89
-48.00
-49.95
-51.36
-53.28
-56.87
-63.07
-72.04
-82.69
-92.49
-97.87
-95.13
-81.94
-58.45
-27.59
5.76
36.38
60.44
76.39
84.89
87.69
86.55
82.51
76.01
67.39
57.45
47.57
39.30
33.75
31.23
31.12
32.25
33.45
33.98
33.75
33.11
32.57
32.34
32.17
31.39
29.18
24.98
18.71
10.94
2.73
-4.77
-10.68
-14.85
-17.84
-20.73
-24.62
-30.10
-36.94
-44.14
-50.40
-54.67
-56.62
-56.83
-56.55
-57.30
-60.49
-67.01
-76.99
-89.36
-101.65
-110.13
-110.68
-100.19
-77.91
-46.13
-9.70
25.53
54.70
75.22
87.05
91.89
91.93
88.86
83.61
76.77
69.01
61.32
54.81
50.27
47.89
47.23
47.47
47.79
47.70
47.14
46.32
45.44
44.54
43.41
41.69
39.06
35.38
30.76
25.47
19.82
14.05
8.35
2.84
-2.32
-6.92
-10.80
-13.97
-16.63
-19.22
-22.21
-25.92
-30.31
-34.99
-39.39
-42.98
-45.53
-47.20
-48.59
-50.52
-53.99
-59.80
-68.27
-78.69
-88.99
-95.85
-95.53
-85.21
-64.37
-35.31
-2.62
28.35
53.31
70.19
79.22
82.10
80.83
76.78
70.63
62.70
53.53
44.09
35.66
29.31
25.57
24.29
24.69
25.83
26.89
27.51
27.70
27.77
27.93
28.11
27.88
26.56
23.52
18.50
11.78
4.19
-3.19
-9.35
-13.72
-16.42
-18.11
-19.76
-22.21
-25.90
-30.64
-35.76
-40.42
-43.93
-46.04
-47.01
-47.50
-48.41
-50.63
-54.95
-61.76
-70.82
-80.74
-88.96
-92.06
-86.78
-71.32
-46.37
-15.23
17.19
45.91
67.52
80.89
86.90
87.44
84.29
78.58
70.85
61.56
51.47
41.77
33.64
27.93
24.82
23.85
24.20
25.06
25.94
26.65
27.27
27.86
28.33
28.37
27.53
25.39
21.69
16.48
10.15
3.31
-3.31
-9.09
-13.64
-16.99
-19.56
-22.04
-25.18
-29.46
-34.86
-40.80
-46.37
-50.63
-53.07
-53.81
-53.65
-53.76
-55.39
-59.52
-66.55
-76.08
-86.55
-95.26
-98.67
-93.42
-77.61
-51.81
-19.29
14.91
45.59
69.02
83.86
90.89
92.07
89.38
84.19
77.27
69.11
60.43
52.17
45.25
40.24
37.17
35.55
34.77
34.28
33.85
33.54
33.47
33.64
33.81
33.55
32.40
30.10
26.68
22.39
17.63
12.71
7.76
2.82
-2.09
-6.81
-11.08
-14.58
-17.20
-19.11
-20.81
-22.89
-25.79
-29.54
-33.76
-37.83
-41.21
-43.71
-45.53
-47.26
-49.71
-53.73
-60.03
-68.74
-79.03
-88.76
-94.65
-93.08
-81.49
-59.58
-29.89
2.85
33.27
57.15
72.59
80.08
81.57
79.26
74.66
68.50
61.06
52.73
44.30
36.80
31.06
27.45
25.73
25.27
25.42
25.64
25.72
25.68
25.61
25.56
25.48
25.09
24.05
21.99
18.75
14.37
9.20
3.77
-1.42
-5.96
-9.72
-12.75
-15.38
-18.01
-21.02
-24.62
-28.70
-32.88
-36.53
-39.15
-40.53
-40.91
-40.94
-41.49
-43.37
-47.24
-53.38
-61.46
-70.27
-77.55
-80.32
-75.74
-62.29
-40.63
-13.70
14.14
38.66
56.96
68.20
73.21
73.60
70.81
65.71
58.74
50.37
41.40
33.02
26.36
22.13
20.28
20.15
20.76
21.26
21.26
20.88
20.49
20.37
20.41
20.10
18.66
15.44
10.25
3.53
-3.76
-10.44
-15.54
-18.68
-20.22
-21.15
-22.68
-25.72
-30.55
-36.59
-42.71
-47.71
-50.82
-52.00
-51.95
-51.85
-52.99
-56.42
-62.64
-71.25
-80.76
-88.51
-91.22
-85.97
-71.29
-48.08
-19.48
10.01
36.04
55.73
68.23
74.35
75.66
73.59
68.98
62.26
53.91
44.83
36.29
29.56
25.40
23.77
23.94
24.86
25.68
26.09
26.32
26.82
27.90
29.39
30.56
30.43
28.18
23.56
17.03
9.65
2.68
-2.91
-6.84
-9.61
-12.28
-15.99
-21.36
-28.21
-35.60
-42.27
-47.22
-50.15
-51.62
-52.76
-54.95
-59.41
-66.90
-77.41
-89.81
-101.58
-109.04
-108.23
-96.32
-72.99
-41.00
-5.40
28.03
54.82
72.94
82.89
86.72
86.67
84.23
79.97
74.04
66.71
58.78
51.38
45.58
42.00
40.56
40.64
41.36
41.95
42.00
41.47
40.56
39.52
38.39
37.00
34.95
31.84
27.38
21.58
14.74
7.49
0.53
-5.53
-10.37
-14.11
-17.22
-20.41
-24.29
-29.14
-34.80
-40.66
-45.93
-49.94
-52.46
-53.78
-54.64
-56.03
-58.92
-64.11
-71.96
-82.01
-92.69
-101.15
-103.73
-97.06
-79.47
-51.98
-18.35
16.03
45.91
67.89
81.08
86.76
87.11
84.05
78.68
71.51
63.00
54.09
46.10
40.26
37.17
36.53
37.35
38.49
39.22
39.46
39.56
39.90
40.48
40.76
39.92
37.30
32.76
26.75
20.22
14.10
9.00
5.00
1.70
-1.44
-4.86
-8.63
-12.46
-15.90
-18.65
-20.71
-22.51
-24.67
-27.68
-31.58
-36.01
-40.25
-43.66
-45.95
-47.36
-48.61
-50.71
-54.71
-61.35
-70.77
-82.01
-92.75
-99.52
-98.58
-87.29
-65.38
-35.44
-2.28
28.69
53.28
69.58
78.05
80.51
78.91
74.55
67.97
59.47
49.73
39.92
31.47
25.51
22.60
22.49
24.41
27.34
30.38
32.92
34.66
35.54
35.65
35.02
33.60
31.20
27.66
22.92
17.18
10.87
4.58
-1.14
-5.86
-9.42
-11.96
-13.84
-15.63
-17.84
-20.84
-24.64
-28.89
-32.98
-36.30
-38.51
-39.65
-40.23
-41.01
-42.82
-46.40
-52.25
-60.42
-70.19
-79.77
-86.34
-86.63
-78.06
-59.85
-33.68
-3.46
25.90
50.11
66.70
75.44
77.73
75.56
70.52
63.51
54.99
45.45
35.77
27.20
20.90
17.56
17.08
18.64
21.13
23.50
25.16
25.99
26.18
26.04
25.67
24.95
23.53
20.96
16.96
11.53
5.07
-1.76
-8.11
-13.31
-17.03
-19.47
-21.25
-23.21
-26.05
-30.05
-34.95
-40.11
-44.74
-48.27
-50.63
-52.17
-53.63
-55.88
-59.75
-65.93
-74.66
-85.36
-96.18
-103.92
-104.70
-95.30
-74.64
-44.60
-9.75
24.18
52.28
71.88
82.92
87.15
86.81
83.59
78.36
71.51
63.59
55.58
48.65
43.73
41.10
40.29
40.43
40.64
40.52
40.17
39.99
40.27
40.92
41.37
40.79
38.54
34.46
28.95
22.82
16.87
11.59
7.00
2.73
-1.71
-6.58
-11.77
-16.78
-21.06
-24.33
-26.77
-29.07
-32.04
-36.24
-41.61
-47.55
-53.10
-57.52
-60.59
-62.77
-65.01
-68.48
-74.20
-82.73
-93.73
-105.60
-115.39
-119.17
-113.31
-95.89
-67.86
-33.04
2.95
34.63
58.41
73.30
80.56
82.42
80.88
77.10
71.51
64.47
56.67
49.24
43.33
39.70
38.38
38.69
39.61
40.24
40.11
39.36
38.47
37.97
37.99
38.14
37.58
35.39
30.93
24.21
15.90
7.20
-0.63
-6.69
-10.76
-13.45
-15.84
-19.10
-23.96
-30.41
-37.63
-44.45
-49.75
-53.03
-54.58
-55.37
-56.73
-59.99
-66.10
-75.37
-87.17
-99.56
-109.26
-112.29
-105.07
-85.99
-56.32
-20.24
16.49
48.45
72.15
86.84
93.91
95.69
94.17
90.46
84.95
77.87
69.81
61.84
55.16
50.67
48.55
48.28
48.85
49.24
48.85
47.64
46.02
44.48
43.21
41.94
40.01
36.67
31.49
24.49
16.22
7.57
-0.52
-7.28
-12.38
-15.98
-18.72
-21.49
-25.13
-30.06
-36.14
-42.69
-48.75
-53.48
-56.47
-57.93
-58.50
-59.14
-60.92
-64.81
-71.53
-81.12
-92.43
-102.88
-108.73
-106.06
-92.31
-67.56
-34.84
0.64
33.27
58.84
75.54
83.96
86.02
83.87
79.00
72.22
64.04
55.14
46.54
39.37
34.45
31.97
31.44
31.95
32.60
32.85
32.65
32.32
32.12
32.01
31.53
29.98
26.85
22.04
16.02
9.55
3.37
-2.03
-6.53
-10.13
-12.93
-14.89
-16.00
-16.38
-16.39
-16.54
-17.37
-19.20
-22.00
-25.45
-29.11
-32.54
-35.56
-38.20
-40.71
-43.55
-47.23
-52.26
-58.76
-66.13
-72.74
-76.09
-73.44
-62.84
-44.15
-19.37
7.78
33.15
53.40
66.95
73.93
75.59
73.36
68.32
61.13
52.36
42.84
33.75
26.32
21.47
19.44
19.71
21.30
23.19
24.65
25.47
25.90
26.27
26.70
26.88
26.09
23.52
18.70
11.84
3.85
-3.92
-10.22
-14.46
-16.92
-18.69
-21.11
-25.16
-30.95
-37.74
-44.26
-49.32
-52.41
-53.81
-54.55
-55.98
-59.39
-65.65
-74.85
-85.94
-96.61
-103.43
-102.64
-91.54
-69.66
-39.38
-5.38
26.91
53.11
71.08
81.11
84.97
84.72
81.76
76.75
69.92
61.77
53.23
45.53
39.71
36.29
35.05
35.30
36.11
36.77
36.93
36.67
36.28
36.02
35.86
35.38
33.86
30.63
25.35
18.26
10.22
2.38
-4.23
-9.07
-12.29
-14.63
-17.05
-20.37
-24.92
-30.39
-36.04
-40.95
-44.46
-46.43
-47.26
-47.82
-49.15
-52.26
-57.92
-66.32
-76.77
-87.34
-94.99
-96.17
-88.03
-69.64
-42.66
-11.11
19.99
46.26
65.18
76.44
81.33
81.61
78.70
73.40
66.17
57.61
48.73
40.73
34.62
30.82
29.09
28.72
28.94
29.19
29.36
29.61
30.20
31.13
32.05
32.23
30.84
27.36
21.79
14.81
7.53
1.07
-3.84
-7.22
-9.71
-12.33
-15.94
-20.81
-26.54
-32.18
-36.70
-39.50
-40.64
-40.84
-41.21
-42.84
-46.50
-52.34
-59.78
-67.36
-72.97
-74.10
-68.67
-55.74
-36.14
-12.38
11.99
33.51
49.83
60.16
65.00
65.54
62.91
57.87
50.87
42.37
33.08
23.98
16.13
10.35
6.98
5.82
6.23
7.41
8.61
9.40
9.67
9.58
9.36
9.06
8.42
6.94
4.10
-0.41
-6.45
-13.43
-20.48
-26.78
-31.81
-35.48
-38.14
-40.40
-42.96
-46.48
-51.50
-58.22
-66.23
-74.22
-79.95
-80.69
-74.11
-59.26
-37.24
-11.02
15.36
38.17
55.02
65.30
69.84
70.05
67.26
62.23
55.35
47.00
37.89
29.07
21.69
16.56
13.89
13.18
13.47
13.78
13.46
12.41
11.00
9.79
9.08
8.69
7.89
5.71
1.38
-5.26
-13.55
-22.23
-29.90
-35.64
-39.35
-41.74
-44.01
-47.36
-52.64
-60.16
-69.72
-80.43
-90.61
-97.68
-98.53
-90.49
-72.46
-45.71
-13.92
17.92
45.10
64.70
76.08
80.57
80.34
77.31
72.66
66.86
60.11
52.80
45.60
39.28
34.47
31.41
29.93
29.53
29.66
29.82
29.66
29.03
27.85
26.08
23.64
20.42
16.37
11.50
5.89
-0.39
-7.27
-14.64
-22.31
-29.94
-37.06
-43.24
-48.23
-52.09
-55.22
-58.30
-62.20
-67.74
-75.43
-84.90
-94.46
-101.10
-101.13
-91.52
-71.30
-42.36
-9.07
23.19
49.85
68.54
79.29
83.77
84.05
81.60
77.08
70.79
63.21
55.27
48.18
42.92
39.83
38.56
38.30
38.23
37.86
37.13
36.30
35.65
35.34
35.20
34.83
33.70
31.23
27.09
21.23
14.02
6.21
-1.26
-7.54
-12.22
-15.46
-17.99
-20.73
-24.47
-29.51
-35.55
-41.85
-47.54
-52.00
-55.04
-57.04
-58.71
-60.98
-64.81
-70.99
-79.80
-90.63
-101.52
-109.15
-109.64
-99.81
-78.65
-48.14
-12.82
21.59
50.15
70.19
81.62
86.21
86.30
83.68
79.26
73.40
66.46
59.22
52.73
47.86
44.94
43.64
43.21
42.88
42.34
41.71
41.36
41.58
42.26
42.82
42.42
40.37
36.44
31.00
24.84
18.80
13.40
8.66
4.21
-0.39
-5.29
-10.27
-14.80
-18.35
-20.75
-22.35
-23.86
-26.03
-29.30
-33.58
-38.29
-42.69
-46.14
-48.43
-49.86
-51.15
-53.32
-57.34
-63.86
-72.71
-82.47
-90.46
-93.18
-87.41
-71.52
-46.38
-15.40
16.54
44.61
65.54
78.30
83.78
83.88
80.42
74.63
67.17
58.57
49.53
40.99
33.95
29.01
26.25
25.26
25.31
25.71
26.06
26.22
26.31
26.42
26.51
26.35
25.55
23.76
20.78
16.67
11.77
6.53
1.46
-3.11
-7.01
-10.30
-13.19
-15.96
-18.88
-22.08
-25.60
-29.26
-32.81
-35.95
-38.44
-40.18
-41.25
-41.92
-42.64
-44.03
-46.82
-51.53
-58.21
-66.01
-72.98
-76.46
-73.80
-63.38
-45.36
-21.87
3.65
27.51
46.88
60.37
68.06
70.88
69.99
66.32
60.53
53.17
44.91
36.65
29.34
23.74
20.17
18.40
17.84
17.76
17.63
17.29
16.89
16.71
16.85
17.12
17.01
15.92
13.45
9.58
4.74
-0.38
-5.04
-8.77
-11.51
-13.63
-15.69
-18.29
-21.73
-25.99
-30.62
-35.01
-38.59
-41.01
-42.32
-42.96
-43.71
-45.49
-49.13
-55.10
-63.04
-71.62
-78.53
-80.96
-76.45
-63.82
-43.81
-18.99
6.97
30.41
48.78
61.07
67.69
69.78
68.55
64.93
59.51
52.81
45.53
38.50
32.59
28.37
25.95
24.92
24.58
24.25
23.57
22.58
21.62
21.07
20.99
21.07
20.67
19.13
16.09
11.65
6.34
0.91
-3.88
-7.62
-10.25
-12.16
-14.01
-16.48
-19.99
-24.51
-29.55
-34.30
-38.06
-40.52
-41.86
-42.73
-43.97
-46.40
-50.63
-56.83
-64.47
-72.15
-77.61
-78.20
-71.73
-57.35
-36.16
-10.98
14.45
36.67
53.51
64.30
69.66
70.72
68.58
64.01
57.59
49.97
42.01
34.70
28.87
24.90
22.60
21.42
20.72
20.09
19.50
19.19
19.41
20.14
21.01
21.37
20.57
18.20
14.32
9.45
4.41
-0.03
-3.42
-5.80
-7.69
-9.85
-12.90
-17.03
-21.88
-26.74
-30.83
-33.66
-35.28
-36.20
-37.22
-39.16
-42.66
-47.96
-54.79
-62.14
-68.28
-71.03
-68.21
-58.56
-42.25
-21.12
1.80
23.19
40.47
52.44
59.21
61.75
61.20
58.37
53.71
47.55
40.36
32.96
26.22
20.87
17.21
15.10
14.09
13.76
13.83
14.24
15.00
15.99
16.90
17.29
16.69
14.84
11.77
7.80
3.40
-1.01
-5.20
-9.19
-13.21
-17.47
-22.06
-26.77
-31.25
-35.11
-38.08
-40.16
-41.66
-43.12
-45.24
-48.66
-53.65
-59.78
-65.70
-69.31
-68.31
-61.00
-47.08
-27.86
-6.01
15.39
33.63
47.16
55.61
59.50
59.69
57.04
52.18
45.66
38.06
30.10
22.57
16.21
11.52
8.67
7.48
7.54
8.37
9.55
10.72
11.57
11.83
11.31
9.93
7.78
5.09
2.04
-1.26
-4.95
-9.17
-14.01
-19.30
-24.62
-29.44
-33.41
-36.46
-38.91
-41.37
-44.49
-48.89
-54.94
-62.58
-71.10
-78.91
-83.63
-82.64
-73.89
-56.87
-33.07
-5.71
21.15
43.90
60.31
69.84
73.32
72.23
68.04
61.90
54.69
47.13
39.92
33.68
28.89
25.72
24.04
23.54
23.77
24.37
25.04
25.56
25.75
25.37
24.13
21.79
18.29
13.79
8.70
3.48
-1.57
-6.41
-11.27
-16.43
-21.99
-27.71
-33.09
-37.54
-40.78
-42.91
-44.51
-46.53
-50.04
-55.87
-64.22
-74.26
-83.88
-90.01
-89.37
-79.67
-60.65
-34.44
-5.07
22.91
45.81
61.82
71.02
74.70
74.40
71.24
65.86
58.74
50.62
42.56
35.79
31.17
28.93
28.61
29.31
30.18
30.71
30.84
30.82
30.90
31.00
30.61
29.01
25.58
20.23
13.52
6.48
0.24
-4.56
-7.97
-10.71
-13.81
-18.03
-23.50
-29.70
-35.64
-40.39
-43.46
-45.01
-45.74
-46.76
-49.25
-54.16
-61.90
-71.84
-82.14
-89.82
-91.44
-84.25
-67.39
-42.46
-13.20
15.69
40.12
57.66
67.97
72.13
71.76
68.16
62.10
54.06
44.71
35.13
26.66
20.43
16.89
15.64
15.60
15.53
14.61
12.66
10.17
7.78
5.79
3.80
0.74
-4.59
-12.95
-24.15
-37.03
-49.90
-61.29
-70.57
-78.22
-85.58
-94.16
-104.99
-118.13
-132.73
-147.49
-161.26
-173.56
-184.72
-195.62
-207.45
-221.49
-239.01
-260.96
-287.40
-316.75
-345.52
-368.77
-381.58
-380.85
-366.57
-341.81
-311.45
-280.34
-251.78
-227.18
-206.56
-189.47
-175.49
-164.16
-154.61
-145.27
-134.26
-120.07
-102.28
-81.68
-59.81
-38.21
-17.48
2.91
24.38
48.41
75.77
106.02
137.68
168.82
197.90
224.33
248.67
272.43
297.70
326.61
360.48
398.79
438.42
473.56
496.94
502.22
486.38
451.28
403.23
350.72
301.41
259.83
226.75
200.20
177.38
156.17
135.63
115.62
96.17
77.25
58.98
42.01
27.63
17.36
12.17
11.82
14.69
18.22
19.93
18.47
14.19
9.13
6.21
8.12
16.28
30.32
48.30
67.41
84.95
98.94
108.38
113.11
113.35
109.58
102.40
92.62
81.27
69.40
57.80
46.80
36.24
25.74
15.00
4.14
-6.30
-15.45
-22.57
-27.30
-29.90
-31.15
-32.02
-33.30
-35.36
-38.05
-41.01
-43.93
-46.79
-49.84
-53.42
-57.72
-62.77
-68.61
-75.44
-83.53
-92.88
-102.65
-110.92
-115.05
-112.61
-102.42
-85.25
-63.58
-40.77
-19.70
-1.96
12.41
24.41
35.28
45.84
56.28
66.38
75.83
84.59
92.85
101.04
109.61
119.01
129.68
142.04
156.48
172.97
190.51
206.78
218.29
221.17
212.65
192.33
162.70
128.46
94.97
66.39
44.56
29.00
17.80
8.93
1.09
-6.16
-12.87
-19.24
-25.80
-33.29
-42.15
-52.27
-62.95
-73.20
-82.17
-89.52
-95.50
-100.86
-106.57
-113.46
-121.96
-131.93
-142.73
-153.30
-162.33
-168.45
-170.40
-167.18
-158.24
-143.68
-124.34
-101.78
-78.00
-55.10
-34.83
-18.32
-6.03
2.15
6.81
8.83
9.34
9.51
10.42
12.86
17.22
23.50
31.40
40.53
50.49
60.88
71.26
81.08
89.63
96.14
99.84
100.16
96.89
90.43
81.73
72.18
63.21
55.86
50.47
46.70
43.79
40.97
37.78
34.15
30.25
26.27
22.25
18.15
13.91
9.55
5.20
1.04
-2.79
-6.16
-8.99
-11.20
-12.80
-13.85
-14.48
-14.87
-15.12
-15.21
-15.03
-14.45
-13.48
-12.25
-11.00
-9.95
-9.21
-8.77
-8.51
-8.34
-8.25
-8.28
-8.51
-8.98
-9.62
-10.31
-10.84
-11.07
-10.89
-10.28
-9.37
-8.34
-7.42
-6.82
-6.69
-7.10
-7.97
-9.18
-10.48
-11.68
-12.66
-13.41
-13.99
-14.55
-15.22
-16.12
-17.34
-18.90
-20.72
-22.66
-24.55
-26.21
-27.67
-29.16
-31.07
-33.74
-37.33
-41.57
-45.86
-49.46
-51.72
-52.41
-51.71
-50.21
-48.66
-47.75
-48.05
-49.78
-52.76
-56.29
-59.23
-60.25
-58.27
-52.89
-44.59
-34.56
-24.24
-14.78
-6.64
0.33
6.74
13.29
20.51
28.62
37.58
47.02
56.31
64.72
71.57
76.39
79.03
79.49
77.74
73.68
67.20
58.50
48.31
37.92
28.88
22.48
19.44
19.75
22.89
28.09
34.63
41.79
48.75
54.46
57.81
57.87
54.25
47.31
38.12
28.13
18.79
11.19
5.87
2.81
1.57
1.54
2.12
2.84
3.34
3.34
2.58
0.86
-1.87
-5.44
-9.47
-13.44
-16.87
-19.49
-21.28
-22.40
-23.08
-23.53
-23.84
-24.02
-23.98
-23.64
-22.92
-21.84
-20.56
-19.28
-18.18
-17.31
-16.56
-15.74
-14.70
-13.41
-12.02
-10.74
-9.72
-9.00
-8.47
-7.98
-7.42
-6.81
-6.22
-5.77
-5.54
-5.54
-5.66
-5.77
-5.69
-5.42
-5.06
-4.93
-5.37
-6.58
-8.49
-10.71
-12.66
-13.86
-14.06
-13.37
-12.11
-10.67
-9.30
-8.05
-6.86
-5.65
-4.46
-3.40
-2.58
-2.05
-1.78
-1.65
-1.54
-1.43
-1.36
-1.46
-1.87
-2.62
-3.63
-4.67
-5.53
-6.05
-6.24
-6.25
-6.23
-6.33
-6.57
-6.87
-7.15
-7.33
-7.32
-7.14
-6.80
-6.36
-5.95
-5.75
-5.94
-6.61
-7.72
-9.13
-10.65
-12.14
-13.51
-14.73
-15.76
-16.55
-17.04
-17.22
-17.14
-16.81
-16.23
-15.32
-14.04
-12.38
-10.41
-8.36
-6.41
-4.75
-3.47
-2.55
-1.95
-1.62
-1.49
-1.50
-1.61
-1.75
-1.88
-1.95
-1.90
-1.76
-1.57
-1.39
-1.27
-1.20
-1.06
-0.77
-0.31
0.22
0.61
0.68
0.33
-0.35
-1.18
-1.92
-2.45
-2.78
-2.98
-3.20
-3.49
-3.86
-4.24
-4.55
-4.77
-4.92
-5.11
-5.42
-5.87
-6.40
-6.92
-7.36
-7.74
-8.17
-8.81
-9.74
-10.87
-11.98
-12.74
-12.93
-12.53
-11.74
-10.88
-10.20
-9.71
-9.25
-8.56
-7.50
-6.18
-4.90
-3.99
-3.56
-3.49
-3.49
-3.26
-2.69
-1.93
-1.25
-0.90
-0.93
-1.20
-1.41
-1.28
-0.70
0.23
1.22
1.92
2.08
1.64
0.73
-0.38
-1.44
-2.25
-2.76
-3.01
-3.10
-3.13
-3.23
-3.48
-3.97
-4.73
-5.75
-6.87
-7.87
-8.51
-8.67
-8.35
-7.73
-7.10
-6.70
-6.67
-6.94
-7.25
-7.34
-7.02
-6.30
-5.33
-4.31
-3.36
-2.48
-1.61
-0.76
-0.02
0.39
0.26
-0.49
-1.73
-3.16
-4.41
-5.24
-5.56
-5.45
-5.14
-4.78
-4.49
-4.22
-3.87
-3.28
-2.44
-1.40
-0.38
0.39
0.74
0.63
0.18
-0.42
-0.92
-1.20
-1.19
-1.03
-0.88
-0.91
-1.21
-1.77
-2.47
-3.17
-3.77
-4.22
-4.54
-4.79
-5.08
-5.47
-5.96
-6.44
-6.77
-6.80
-6.46
-5.82
-4.99
-4.11
-3.27
-2.47
-1.72
-1.03
-0.47
-0.08
0.07
0.04
-0.08
-0.20
-0.19
0.00
0.39
0.93
1.50
1.98
2.27
2.33
2.18
1.90
1.57
1.24
0.91
0.64
0.46
0.45
0.64
0.97
1.29
1.39
1.18
0.63
-0.12
-0.87
-1.45
-1.77
-1.87
-1.85
-1.81
-1.84
-2.01
-2.44
-3.23
-4.46
-6.10
-7.93
-9.58
-10.68
-11.00
-10.55
-9.57
-8.39
-7.23
-6.16
-5.15
-4.10
-3.06
-2.15
-1.51
-1.24
-1.23
-1.29
-1.16
-0.69
0.12
1.09
1.98
2.56
2.70
2.45
1.96
1.43
1.04
0.86
0.87
0.99
1.12
1.21
1.24
1.25
1.29
1.38
1.55
1.76
1.97
2.12
2.15
2.05
1.88
1.66
1.40
1.09
0.64
0.03
-0.77
-1.71
-2.70
-3.64
-4.48
-5.21
-5.79
-6.19
-6.37
-6.23
-5.77
-5.00
-4.00
-2.88
-1.76
-0.73
0.11
0.69
0.96
0.90
0.53
-0.05
-0.69
-1.24
-1.56
-1.60
-1.40
-0.98
-0.38
0.44
1.52
2.80
4.14
5.29
6.03
6.24
6.00
5.51
5.04
4.76
4.69
4.69
4.57
4.15
3.36
2.30
1.12
-0.01
-0.96
-1.70
-2.25
-2.68
-2.99
-3.21
-3.31
-3.36
-3.43
-3.61
-3.97
-4.50
-5.16
-5.87
-6.56
-7.15
-7.53
-7.60
-7.29
-6.59
-5.61
-4.50
-3.41
-2.38
-1.36
-0.28
0.90
2.13
3.23
4.06
4.49
4.50
4.14
3.54
2.75
1.82
0.79
-0.24
-1.16
-1.86
-2.30
-2.46
-2.38
-2.13
-1.70
-1.13
-0.46
0.23
0.87
1.44
1.92
2.31
2.54
2.51
2.13
1.39
0.45
-0.46
-1.17
-1.66
-2.08
-2.64
-3.47
-4.48
-5.47
-6.26
-6.80
-7.21
-7.65
-8.20
-8.74
-9.00
-8.74
-7.84
-6.41
-4.69
-2.96
-1.42
-0.10
1.05
2.12
3.16
4.16
5.01
5.60
5.84
5.73
5.33
4.75
4.09
3.44
2.84
2.34
1.95
1.72
1.68
1.81
2.07
2.35
2.57
2.67
2.59
2.32
1.85
1.20
0.45
-0.28
-0.82
-1.09
-1.14
-1.14
-1.29
-1.70
-2.35
-3.07
-3.69
-4.14
-4.48
-4.82
-5.25
-5.73
-6.16
-6.50
-6.83
-7.32
-8.09
-9.06
-9.94
-10.36
-10.03
-8.90
-7.17
-5.17
-3.20
-1.44
0.08
1.42
2.64
3.80
4.87
5.78
6.44
6.79
6.80
6.51
5.99
5.32
4.59
3.81
3.04
2.35
1.79
1.39
1.15
0.95
0.68
0.29
-0.16
-0.53
-0.66
-0.49
-0.10
0.29
0.51
0.47
0.25
0.04
-0.01
0.07
0.14
-0.04
-0.63
-1.63
-2.94
-4.37
-5.77
-7.08
-8.28
-9.43
-10.52
-11.57
-12.59
-13.60
-14.65
-15.76
-16.87
-17.83
-18.42
-18.41
-17.59
-15.99
-13.76
-11.26
-8.86
-6.88
-5.44
-4.45
-3.73
-3.06
-2.31
-1.45
-0.51
0.38
1.13
1.66
1.94
2.01
2.02
2.10
2.42
3.03
3.90
4.88
5.84
6.69
7.43
8.10
8.73
9.28
9.65
9.75
9.58
9.18
8.66
8.06
7.39
6.60
5.67
4.62
3.57
2.70
2.13
1.91
1.98
2.18
2.31
2.20
1.75
0.96
-0.11
-1.39
-2.76
-4.09
-5.21
-5.96
-6.20
-5.87
-5.02
-3.79
-2.37
-0.94
0.34
1.38
2.13
2.58
2.72
2.57
2.15
1.49
0.68
-0.12
-0.75
-1.00
-0.80
-0.22
0.55
1.30
1.85
2.15
2.27
2.29
2.28
2.23
2.14
2.02
1.93
1.92
2.00
2.13
2.12
1.88
1.35
0.60
-0.22
-0.95
-1.47
-1.80
-2.02
-2.25
-2.54
-2.94
-3.47
-4.15
-5.07
-6.23
-7.54
-8.76
-9.60
-9.80
-9.29
-8.19
-6.80
-5.37
-4.06
-2.85
-1.60
-0.24
1.22
2.60
3.73
4.49
4.89
5.02
5.01
4.91
4.72
4.37
3.86
3.28
2.79
2.48
2.39
2.44
2.54
2.67
2.87
3.21
3.68
4.12
4.32
4.12
3.54
2.76
2.03
1.54
1.33
1.27
1.21
1.01
0.66
0.21
-0.29
-0.79
-1.33
-1.91
-2.55
-3.26
-4.05
-4.96
-5.96
-6.96
-7.82
-8.30
-8.25
-7.62
-6.50
-5.09
-3.62
-2.20
-0.82
0.58
2.04
3.46
4.62
5.31
5.47
5.17
4.67
4.20
3.92
3.81
3.73
3.54
3.19
2.74
2.29
1.97
1.79
1.68
1.52
1.23
0.78
0.28
-0.12
-0.32
-0.27
-0.11
0.01
-0.10
-0.55
-1.26
-2.07
-2.76
-3.18
-3.26
-3.10
-2.84
-2.67
-2.71
-3.03
-3.64
-4.46
-5.33
-6.06
-6.41
-6.24
-5.51
-4.32
-2.86
-1.31
0.23
1.70
3.04
4.17
4.98
5.37
5.35
4.99
4.45
3.84
3.22
2.59
1.96
1.37
0.90
0.60
0.48
0.46
0.44
0.35
0.17
-0.04
-0.28
-0.58
-1.04
-1.78
-2.89
-4.33
-6.04
-7.86
-9.66
-11.35
-12.87
-14.25
-15.52
-16.73
-17.97
-19.33
-20.91
-22.85
-25.21
-28.06
-31.34
-34.92
-38.63
-42.31
-45.82
-49.15
-52.32
-55.42
-58.57
-61.85
-65.38
-69.26
-73.62
-78.60
-84.30
-90.73
-97.77
-105.15
-112.64
-120.08
-127.44
-134.78
-142.03
-148.85
-154.64
-158.59
-159.96
-158.25
-153.38
-145.71
-135.93
-124.99
-113.85
-103.39
-94.10
-86.02
-78.59
-70.90
-62.02
-51.51
-39.72
-27.74
-17.18
-9.49
-5.50
-5.15
-7.52
-11.27
-15.11
-18.18
-20.25
-21.65
-23.03
-25.11
-28.32
-32.63
-37.44
-41.72
-44.28
-44.11
-40.69
-34.10
-24.78
-13.35
-0.29
14.08
29.51
45.56
61.55
76.61
89.93
101.06
109.99
117.20
123.38
129.17
135.02
141.03
147.09
152.95
158.33
163.08
167.20
170.85
174.24
177.54
180.75
183.66
185.92
187.08
186.68
184.32
179.72
172.74
163.38
151.91
138.73
124.40
109.53
94.79
80.80
68.09
56.97
47.52
39.48
32.37
25.58
18.58
11.06
2.99
-5.33
-13.25
-19.95
-24.52
-26.28
-25.01
-21.10
-15.54
-9.55
-4.28
-0.41
1.90
2.93
3.14
2.90
2.44
1.84
1.12
0.29
-0.58
-1.44
-2.22
-2.89
-3.44
-3.87
-4.18
-4.41
-4.54
-4.50
-4.18
-3.51
-2.57
-1.62
-1.00
-1.06
-1.96
-3.61
-5.73
-8.00
-10.11
-11.93
-13.43
-14.72
-15.91
-17.12
-18.51
-20.23
-22.48
-25.37
-28.97
-33.30
-38.34
-44.12
-50.62
-57.70
-64.92
-71.65
-77.10
-80.67
-82.14
-81.85
-80.52
-78.89
-77.42
-76.07
-74.49
-72.30
-69.47
-66.38
-63.70
-62.04
-61.61
-62.13
-62.89
-62.93
-61.35
-57.43
-50.67
-40.80
-27.75
-11.66
7.10
27.90
49.88
71.96
92.96
111.70
127.30
139.34
148.06
154.31
159.13
163.38
167.19
169.87
170.19
167.00
159.93
149.72
138.12
127.31
119.18
114.77
114.01
115.63
117.31
116.10
109.18
94.84
73.48
48.02
23.25
4.40
-4.67
-2.84
8.09
24.28
41.40
55.96
65.94
70.75
70.64
66.25
58.46
48.33
37.22
26.51
17.47
10.80
6.56
4.17
2.74
1.43
-0.27
-2.40
-4.62
-6.44
-7.51
-7.77
-7.53
-7.36
-7.86
-9.50
-12.40
-16.36
-20.90
-25.48
-29.65
-33.19
-36.09
-38.50
-40.68
-42.86
-45.26
-48.04
-51.26
-54.87
-58.68
-62.46
-65.95
-68.98
-71.60
-74.05
-76.84
-80.65
-86.12
-93.56
-102.53
-111.66
-118.75
-121.33
-117.44
-106.37
-89.05
-67.75
-45.48
-25.04
-8.37
3.75
11.62
16.17
18.59
20.08
21.71
24.44
29.00
35.88
45.08
56.14
68.15
79.99
90.61
99.27
105.67
109.85
111.99
112.22
110.43
106.32
99.54
89.91
77.74
63.88
49.57
36.18
24.72
15.48
7.92
1.01
-6.40
-14.96
-24.60
-34.64
-44.08
-52.17
-58.76
-64.36
-70.04
-77.01
-86.24
-98.17
-112.35
-127.27
-140.48
-149.06
-150.41
-143.17
-127.89
-107.04
-84.29
-63.36
-46.98
-36.31
-31.12
-30.46
-33.41
-39.48
-48.62
-60.77
-75.45
-91.36
-106.40
-117.99
-123.60
-121.51
-111.16
-93.32
-69.75
-42.52
-13.51
15.91
44.78
72.16
96.87
117.62
133.41
144.01
150.25
153.78
156.49
159.69
163.72
167.89
170.81
170.96
167.32
159.62
148.40
134.75
119.92
104.82
89.76
74.34
57.71
38.90
17.37
-6.53
-31.19
-53.85
-71.01
-79.40
-77.10
-64.31
-43.52
-18.79
5.52
25.95
40.80
49.98
54.43
55.33
53.54
49.64
44.12
37.70
31.40
26.24
22.92
21.57
21.77
22.71
23.62
24.01
23.85
23.46
23.26
23.48
24.02
24.38
23.93
22.04
18.40
13.08
6.56
-0.43
-7.15
-12.99
-17.72
-21.54
-24.97
-28.67
-33.17
-38.61
-44.71
-50.76
-56.01
-59.89
-62.33
-63.81
-65.25
-67.81
-72.53
-80.04
-90.22
-101.83
-112.50
-119.04
-118.21
-107.86
-87.87
-60.45
-29.59
0.13
24.96
42.96
54.15
59.87
61.85
61.49
59.62
56.66
53.06
49.44
46.53
44.89
44.55
45.05
45.56
45.29
43.78
41.12
37.87
34.72
32.20
30.39
28.83
26.71
23.26
18.10
11.51
4.31
-2.43
-7.87
-11.79
-14.60
-17.12
-20.21
-24.36
-29.47
-34.96
-40.03
-44.05
-46.80
-48.60
-50.16
-52.37
-56.09
-61.90
-69.98
-79.79
-89.92
-97.96
-100.96
-96.21
-82.29
-59.84
-31.61
-1.74
25.60
47.38
62.36
70.88
74.17
73.55
70.02
64.31
57.11
49.33
42.01
36.07
32.09
30.10
29.68
30.20
31.08
31.96
32.63
32.98
32.78
31.65
29.16
25.03
19.37
12.67
5.65
-1.03
-7.06
-12.57
-17.95
-23.59
-29.56
-35.56
-41.01
-45.42
-48.62
-50.93
-53.04
-55.93
-60.61
-67.81
-77.47
-88.39
-98.07
-103.16
-100.51
-88.35
-67.30
-40.34
-11.92
13.42
32.53
44.29
49.35
49.33
45.92
40.26
33.01
24.52
15.26
5.87
-2.91
-10.42
-16.27
-20.43
-23.14
-24.78
-25.80
-26.66
-27.90
-30.09
-33.79
-39.15
-45.50
-51.18
-53.86
-51.39
-42.87
-29.38
-13.88
-0.27
8.11
9.59
4.57
-4.94
-16.49
-28.19
-39.22
-49.82
-60.79
-73.16
-87.72
-104.74
-123.69
-142.88
-159.49
-170.07
-171.50
-162.01
-141.90
-113.69
-81.30
-48.89
-19.71
4.61
23.95
39.18
51.51
62.00
71.49
80.77
90.61
101.61
113.97
127.26
140.42
152.09
160.99
166.27
167.58
164.98
158.76
149.35
137.25
123.03
107.16
89.82
70.83
49.72
26.12
0.16
-27.28
-54.69
-80.12
-101.55
-117.11
-125.20
-124.75
-115.52
-98.39
-75.34
-49.11
-22.58
2.04
23.67
42.40
59.13
75.09
91.46
109.21
128.87
150.38
172.89
194.75
213.92
228.51
237.49
240.94
239.96
236.09
230.59
223.80
214.98
202.58
185.02
161.62
133.19
102.16
72.00
46.05
26.52
13.73
6.38
2.26
-0.77
-4.06
-8.02
-12.32
-16.25
-19.01
-19.89
-18.54
-15.24
-11.02
-7.68
-7.26
-11.37
-20.59
-34.25
-50.68
-67.75
-83.52
-96.72
-107.03
-115.18
-122.69
-131.28
-141.89
-153.81
-164.48
-170.25
-168.01
-156.75
-138.35
-116.95
-97.33
-83.06
-75.58
-74.39
-78.09
-85.50
-96.01
-109.13
-123.74
-137.77
-148.61
-154.17
-153.81
-148.46
-139.92
-129.67
-118.08
-104.28
-87.10
-66.21
-42.87
-19.71
0.23
14.86
23.85
28.51
30.88
32.61
34.27
35.42
35.34
33.85
31.70
30.36
31.12
34.19
38.20
40.39
37.50
26.89
7.61
-19.10
-49.81
-79.41
-102.16
-112.87
-108.15
-87.36
-52.82
-9.18
37.92
83.33
123.64
157.47
185.04
207.13
224.20
235.88
241.14
238.87
228.57
210.71
186.79
158.96
129.57
100.86
74.80
53.10
37.27
28.40
26.76
31.47
40.49
51.01
60.19
65.87
67.07
64.10
58.21
51.07
44.00
37.26
29.67
18.72
1.26
-25.50
-62.82
-109.69
-162.69
-216.65
-265.95
-305.93
-333.91
-349.64
-354.95
-352.78
-346.17
-337.40
-327.81
-317.99
-308.29
-299.06
-290.52
-282.53
-274.42
-265.24
-254.19
-241.06
-226.33
-210.91
-195.86
-181.96
-169.48
-158.14
-147.04
-134.82
-120.01
-101.46
-78.79
-52.56
-24.09
5.10
33.77
61.31
87.54
112.25
134.74
153.84
168.25
177.28
181.31
181.93
181.48
182.31
186.04
193.23
203.38
215.36
227.93
240.07
251.06
260.55
268.31
274.53
279.77
285.13
292.23
302.67
317.37
335.66
354.79
370.16
376.45
369.42
347.28
311.26
265.03
213.21
160.03
108.65
61.19
19.24
-15.79
-42.95
-62.34
-75.58
-85.62
-95.86
-108.91
-125.66
-144.94
-164.13
-180.15
-190.59
-194.49
-192.50
-186.31
-177.96
-169.02
-160.21
-151.64
-143.25
-135.26
-128.21
-122.81
-119.49
-118.24
-118.78
-120.72
-123.88
-128.24
-133.50
-138.87
-142.95
-144.16
-141.26
-133.77
-122.07
-107.15
-90.28
-72.72
-55.60
-39.81
-25.86
-13.71
-2.70
8.06
19.18
30.36
40.18
46.42
46.93
40.60
28.06
11.84
-4.16
-15.53
-18.36
-10.29
8.71
35.96
66.23
92.68
108.54
109.09
93.40
64.83
30.15
-2.63
-26.84
-39.20
-40.31
-33.65
-23.61
-13.51
-4.68
3.35
11.68
20.66
29.21
35.11
36.09
31.10
21.01
8.31
-3.92
-13.29
-18.86
-20.95
-20.45
-17.86
-12.81
-4.35
8.29
24.95
44.20
63.61
80.56
93.10
100.57
103.77
104.60
105.37
107.88
112.86
119.81
127.36
133.98
138.65
141.15
141.84
141.14
139.15
135.48
129.50
120.74
109.14
95.07
79.17
62.11
44.61
27.57
12.21
-0.12
-8.44
-12.67
-14.03
-14.63
-16.75
-21.76
-29.71
-39.52
-49.75
-59.47
-68.62
-77.79
-87.53
-97.86
-108.21
-117.91
-126.77
-135.35
-144.63
-155.17
-166.29
-175.72
-179.94
-175.34
-159.45
-131.95
-94.87
-52.00
-8.05
32.43
65.63
88.83
100.57
100.54
89.45
68.70
39.90
4.59
-35.87
-80.01
-125.67
-169.71
-208.11
-236.61
-251.80
-252.03
-237.90
-212.09
-178.59
-141.77
-105.44
-72.28
-43.74
-20.28
-1.75
12.23
22.19
28.91
33.52
37.44
42.01
48.08
55.72
64.19
72.32
79.06
83.97
87.46
90.65
94.89
101.11
109.43
119.01
128.40
136.03
140.84
142.53
141.65
139.30
136.70
134.82
134.17
134.73
136.12
137.83
139.31
140.06
139.53
137.20
132.70
126.05
117.80
108.93
100.57
93.56
88.20
84.28
81.18
78.05
73.82
67.27
57.25
43.02
24.72
3.56
-18.38
-38.93
-56.47
-70.41
-81.13
-89.47
-96.21
-101.68
-105.84
-108.45
-109.26
-108.14
-105.03
-99.90
-92.79
-83.92
-73.70
-62.69
-51.31
-39.69
-27.52
-14.29
0.32
15.98
31.44
44.71
53.48
55.96
51.47
40.69
25.47
8.23
-8.82
-24.25
-37.65
-49.40
-60.15
-70.29
-79.72
-87.85
-93.94
-97.41
-97.98
-95.52
-89.88
-80.78
-68.02
-51.86
-33.30
-14.03
3.93
18.83
29.67
36.36
39.54
40.24
39.50
38.29
37.35
37.19
38.12
40.18
43.15
46.61
50.02
52.73
54.18
53.99
52.10
48.86
44.87
40.76
36.94
33.45
30.15
26.91
23.84
21.36
19.97
20.04
21.66
24.64
28.68
33.46
38.67
43.97
48.88
52.91
55.53
56.45
55.64
53.34
49.93
45.76
41.00
35.57
29.21
21.63
12.76
2.95
-7.12
-16.59
-24.76
-31.37
-36.64
-41.15
-45.58
-50.50
-56.18
-62.64
-69.72
-77.18
-84.74
-92.21
-99.37
-106.07
-112.21
-117.76
-122.81
-127.47
-131.96
-136.42
-140.84
-144.88
-147.82
-148.66
-146.31
-139.97
-129.43
-115.14
-98.14
-79.61
-60.60
-41.81
-23.67
-6.66
8.49
20.74
29.10
33.02
32.84
29.74
25.41
21.44
18.92
18.16
18.94
20.91
23.85
27.79
32.84
38.92
45.70
52.76
59.90
67.36
75.81
85.99
98.32
112.57
127.98
143.57
158.61
172.72
185.73
197.26
206.46
212.12
213.10
208.80
199.43
185.89
169.42
151.16
131.93
112.28
92.60
73.20
54.21
35.45
16.35
-3.86
-25.78
-49.55
-74.57
-99.60
-123.08
-143.57
-160.14
-172.57
-181.32
-187.18
-190.88
-192.65
-192.09
-188.28
-180.21
-167.31
-149.79
-128.65
-105.43
-81.74
-58.96
-38.10
-19.88
-4.86
6.50
14.03
18.00
19.14
18.61
17.65
17.30
18.18
20.43
23.78
27.69
31.53
34.75
37.07
38.61
39.81
41.31
43.72
47.47
52.76
59.57
67.64
76.43
85.00
92.02
96.04
95.81
90.63
80.50
66.07
48.37
28.64
8.17
-11.77
-30.01
-45.73
-58.59
-68.91
-77.37
-84.81
-91.71
-98.09
-103.59
-107.72
-110.20
-111.04
-110.44
-108.61
-105.55
-100.90
-93.90
-83.63
-69.39
-51.13
-29.76
-7.20
14.11
31.83
44.41
51.51
53.91
53.04
50.43
47.37
44.73
43.10
42.76
43.67
45.33
46.69
46.53
43.73
37.79
29.04
18.50
7.53
-2.62
-11.17
-17.91
-23.17
-27.62
-32.10
-37.35
-43.76
-51.17
-58.65
-64.77
-67.93
-67.00
-61.72
-52.94
-42.32
-31.70
-22.56
-15.59
-10.72
-7.41
-5.06
-3.27
-1.91
-0.93
-0.28
0.22
0.73
1.34
2.04
2.78
3.55
4.44
5.58
6.99
8.53
9.89
10.74
10.86
10.28
9.21
7.88
6.42
4.78
2.77
0.24
-2.79
-6.11
-9.38
-12.24
-14.51
-16.19
-17.49
-18.73
-20.26
-22.42
-25.47
-29.44
-34.04
-38.59
-42.03
-43.29
-41.59
-36.80
-29.57
-21.07
-12.67
-5.49
-0.13
3.24
4.77
4.70
3.27
0.75
-2.48
-5.87
-8.82
-10.74
-11.29
-10.46
-8.59
-6.32
-4.31
-3.14
-3.16
-4.48
-7.11
-11.04
-16.36
-23.13
-31.22
-40.22
-49.44
-58.08
-65.58
-71.84
-77.26
-82.45
-87.92
-93.57
-98.66
-101.77
-101.26
-95.78
-84.81
-68.99
-50.24
-31.38
-15.63
-5.72
-3.13
-7.57
-16.73
-26.88
-33.75
-33.85
-25.40
-8.88
13.34
37.79
60.97
80.13
93.70
101.26
103.42
101.47
97.12
92.08
87.76
84.85
83.33
82.54
81.52
79.41
75.78
70.76
65.17
60.37
58.06
59.69
65.78
75.26
85.26
91.74
90.75
79.91
59.29
31.29
-0.41
-32.33
-62.10
-88.73
-111.89
-131.13
-145.39
-153.33
-154.11
-148.22
-137.67
-125.54
-115.04
-108.65
-107.64
-111.95
-120.40
-130.89
-140.75
-147.04
-147.11
-139.22
-123.00
-99.56
-71.12
-40.40
-9.86
18.75
44.39
66.55
84.96
99.42
109.89
116.60
120.16
121.37
121.05
119.83
118.14
116.27
114.50
113.20
112.75
113.33
114.82
116.69
118.14
118.29
116.53
112.73
107.31
101.05
94.79
89.06
83.84
78.64
72.72
65.48
56.61
46.19
34.55
22.09
9.18
-3.99
-17.44
-31.51
-46.85
-64.19
-83.89
-105.36
-126.60
-144.45
-155.31
-156.39
-146.81
-127.94
-102.98
-75.80
-49.71
-26.77
-7.72
7.60
19.61
28.52
34.45
37.57
38.42
37.93
37.22
37.26
38.57
41.10
44.41
47.89
51.06
53.68
55.75
57.28
58.12
57.85
55.92
51.90
45.77
38.00
29.52
21.27
13.87
7.37
1.32
-4.95
-11.86
-19.37
-26.98
-34.02
-40.00
-44.92
-49.30
-54.10
-60.42
-69.23
-81.02
-95.42
-110.92
-124.74
-133.35
-133.35
-122.68
-101.51
-72.39
-39.49
-7.31
20.72
42.92
59.37
71.17
79.62
85.62
89.56
91.58
91.89
91.01
89.65
88.48
87.90
87.85
87.90
87.52
86.37
84.42
82.02
79.66
77.64
75.80
73.56
70.04
64.57
56.97
47.77
38.03
28.94
21.40
15.61
11.09
6.89
2.00
-4.22
-11.79
-20.14
-28.41
-35.80
-41.92
-46.93
-51.45
-56.40
-62.72
-71.21
-82.26
-95.58
-109.85
-122.70
-131.00
-131.68
-122.84
-104.49
-78.79
-49.32
-19.97
6.24
27.71
44.19
56.24
64.65
69.98
72.68
73.19
72.14
70.34
68.63
67.62
67.60
68.45
69.71
70.84
71.33
71.02
70.05
68.80
67.61
66.54
65.34
63.48
60.42
55.91
50.12
43.60
37.09
31.22
26.29
22.18
18.41
14.39
9.68
4.17
-1.89
-7.97
-13.51
-18.19
-22.04
-25.48
-29.16
-33.79
-40.01
-48.28
-58.73
-70.89
-83.58
-94.74
-101.89
-102.78
-96.10
-82.14
-62.65
-40.25
-17.61
3.31
21.46
36.47
48.24
56.63
61.43
62.67
60.80
56.78
51.89
47.43
44.43
43.41
44.30
46.31
48.12
48.18
45.28
39.15
30.75
21.99
14.98
11.07
10.30
11.57
13.44
15.09
16.97
20.53
27.43
38.61
53.81
71.70
90.61
109.13
126.55
142.72
157.46
169.99
178.66
181.08
174.85
158.52
132.30
98.17
59.41
19.58
-18.28
-52.02
-80.00
-100.48
-111.40
-110.95
-98.68
-76.69
-49.81
-24.48
-6.63
0.21
-4.11
-16.99
-34.69
-53.86
-72.22
-88.15
-99.74
-104.44
-99.45
-83.10
-56.11
-22.07
13.41
44.46
66.82
79.15
83.07
82.20
80.56
81.14
84.95
91.12
97.64
102.52
104.75
104.62
103.44
102.70
103.45
105.88
109.55
113.65
117.22
119.19
118.26
112.92
101.88
84.63
61.91
35.72
8.79
-16.34
-37.93
-55.46
-69.29
-80.16
-88.76
-95.60
-101.15
-106.06
-111.17
-117.28
-124.76
-133.45
-142.73
-151.82
-160.21
-167.71
-174.38
-180.28
-185.26
-188.95
-191.02
-191.41
-190.46
-188.98
-187.94
-188.17
-189.85
-192.19
-193.28
-190.30
-180.17
-160.49
-130.57
-91.94
-48.31
-4.74
33.59
62.75
80.93
88.82
89.19
85.84
82.33
80.98
82.35
85.49
88.63
89.98
88.33
83.43
75.99
67.63
60.59
57.37
59.83
68.33
80.99
93.66
101.23
99.53
87.22
66.33
41.26
16.50
-5.57
-25.56
-46.26
-70.34
-98.26
-127.34
-152.80
-170.06
-176.92
-174.38
-165.68
-154.33
-142.27
-129.22
-113.52
-93.68
-69.77
-43.75
-18.69
2.53
18.35
28.92
35.41
39.07
40.39
38.85
33.47
23.69
10.11
-5.32
-19.72
-30.31
-35.42
-35.12
-31.17
-26.26
-22.83
-22.10
-23.51
-24.99
-23.86
-18.10
-7.22
7.38
22.96
36.49
45.72
49.72
48.85
44.11
36.66
27.47
17.41
7.41
-1.44
-8.06
-11.64
-11.72
-8.07
-0.41
11.39
26.93
44.56
61.10
72.11
72.99
60.22
32.42
-9.16
-60.82
-116.98
-171.03
-216.30
-247.20
-260.35
-255.36
-234.92
-203.88
-167.70
-130.89
-95.89
-62.87
-30.36
3.72
40.92
81.45
123.84
165.37
202.90
233.84
256.90
272.12
280.47
283.17
281.20
275.27
265.88
253.42
237.93
218.86
195.11
165.59
130.15
90.29
49.18
10.80
-21.36
-45.34
-61.12
-70.07
-74.11
-74.91
-73.59
-70.86
-67.28
-63.32
-59.24
-54.81
-49.23
-41.44
-30.66
-16.87
-0.96
15.47
30.64
43.10
52.09
57.51
59.84
59.91
58.73
57.33
56.54
56.83
58.15
60.02
61.68
62.56
62.54
62.08
62.07
63.37
66.45
71.06
76.39
81.36
85.10
87.24
88.03
88.13
88.34
89.31
91.39
94.64
98.81
103.39
107.63
110.60
111.30
108.89
102.87
93.20
80.36
65.25
48.99
32.61
16.82
1.83
-12.66
-27.25
-42.63
-59.27
-77.29
-96.46
-116.34
-136.36
-155.94
-174.51
-191.63
-206.99
-220.43
-231.97
-241.70
-249.66
-255.83
-260.15
-262.72
-263.79
-263.79
-263.18
-262.33
-261.37
-260.33
-258.99
-256.92
-253.28
-246.83
-236.11
-219.79
-197.24
-168.87
-136.06
-100.82
-64.95
-29.49
5.36
39.81
73.69
105.82
134.10
156.06
169.71
174.04
169.06
155.40
133.95
106.02
73.59
39.61
7.63
-19.28
-39.67
-54.47
-66.65
-80.14
-98.22
-122.47
-152.39
-185.64
-218.74
-247.72
-268.86
-279.40
-278.11
-265.64
-244.40
-217.79
-189.31
-161.77
-136.94
-115.62
-97.86
-83.22
-70.76
-59.09
-46.42
-30.90
-10.96
14.44
45.41
80.96
118.82
155.71
188.12
213.42
230.73
241.21
247.34
251.70
255.75
259.46
261.91
262.35
261.03
259.28
258.79
260.60
264.51
269.12
272.47
272.82
269.13
261.27
249.99
236.62
222.71
209.55
197.92
187.82
178.58
169.27
159.20
148.28
136.99
125.98
115.55
105.21
93.83
80.13
63.33
43.63
22.27
1.06
-18.19
-34.26
-46.69
-55.71
-61.87
-65.76
-67.79
-68.21
-67.22
-65.08
-62.19
-59.07
-56.27
-54.19
-52.98
-52.52
-52.42
-52.24
-51.58
-50.16
-47.78
-44.25
-39.36
-33.01
-25.28
-16.61
-7.76
0.37
6.94
11.37
13.45
13.39
11.67
9.02
6.22
3.94
2.56
2.06
2.02
1.80
0.93
-0.63
-2.41
-3.68
-3.80
-2.55
-0.33
2.02
3.50
3.24
0.74
-3.99
-10.37
-17.19
-22.72
-25.05
-22.66
-14.93
-2.51
12.79
28.64
42.74
53.44
59.88
61.86
59.59
53.60
44.69
33.92
22.46
11.33
1.12
-8.13
-16.78
-25.30
-33.93
-42.51
-50.59
-57.63
-63.21
-67.28
-70.14
-72.35
-74.55
-77.33
-80.96
-85.45
-90.43
-95.36
-99.68
-103.10
-105.83
-108.50
-111.77
-115.81
-119.89
-122.31
-120.98
-114.31
-102.01
-85.47
-67.50
-51.42
-40.08
-34.90
-35.52
-39.95
-45.42
-49.13
-49.15
-44.99
-37.39
-28.06
-19.10
-12.46
-9.44
-10.21
-13.67
-17.72
-19.87
-18.11
-11.65
-1.10
12.00
25.87
39.30
51.85
63.61
74.76
85.25
94.83
103.20
110.10
115.23
117.98
117.48
112.88
103.90
91.20
76.19
60.67
46.24
33.66
22.83
13.07
3.62
-5.95
-15.57
-24.94
-33.78
-42.09
-50.12
-58.28
-67.01
-76.69
-87.55
-99.50
-111.87
-123.26
-131.69
-135.27
-132.85
-124.62
-112.09
-97.51
-83.12
-70.36
-59.65
-50.63
-42.67
-35.28
-28.26
-21.54
-15.00
-8.37
-1.25
6.70
15.58
25.16
34.99
44.45
53.00
60.27
66.09
70.50
73.63
75.63
76.58
76.51
75.39
73.25
70.15
66.25
61.74
56.69
51.02
44.43
36.59
27.37
16.96
5.96
-4.80
-14.51
-22.73
-29.48
-35.33
-41.13
-47.85
-56.19
-66.29
-77.53
-88.40
-96.77
-100.42
-97.73
-88.22
-72.88
-53.86
-33.80
-15.04
0.90
13.54
23.16
30.36
35.69
39.45
41.80
42.92
43.13
42.90
42.68
42.79
43.31
44.14
45.18
46.35
47.70
49.27
50.95
52.48
53.48
53.62
52.83
51.24
49.13
46.69
43.95
40.71
36.75
31.92
26.28
20.06
13.52
6.91
0.30
-6.37
-13.23
-20.49
-28.42
-37.16
-46.66
-56.37
-65.13
-71.33
-73.24
-69.64
-60.26
-46.04
-28.81
-10.70
6.46
21.57
34.27
44.61
52.69
58.40
61.53
61.98
60.00
56.27
51.74
47.33
43.65
40.88
38.79
37.00
35.18
33.25
31.35
29.73
28.52
27.63
26.70
25.23
22.72
18.94
13.99
8.31
2.52
-2.85
-7.49
-11.40
-14.90
-18.48
-22.71
-28.07
-34.76
-42.55
-50.62
-57.57
-61.74
-61.65
-56.51
-46.61
-33.19
-18.12
-3.23
10.16
21.39
30.41
37.41
42.51
45.75
47.09
46.62
44.69
41.92
38.96
36.36
34.42
33.07
32.08
31.18
30.25
29.33
28.63
28.28
28.24
28.16
27.53
25.85
22.84
18.58
13.42
7.89
2.50
-2.43
-6.78
-10.69
-14.47
-18.62
-23.63
-29.86
-37.25
-45.18
-52.38
-57.24
-58.24
-54.46
-45.98
-33.88
-19.84
-5.67
7.28
18.23
27.02
33.74
38.54
41.44
42.41
41.54
39.21
36.07
32.90
30.45
29.12
28.93
29.55
30.50
31.33
31.81
31.98
32.03
32.13
32.26
32.17
31.43
29.67
26.77
22.90
18.52
14.15
10.21
6.88
4.06
1.51
-1.10
-4.10
-7.79
-12.33
-17.69
-23.46
-28.84
-32.75
-34.07
-32.14
-26.90
-19.00
-9.55
0.27
9.48
17.53
24.17
29.40
33.25
35.73
36.82
36.55
35.09
32.80
30.21
27.92
26.45
26.07
26.71
28.01
29.45
30.58
31.11
30.96
30.14
28.69
26.53
23.48
19.35
14.08
7.84
1.06
-5.68
-11.76
-16.75
-20.51
-23.23
-25.28
-27.18
-29.43
-32.41
-36.37
-41.30
-46.80
-52.07
-55.94
-57.18
-54.89
-48.79
-39.42
-27.89
-15.54
-3.48
7.60
17.37
25.62
32.00
36.09
37.55
36.44
33.33
29.19
25.00
21.45
18.70
16.52
14.52
12.41
10.12
7.78
5.62
3.75
2.09
0.37
-1.77
-4.64
-8.32
-12.60
-17.07
-21.28
-24.93
-28.01
-30.75
-33.50
-36.64
-40.44
-45.06
-50.44
-56.20
-61.52
-65.20
-65.89
-62.57
-54.94
-43.63
-30.02
-15.80
-2.41
9.21
18.72
26.10
31.42
34.63
35.68
34.66
32.03
28.56
25.15
22.61
21.31
21.20
21.81
22.58
23.03
22.93
22.35
21.47
20.47
19.38
18.05
16.20
13.58
10.02
5.59
0.59
-4.56
-9.46
-13.86
-17.72
-21.21
-24.63
-28.40
-32.92
-38.44
-44.95
-51.90
-58.22
-62.44
-63.08
-59.18
-50.66
-38.46
-24.26
-9.95
2.93
13.48
21.51
27.28
31.21
33.63
34.77
34.79
33.92
32.52
30.99
29.73
28.98
28.78
29.00
29.40
29.78
30.00
29.96
29.63
28.94
27.80
26.15
23.99
21.37
18.34
14.99
11.29
7.18
2.62
-2.31
-7.32
-12.08
-16.24
-19.65
-22.43
-24.93
-27.64
-31.01
-35.36
-40.68
-46.53
-52.00
-55.79
-56.53
-53.24
-45.67
-34.57
-21.41
-7.97
4.23
14.30
22.04
27.74
31.77
34.40
35.69
35.62
34.31
32.13
29.70
27.65
26.48
26.31
26.91
27.83
28.61
29.00
29.03
28.93
28.90
28.93
28.72
27.83
25.83
22.63
18.47
13.93
9.66
6.15
3.51
1.47
-0.46
-2.79
-5.78
-9.36
-13.18
-16.79
-19.79
-22.07
-23.78
-25.36
-27.34
-30.29
-34.56
-40.26
-47.00
-53.91
-59.65
-62.67
-61.71
-56.25
-46.71
-34.41
-21.14
-8.59
2.13
10.62
17.05
21.76
25.04
26.92
27.38
26.49
24.60
22.35
20.45
19.49
19.68
20.83
22.47
24.03
25.08
25.50
25.39
24.97
24.40
23.66
22.55
20.83
18.32
15.03
11.23
7.29
3.63
0.53
-1.91
-3.85
-5.61
-7.55
-9.91
-12.70
-15.69
-18.51
-20.85
-22.64
-24.10
-25.66
-27.89
-31.30
-36.17
-42.45
-49.64
-56.71
-62.26
-64.76
-63.02
-56.54
-45.82
-32.18
-17.45
-3.40
8.70
18.22
25.15
29.84
32.76
34.29
34.77
34.40
33.43
32.16
30.89
29.95
29.52
29.62
30.10
30.73
31.28
31.66
31.82
31.75
31.39
30.60
29.26
27.31
24.81
21.92
18.79
15.59
12.38
9.18
6.03
2.99
0.13
-2.42
-4.57
-6.32
-7.77
-9.14
-10.72
-12.78
-15.39
-18.47
-21.73
-24.82
-27.51
-29.78
-31.86
-34.19
-37.30
-41.65
-47.38
-54.09
-60.79
-65.94
-67.91
-65.45
-58.22
-46.95
-33.21
-18.92
-5.72
5.34
13.96
20.31
24.78
27.74
29.44
30.11
30.02
29.50
28.91
28.52
28.45
28.64
28.84
28.82
28.44
27.80
27.15
26.82
26.97
27.51
28.10
28.29
27.73
26.34
24.33
22.06
19.88
17.98
16.33
14.73
12.95
10.82
8.29
5.46
2.53
-0.26
-2.74
-4.86
-6.80
-8.82
-11.25
-14.20
-17.58
-21.05
-24.24
-26.87
-28.95
-30.77
-32.77
-35.46
-39.24
-44.26
-50.31
-56.71
-62.27
-65.53
-65.12
-60.27
-51.14
-38.82
-25.01
-11.46
0.45
10.08
17.36
22.63
26.23
28.45
29.40
29.22
28.12
26.47
24.71
23.22
22.26
21.86
21.89
22.14
22.47
22.83
23.26
23.83
24.45
24.95
25.01
24.36
22.87
20.60
17.80
14.80
11.91
9.29
6.98
4.84
2.71
0.50
-1.75
-3.83
-5.47
-6.49
-6.98
-7.26
-7.89
-9.35
-11.82
-15.14
-18.81
-22.23
-24.99
-27.04
-28.68
-30.48
-33.07
-36.84
-41.88
-47.73
-53.40
-57.54
-58.69
-55.81
-48.63
-37.84
-24.88
-11.52
0.71
10.84
18.55
23.95
27.31
28.88
28.87
27.55
25.31
22.70
20.23
18.28
16.99
16.28
15.97
15.93
16.12
16.65
17.58
18.92
20.43
21.78
22.57
22.56
21.67
20.04
17.91
15.48
12.87
10.08
7.07
3.85
0.56
-2.59
-5.38
-7.70
-9.57
-11.18
-12.74
-14.45
-16.41
-18.53
-20.65
-22.58
-24.19
-25.55
-26.88
-28.55
-30.98
-34.48
-39.17
-44.80
-50.66
-55.64
-58.45
-57.91
-53.36
-44.91
-33.50
-20.64
-8.01
3.09
11.88
18.32
22.74
25.63
27.38
28.18
28.12
27.30
25.98
24.44
22.99
21.76
20.76
19.89
19.14
18.63
18.54
19.00
19.96
21.11
22.04
22.39
21.99
20.94
19.45
17.77
16.03
14.24
12.39
10.43
8.41
6.42
4.55
2.84
1.23
-0.41
-2.30
-4.58
-7.36
-10.57
-14.04
-17.55
-20.88
-23.90
-26.59
-29.11
-31.73
-34.85
-38.87
-43.94
-49.75
-55.35
-59.34
-60.21
-56.96
-49.47
-38.61
-25.96
-13.22
-1.69
7.92
15.52
21.32
25.56
28.36
29.78
29.91
29.00
27.42
25.63
24.01
22.80
22.03
21.58
21.31
21.16
21.15
21.36
21.76
22.16
22.18
21.45
19.80
17.35
14.55
11.94
10.02
9.03
8.87
9.21
9.62
9.71
9.29
8.25
6.64
4.54
2.10
-0.54
-3.17
-5.63
-7.73
-9.44
-10.83
-12.10
-13.51
-15.23
-17.25
-19.37
-21.27
-22.69
-23.55
-24.02
-24.53
-25.59
-27.67
-31.03
-35.63
-41.07
-46.53
-50.89
-52.97
-51.80
-47.00
-38.94
-28.68
-17.65
-7.20
1.66
8.46
13.18
16.06
17.39
17.47
16.57
14.93
12.85
10.62
8.55
6.91
5.90
5.58
5.89
6.63
7.59
8.54
9.31
9.85
10.11
10.02
9.49
8.39
6.65
4.20
1.11
-2.49
-6.44
-10.54
-14.58
-18.35
-21.68
-24.45
-26.70
-28.67
-30.79
-33.60
-37.56
-42.75
-48.69
-54.27
-58.00
-58.47
-54.82
-47.13
-36.38
-24.13
-11.99
-1.16
7.75
14.65
19.75
23.23
25.18
25.62
24.66
22.57
19.82
17.00
14.68
13.26
12.87
13.38
14.41
15.48
16.22
16.40
16.05
15.34
14.43
13.37
12.07
10.28
7.77
4.39
0.24
-4.38
-9.02
-13.25
-16.77
-19.54
-21.77
-23.91
-26.47
-29.91
-34.51
-40.18
-46.41
-52.21
-56.27
-57.26
-54.24
-47.05
-36.45
-23.90
-11.15
0.30
9.63
16.68
21.78
25.40
27.82
29.09
29.16
28.07
26.18
24.05
22.27
21.27
21.07
21.46
22.03
22.45
22.59
22.49
22.25
21.94
21.49
20.73
19.44
17.42
14.62
11.08
6.98
2.60
-1.79
-5.94
-9.70
-13.02
-15.96
-18.73
-21.57
-24.83
-28.81
-33.65
-39.19
-44.78
-49.38
-51.70
-50.64
-45.60
-36.83
-25.31
-12.52
-0.02
11.02
19.94
26.61
31.20
34.03
35.40
35.57
34.80
33.41
31.76
30.19
28.99
28.33
28.23
28.60
29.22
29.85
30.26
30.27
29.79
28.73
27.11
24.91
22.24
19.23
16.12
13.09
10.23
7.44
4.48
1.10
-2.78
-7.01
-11.20
-14.94
-18.02
-20.53
-22.92
-25.79
-29.69
-34.95
-41.39
-48.33
-54.56
-58.64
-59.26
-55.64
-47.89
-36.94
-24.29
-11.53
0.05
9.71
17.24
22.72
26.30
28.14
28.43
27.41
25.53
23.28
21.20
19.67
18.90
18.88
19.49
20.57
21.92
23.39
24.75
25.70
25.94
25.20
23.40
20.71
17.47
14.06
10.77
7.66
4.58
1.26
-2.48
-6.62
-10.89
-14.88
-18.22
-20.71
-22.50
-24.08
-26.15
-29.42
-34.34
-40.84
-48.17
-54.95
-59.47
-60.21
-56.27
-47.80
-35.86
-22.16
-8.45
3.90
14.19
22.29
28.42
32.86
35.80
37.35
37.64
36.91
35.52
33.94
32.57
31.73
31.51
31.79
32.33
32.83
33.12
33.17
33.06
32.90
32.70
32.28
31.34
29.62
26.99
23.59
19.75
15.89
12.37
9.39
6.95
4.85
2.81
0.53
-2.23
-5.52
-9.26
-13.21
-17.13
-20.82
-24.24
-27.45
-30.69
-34.29
-38.65
-44.08
-50.62
-57.75
-64.32
-68.73
-69.35
-65.14
-56.07
-43.23
-28.44
-13.72
-0.63
9.99
18.06
23.98
28.27
31.31
33.33
34.44
34.79
34.67
34.45
34.46
34.89
35.70
36.67
37.53
38.08
38.27
38.23
38.11
38.05
38.01
37.79
37.03
35.35
32.56
28.71
24.16
19.52
15.34
11.97
9.39
7.24
5.04
2.39
-0.87
-4.63
-8.61
-12.50
-16.01
-19.05
-21.61
-23.86
-26.07
-28.62
-31.97
-36.48
-42.23
-48.79
-55.16
-59.86
-61.38
-58.64
-51.45
-40.62
-27.70
-14.49
-2.47
7.53
15.32
21.14
25.37
28.31
30.17
31.10
31.31
31.10
30.79
30.66
30.80
31.16
31.58
31.90
32.03
32.01
31.91
31.80
31.59
31.07
29.95
28.02
25.31
22.06
18.63
15.36
12.39
9.59
6.69
3.41
-0.37
-4.53
-8.74
-12.58
-15.77
-18.27
-20.34
-22.44
-25.09
-28.70
-33.41
-39.02
-44.86
-49.91
-52.88
-52.58
-48.28
-40.06
-28.87
-16.25
-3.91
6.82
15.33
21.66
26.22
29.44
31.51
32.48
32.37
31.44
30.15
29.03
28.47
28.54
29.07
29.75
30.33
30.71
30.93
31.05
31.05
30.82
30.17
28.98
27.26
25.11
22.66
20.02
17.22
14.27
11.19
8.11
5.21
2.69
0.63
-1.02
-2.47
-4.00
-5.80
-7.96
-10.40
-12.95
-15.41
-17.63
-19.57
-21.33
-23.13
-25.32
-28.30
-32.38
-37.66
-43.79
-49.90
-54.65
-56.58
-54.56
-48.24
-38.21
-25.90
-13.06
-1.25
8.53
15.99
21.30
24.82
26.85
27.58
27.12
25.68
23.59
21.28
19.14
17.51
16.52
16.18
16.33
16.79
17.39
17.97
18.46
18.75
18.74
18.28
17.27
15.66
13.53
11.05
8.42
5.85
3.50
1.52
-0.07
-1.32
-2.42
-3.63
-5.23
-7.37
-10.03
-12.98
-15.86
-18.42
-20.60
-22.57
-24.68
-27.31
-30.73
-35.07
-40.20
-45.68
-50.67
-54.06
-54.59
-51.36
-44.12
-33.47
-20.74
-7.53
4.76
15.28
23.82
30.48
35.39
38.45
39.37
37.89
33.98
28.11
21.14
14.24
8.61
5.25
4.73
7.15
12.08
18.68
25.92
32.70
38.07
41.29
41.90
39.74
34.98
28.11
19.94
11.51
3.82
-2.28
-6.44
-8.87
-10.36
-11.95
-14.61
-18.90
-24.75
-31.53
-38.25
-44.00
-48.16
-50.62
-51.79
-52.49
-53.69
-56.25
-60.57
-66.27
-72.13
-76.25
-76.60
-71.76
-61.49
-46.88
-30.00
-13.27
1.31
12.64
20.54
25.53
28.34
29.63
29.80
29.13
27.87
26.35
24.97
24.07
23.84
24.31
25.31
26.63
28.09
29.63
31.21
32.83
34.35
35.42
35.53
34.20
31.15
26.53
21.00
15.49
10.95
7.90
6.32
5.63
4.99
3.68
1.28
-2.10
-6.01
-9.83
-13.02
-15.27
-16.61
-17.35
-18.02
-19.23
-21.54
-25.31
-30.51
-36.61
-42.54
-46.92
-48.43
-46.22
-40.27
-31.43
-21.13
-10.90
-1.90
5.34
10.83
14.90
17.91
20.09
21.52
22.26
22.42
22.22
21.92
21.70
21.61
21.59
21.54
21.42
21.33
21.41
21.78
22.38
22.94
23.03
22.22
20.25
17.14
13.21
8.96
4.86
1.25
-1.80
-4.45
-6.96
-9.52
-12.19
-14.82
-17.21
-19.23
-20.89
-22.45
-24.31
-26.88
-30.38
-34.66
-39.10
-42.72
-44.40
-43.25
-38.92
-31.71
-22.50
-12.44
-2.63
6.08
13.23
18.57
22.06
23.69
23.49
21.61
18.42
14.45
10.37
6.84
4.30
2.88
2.36
2.34
2.46
2.53
2.63
2.98
3.67
4.55
5.18
5.01
3.68
1.21
-2.02
-5.43
-8.53
-11.11
-13.21
-15.09
-17.06
-19.46
-22.58
-26.70
-31.87
-37.74
-43.45
-47.69
-49.10
-46.79
-40.70
-31.65
-21.06
-10.35
-0.58
7.73
14.51
19.80
23.53
25.54
25.66
24.02
21.05
17.45
13.96
11.09
9.00
7.55
6.46
5.47
4.55
3.82
3.50
3.73
4.42
5.24
5.64
5.13
3.40
0.53
-3.10
-6.92
-10.41
-13.29
-15.63
-17.76
-20.12
-23.20
-27.32
-32.51
-38.36
-43.97
-48.06
-49.29
-46.69
-40.13
-30.32
-18.71
-6.94
3.62
12.20
18.63
23.13
26.11
27.82
28.41
27.95
26.55
24.49
22.20
20.13
18.58
17.61
17.01
16.46
15.71
14.73
13.75
13.05
12.77
12.73
12.46
11.40
9.21
5.90
1.87
-2.26
-5.98
-9.08
-11.69
-14.26
-17.32
-21.29
-26.34
-32.27
-38.38
-43.62
-46.74
-46.62
-42.69
-35.10
-24.81
-13.22
-1.79
8.43
16.90
23.51
28.31
31.32
32.50
31.86
29.68
26.58
23.39
20.88
19.44
19.04
19.21
19.33
18.95
18.02
16.83
15.85
15.36
15.28
15.14
14.26
12.17
8.77
4.50
0.02
-4.03
-7.36
-10.07
-12.57
-15.34
-18.68
-22.71
-27.34
-32.38
-37.42
-41.85
-44.80
-45.30
-42.60
-36.53
-27.65
-17.12
-6.37
3.40
11.40
17.23
20.69
21.52
19.54
14.79
7.96
0.35
-6.33
-10.55
-11.51
-9.43
-5.34
-0.69
3.35
6.17
7.81
8.64
9.01
8.96
8.27
6.56
3.67
-0.14
-4.20
-7.62
-9.61
-9.79
-8.30
-5.71
-2.87
-0.64
0.25
-0.61
-3.15
-6.77
-10.48
-13.15
-13.97
-12.81
-10.30
-7.53
-5.61
-5.12
-5.89
-7.22
-8.28
-8.43
-7.53
-5.75
-3.47
-0.94
1.69
4.45
7.36
10.36
13.31
15.94
18.02
19.45
20.26
20.65
20.81
20.83
20.53
19.52
17.33
13.61
8.39
2.10
-4.48
-10.51
-15.38
-18.91
-21.40
-23.49
-25.88
-29.13
-33.49
-38.86
-44.69
-50.02
-53.56
-53.95
-50.19
-42.06
-30.34
-16.68
-3.02
9.02
18.57
25.53
30.31
33.42
35.20
35.80
35.35
34.09
32.43
30.80
29.54
28.78
28.45
28.36
28.31
28.18
27.97
27.76
27.59
27.45
27.16
26.46
25.09
22.92
20.04
16.73
13.35
10.18
7.24
4.35
1.24
-2.27
-6.14
-10.12
-13.85
-17.07
-19.74
-22.08
-24.59
-27.84
-32.28
-37.95
-44.26
-49.99
-53.51
-53.28
-48.39
-38.99
-26.26
-12.05
1.75
13.77
23.36
30.49
35.46
38.59
40.11
40.17
39.09
37.32
35.44
33.99
33.27
33.31
33.83
34.40
34.64
34.31
33.44
32.28
31.15
30.30
29.72
29.15
28.15
26.28
23.30
19.32
14.73
10.17
6.23
3.35
1.64
0.93
0.79
0.73
0.33
-0.66
-2.33
-4.63
-7.49
-10.76
-14.33
-18.06
-21.83
-25.61
-29.50
-33.67
-38.17
-42.63
-46.14
-47.43
-45.26
-39.07
-29.32
-17.42
-5.28
5.41
13.69
19.48
23.29
25.76
27.26
27.81
27.27
25.61
23.12
20.30
17.72
15.76
14.48
13.68
13.09
12.48
11.83
11.31
11.07
11.23
11.70
12.20
12.32
11.72
10.18
7.75
4.71
1.45
-1.65
-4.39
-6.81
-9.19
-11.90
-15.23
-19.21
-23.57
-27.81
-31.38
-33.89
-35.28
-35.80
-35.92
-36.19
-37.12
-39.08
-42.17
-46.08
-49.99
-52.61
-52.44
-48.37
-40.02
-28.14
-14.31
-0.52
11.49
20.76
27.17
31.21
33.54
34.66
34.76
33.80
31.75
28.75
25.25
21.88
19.33
18.18
18.70
20.84
24.32
28.65
33.30
37.70
41.27
43.45
43.78
42.01
38.22
32.88
26.74
20.56
14.86
9.77
5.05
0.25
-4.95
-10.53
-16.07
-20.91
-24.44
-26.34
-26.70
-26.03
-24.99
-24.26
-24.42
-25.91
-28.98
-33.55
-39.00
-44.05
-47.01
-46.22
-40.78
-30.92
-18.13
-4.56
7.70
17.29
23.85
27.83
29.99
31.00
31.21
30.70
29.51
27.73
25.63
23.61
22.06
21.24
21.12
21.45
21.82
21.88
21.49
20.79
20.09
19.62
19.38
19.14
18.46
17.03
14.80
11.99
9.00
6.24
3.94
2.07
0.42
-1.34
-3.49
-6.15
-9.26
-12.61
-15.87
-18.78
-21.18
-23.05
-24.50
-25.72
-27.02
-28.71
-31.17
-34.63
-38.93
-43.33
-46.56
-47.18
-44.04
-36.84
-26.30
-13.92
-1.53
9.39
18.00
24.16
28.19
30.54
31.56
31.49
30.55
29.01
27.25
25.66
24.54
24.00
23.98
24.21
24.42
24.36
23.96
23.34
22.70
22.20
21.84
21.45
20.69
19.27
17.09
14.27
11.08
7.90
4.99
2.46
0.25
-1.81
-3.90
-6.19
-8.67
-11.26
-13.73
-15.86
-17.50
-18.69
-19.67
-20.79
-22.39
-24.75
-27.98
-32.06
-36.65
-41.09
-44.43
-45.57
-43.63
-38.27
-29.93
-19.71
-9.07
0.67
8.66
14.60
18.64
21.08
22.15
21.97
20.62
18.24
15.13
11.73
8.50
5.84
4.01
3.05
2.84
3.21
3.99
5.02
6.13
7.12
7.72
7.68
6.87
5.32
3.30
1.09
-1.04
-3.03
-4.96
-7.01
-9.32
-11.85
-14.39
-16.62
-18.37
-19.58
-20.47
-21.40
-22.81
-25.06
-28.29
-32.31
-36.55
-40.03
-41.62
-40.34
-35.70
-27.96
-18.11
-7.52
2.46
10.88
17.36
21.95
24.94
26.58
26.97
26.18
24.30
21.58
18.47
15.46
13.02
11.38
10.56
10.36
10.54
10.93
11.40
11.90
12.32
12.50
12.18
11.19
9.53
7.34
4.89
2.39
-0.10
-2.67
-5.46
-8.50
-11.67
-14.68
-17.25
-19.22
-20.65
-21.84
-23.28
-25.45
-28.71
-33.03
-37.87
-42.20
-44.65
-43.97
-39.43
-31.19
-20.28
-8.26
3.28
13.16
20.84
26.34
29.97
32.08
32.89
32.49
31.01
28.63
25.70
22.65
19.88
17.75
16.40
15.86
15.98
16.62
17.56
18.59
19.53
20.22
20.50
20.27
19.47
18.02
15.85
12.81
8.76
3.56
-2.85
-10.21
-17.88
-24.86
-29.97
-32.28
-31.50
-28.20
-23.77
-19.95
-18.24
-19.32
-22.82
-27.47
-31.52
-33.38
-32.10
-27.55
-20.39
-11.80
-3.07
4.73
10.94
15.28
17.75
18.46
17.56
15.25
11.88
8.00
4.33
1.62
0.41
0.88
2.80
5.69
8.95
12.15
15.03
17.50
19.53
21.06
21.99
22.18
21.57
20.13
17.87
14.84
11.08
6.72
2.01
-2.71
-7.04
-10.67
-13.47
-15.51
-17.11
-18.75
-20.97
-24.21
-28.57
-33.64
-38.45
-41.68
-42.08
-38.91
-32.32
-23.24
-13.08
-3.18
5.52
12.53
17.78
21.32
23.18
23.38
22.08
19.63
16.52
13.32
10.52
8.45
7.24
6.80
6.91
7.27
7.61
7.77
7.76
7.67
7.60
7.44
6.90
5.57
3.17
-0.30
-4.48
-8.77
-12.58
-15.53
-17.57
-18.92
-20.01
-21.26
-23.07
-25.78
-29.53
-34.15
-39.02
-43.09
-45.09
-43.94
-39.18
-31.14
-20.90
-9.89
0.55
9.47
16.43
21.39
24.48
25.83
25.54
23.77
20.81
17.14
13.39
10.21
8.10
7.25
7.55
8.61
9.93
11.08
11.80
12.08
12.06
11.89
11.58
10.89
9.42
6.79
2.87
-2.02
-7.28
-12.13
-16.02
-18.77
-20.65
-22.24
-24.18
-26.97
-30.90
-35.90
-41.51
-46.78
-50.44
-51.14
-47.88
-40.48
-29.68
-17.02
-4.33
6.87
15.71
22.09
26.41
29.18
30.77
31.28
30.72
29.19
27.02
24.72
22.82
21.67
21.32
21.53
21.90
22.06
21.87
21.35
20.67
19.90
19.01
17.83
16.18
13.98
11.32
8.40
5.35
2.23
-1.02
-4.48
-8.13
-11.77
-15.11
-17.88
-19.94
-21.45
-22.79
-24.59
-27.46
-31.80
-37.51
-43.76
-49.13
-51.94
-50.86
-45.36
-35.96
-24.00
-11.20
0.89
11.25
19.44
25.45
29.44
31.65
32.30
31.72
30.30
28.54
26.93
25.80
25.33
25.42
25.80
26.15
26.25
26.12
25.96
26.07
26.58
27.33
27.87
27.64
26.21
23.54
20.00
16.20
12.79
10.18
8.41
7.15
5.89
4.15
1.68
-1.48
-4.97
-8.31
-11.10
-13.15
-14.62
-15.89
-17.53
-20.07
-23.95
-29.25
-35.62
-42.12
-47.34
-49.70
-48.00
-41.88
-31.98
-19.79
-7.08
4.63
14.49
22.29
28.24
32.56
35.32
36.50
36.10
34.37
31.77
28.88
26.20
23.98
22.21
20.59
18.70
16.20
12.95
9.14
5.32
2.22
0.50
0.55
2.25
5.07
8.24
11.01
12.87
13.57
13.06
11.38
8.52
4.52
-0.40
-5.81
-11.02
-15.29
-18.04
-19.05
-18.60
-17.33
-16.08
-15.56
-16.20
-18.10
-21.15
-25.03
-29.32
-33.40
-36.46
-37.63
-36.27
-32.24
-26.02
-18.58
-11.05
-4.28
1.31
5.75
9.24
11.88
13.63
14.35
14.07
13.06
11.90
11.27
11.68
13.35
16.12
19.44
22.68
25.30
27.03
27.89
28.10
27.88
27.27
26.17
24.37
21.75
18.41
14.64
10.86
7.45
4.60
2.24
0.11
-2.10
-4.62
-7.50
-10.57
-13.52
-16.01
-17.79
-18.88
-19.59
-20.44
-22.07
-25.04
-29.62
-35.62
-42.25
-48.17
-51.77
-51.61
-46.97
-38.10
-26.25
-13.18
-0.70
9.94
18.19
24.14
28.18
30.70
31.97
32.16
31.50
30.28
28.91
27.77
27.06
26.81
26.84
26.93
26.90
26.70
26.36
26.03
25.80
25.67
25.52
25.08
24.04
22.17
19.43
16.02
12.40
9.09
6.49
4.71
3.51
2.42
0.98
-1.07
-3.69
-6.59
-9.33
-11.58
-13.20
-14.32
-15.23
-16.30
-17.89
-20.32
-23.84
-28.54
-34.22
-40.23
-45.41
-48.34
-47.71
-42.89
-34.18
-22.78
-10.44
1.20
11.03
18.63
24.09
27.73
29.80
30.43
29.77
28.09
25.86
23.69
22.11
21.37
21.42
21.96
22.63
23.15
23.46
23.63
23.78
23.96
24.09
23.97
23.45
22.41
20.86
18.89
16.61
14.10
11.39
8.56
5.73
3.08
0.77
-1.11
-2.65
-4.06
-5.62
-7.49
-9.69
-12.09
-14.43
-16.56
-18.42
-20.12
-21.88
-24.00
-26.78
-30.46
-35.05
-40.22
-45.10
-48.46
-49.01
-45.87
-38.94
-29.01
-17.51
-6.10
3.91
11.77
17.28
20.62
22.12
22.10
20.86
18.77
16.26
13.84
11.90
10.71
10.29
10.47
10.99
11.63
12.27
12.91
13.60
14.34
15.03
15.49
15.49
14.82
13.36
11.16
8.39
5.38
2.50
0.04
-1.87
-3.35
-4.67
-6.14
-7.97
-10.16
-12.54
-14.83
-16.77
-18.25
-19.30
-20.16
-21.17
-22.68
-25.07
-28.56
-33.18
-38.61
-44.04
-48.29
-50.00
-48.07
-42.10
-32.58
-20.86
-8.64
2.56
11.82
18.90
24.02
27.53
29.65
30.48
30.09
28.67
26.62
24.46
22.62
21.38
20.75
20.59
20.66
20.76
20.83
20.89
21.00
21.20
21.41
21.45
21.08
20.14
18.57
16.47
14.01
11.43
8.88
6.50
4.35
2.46
0.81
-0.67
-2.12
-3.74
-5.70
-8.12
-10.95
-13.98
-16.90
-19.45
-21.47
-23.04
-24.46
-26.21
-28.76
-32.45
-37.26
-42.70
-47.76
-51.11
-51.46
-48.00
-40.70
-30.37
-18.42
-6.39
4.41
13.24
19.84
24.36
27.06
28.24
28.18
27.13
25.42
23.36
21.32
19.61
18.46
17.96
18.05
18.56
19.30
20.16
21.10
22.09
23.10
23.93
24.34
24.11
23.15
21.55
19.54
17.29
14.93
12.48
9.90
7.22
4.56
2.06
-0.16
-2.11
-3.92
-5.77
-7.81
-10.02
-12.27
-14.30
-15.92
-17.08
-17.96
-18.97
-20.59
-23.25
-27.15
-32.18
-37.81
-43.17
-47.10
-48.46
-46.41
-40.75
-31.95
-21.16
-9.81
0.81
9.78
16.73
21.63
24.67
26.06
25.99
24.74
22.72
20.46
18.50
17.23
16.74
16.81
17.11
17.30
17.25
17.03
16.84
16.82
16.98
17.12
16.98
16.27
14.89
12.87
10.44
7.84
5.27
2.85
0.56
-1.61
-3.74
-5.83
-7.87
-9.90
-11.95
-14.06
-16.20
-18.27
-20.11
-21.62
-22.82
-23.96
-25.42
-27.58
-30.66
-34.56
-38.76
-42.41
-44.52
-44.20
-40.96
-34.83
-26.42
-16.69
-6.73
2.46
10.20
16.06
19.88
21.73
21.79
20.43
18.12
15.38
12.72
10.53
9.06
8.38
8.40
8.93
9.74
10.65
11.60
12.62
13.73
14.80
15.57
15.67
14.76
12.79
9.96
6.67
3.39
0.46
-1.99
-4.09
-6.06
-8.16
-10.53
-13.13
-15.77
-18.14
-19.99
-21.18
-21.83
-22.34
-23.26
-25.16
-28.39
-32.95
-38.30
-43.45
-47.09
-47.90
-45.03
-38.39
-28.75
-17.50
-6.22
3.83
11.97
18.11
22.53
25.57
27.41
28.12
27.69
26.29
24.29
22.21
20.57
19.70
19.67
20.29
21.20
22.09
22.72
23.05
23.12
22.99
22.63
21.90
20.59
18.54
15.70
12.26
8.54
4.95
1.85
-0.59
-2.47
-4.08
-5.77
-7.80
-10.19
-12.73
-15.07
-16.91
-18.11
-18.78
-19.26
-19.98
-21.41
-23.94
-27.77
-32.82
-38.61
-44.19
-48.27
-49.51
-46.93
-40.29
-30.25
-18.18
-5.74
5.60
14.90
21.88
26.73
29.87
31.70
32.47
32.30
31.33
29.73
27.83
26.01
24.58
23.70
23.35
23.34
23.47
23.63
23.78
23.98
24.24
24.45
24.42
23.93
22.85
21.18
19.07
16.69
14.22
11.72
9.20
6.66
4.14
1.77
-0.31
-1.99
-3.34
-4.56
-5.93
-7.67
-9.86
-12.36
-14.89
-17.19
-19.09
-20.66
-22.21
-24.16
-26.97
-30.93
-35.99
-41.62
-46.77
-50.06
-50.22
-46.48
-38.95
-28.61
-17.02
-5.75
4.02
11.74
17.37
21.14
23.26
23.90
23.24
21.53
19.19
16.71
14.54
12.98
12.18
12.12
12.64
13.50
14.44
15.21
15.70
15.89
15.88
15.68
15.26
14.47
13.14
11.20
8.69
5.85
3.00
0.51
-1.35
-2.48
-3.01
-3.25
-3.61
-4.46
-5.89
-7.72
-9.56
-11.00
-11.86
-12.35
-13.03
-14.71
-18.12
-23.78
-31.72
-41.42
-51.63
-60.52
-65.91
-65.83
-59.17
-46.16
-28.48
-8.83
9.82
25.00
35.31
40.50
41.25
38.72
34.16
28.70
23.18
18.21
14.09
10.86
8.36
6.30
4.37
2.39
0.39
-1.39
-2.56
-2.81
-1.97
-0.23
1.99
4.17
5.90
7.05
7.71
8.10
8.45
8.83
9.23
9.56
9.82
10.00
10.14
10.22
10.11
9.64
8.63
7.00
4.78
2.16
-0.63
-3.44
-6.28
-9.38
-13.10
-17.88
-23.92
-31.04
-38.47
-44.94
-48.90
-48.99
-44.56
-35.85
-24.07
-10.97
1.65
12.49
20.90
26.91
30.90
33.25
34.24
33.98
32.57
30.21
27.29
24.34
21.90
20.35
19.83
20.18
21.08
22.13
23.04
23.67
24.04
24.24
24.36
24.35
24.10
23.43
22.16
20.24
17.73
14.85
11.88
9.09
6.69
4.73
3.13
1.70
0.20
-1.54
-3.61
-5.91
-8.24
-10.37
-12.10
-13.41
-14.42
-15.38
-16.58
-18.34
-20.91
-24.52
-29.15
-34.45
-39.57
-43.21
-43.99
-40.94
-33.94
-23.89
-12.38
-1.19
8.29
15.36
19.97
22.44
23.15
22.39
20.44
17.65
14.57
11.77
9.72
8.53
7.98
7.62
7.12
6.41
5.84
5.89
6.92
8.90
11.32
13.36
14.26
13.59
11.41
8.22
4.60
1.10
-1.99
-4.63
-6.94
-9.05
-11.06
-12.98
-14.74
-16.21
-17.25
-17.73
-17.65
-17.24
-16.97
-17.51
-19.52
-23.35
-28.82
-35.02
-40.55
-43.83
-43.65
-39.54
-31.87
-21.72
-10.49
0.43
10.02
17.62
23.00
26.23
27.59
27.48
26.41
24.84
23.25
22.01
21.39
21.48
22.23
23.39
24.59
25.50
25.92
25.81
25.31
24.65
23.93
23.11
21.97
20.24
17.72
14.44
10.67
6.78
3.14
-0.05
-2.85
-5.45
-8.08
-10.85
-13.66
-16.30
-18.50
-20.09
-21.03
-21.47
-21.72
-22.22
-23.52
-26.11
-30.24
-35.61
-41.18
-45.36
-46.41
-43.11
-35.26
-23.89
-10.85
1.83
12.59
20.72
26.31
29.89
32.02
33.13
33.43
33.10
32.36
31.49
30.77
30.37
30.32
30.47
30.64
30.62
30.30
29.71
29.01
28.40
27.99
27.76
27.47
26.79
25.41
23.16
20.12
16.56
12.86
9.39
6.34
3.77
1.58
-0.37
-2.20
-3.99
-5.80
-7.64
-9.51
-11.43
-13.30
-15.02
-16.53
-17.83
-19.10
-20.72
-23.10
-26.62
-31.37
-36.97
-42.53
-46.74
-48.26
-46.11
-40.09
-30.86
-19.76
-8.35
2.11
10.88
17.76
22.85
26.33
28.32
28.95
28.38
26.95
25.07
23.15
21.53
20.34
19.58
19.10
18.71
18.23
17.60
16.86
16.15
15.60
15.23
14.88
14.25
13.00
10.93
8.08
4.72
1.31
-1.71
-4.03
-5.62
-6.67
-7.55
-8.58
-10.02
-11.87
-13.96
-15.98
-17.63
-18.73
-19.32
-19.68
-20.26
-21.53
-23.88
-27.48
-32.18
-37.45
-42.44
-46.02
-47.11
-44.90
-39.21
-30.51
-19.88
-8.69
1.81
10.72
17.62
22.40
25.15
26.01
25.21
23.07
20.07
16.80
13.88
11.78
10.74
10.69
11.33
12.25
13.13
13.85
14.52
15.27
16.17
17.05
17.56
17.32
16.06
13.83
10.92
7.76
4.80
2.34
0.47
-0.95
-2.23
-3.76
-5.88
-8.67
-11.93
-15.17
-17.85
-19.61
-20.44
-20.77
-21.28
-22.65
-25.38
-29.51
-34.64
-39.90
-44.05
-45.83
-44.24
-38.99
-30.58
-20.18
-9.31
0.72
9.07
15.49
20.12
23.22
24.98
25.52
24.94
23.48
21.55
19.65
18.21
17.46
17.34
17.59
17.88
17.94
17.75
17.47
17.35
17.52
17.90
18.19
18.08
17.33
15.90
13.95
11.69
9.31
6.92
4.61
2.47
0.66
-0.73
-1.76
-2.67
-3.79
-5.40
-7.52
-9.87
-12.02
-13.62
-14.57
-15.15
-15.84
-17.13
-19.39
-22.73
-26.97
-31.66
-35.99
-38.89
-39.25
-36.24
-29.73
-20.39
-9.55
1.28
10.85
18.50
24.07
27.73
29.70
30.15
29.28
27.40
24.93
22.36
20.09
18.33
17.07
16.24
15.68
15.29
15.00
14.78
14.67
14.73
14.99
15.40
15.83
16.02
15.74
14.83
13.30
11.24
8.86
6.35
3.88
1.56
-0.54
-2.41
-4.12
-5.77
-7.49
-9.33
-11.22
-13.01
-14.58
-15.95
-17.24
-18.73
-20.68
-23.27
-26.57
-30.40
-34.39
-37.88
-39.99
-39.88
-36.94
-31.09
-22.89
-13.42
-3.96
4.37
10.88
15.37
18.03
19.16
19.09
18.05
16.22
13.80
11.07
8.31
5.86
3.92
2.62
2.01
2.04
2.59
3.57
4.80
6.12
7.29
8.00
7.99
7.13
5.46
3.27
0.95
-1.18
-3.04
-4.78
-6.69
-9.02
-11.76
-14.65
-17.24
-19.14
-20.18
-20.53
-20.63
-21.06
-22.39
-24.98
-28.73
-33.01
-36.67
-38.39
-37.09
-32.35
-24.60
-14.96
-4.84
4.49
12.22
18.05
22.05
24.44
25.44
25.23
23.97
21.90
19.29
16.49
13.85
11.66
10.11
9.27
9.00
9.17
9.56
10.06
10.56
10.97
11.14
10.84
9.91
8.25
5.97
3.36
0.73
-1.65
-3.73
-5.61
-7.51
-9.56
-11.74
-13.90
-15.82
-17.38
-18.66
-19.98
-21.78
-24.48
-28.29
-32.89
-37.47
-40.75
-41.42
-38.61
-32.23
-23.10
-12.66
-2.51
6.15
12.73
17.27
20.16
21.81
22.47
22.28
21.36
19.94
18.33
16.87
15.81
15.24
15.10
15.23
15.47
15.71
15.90
16.08
16.27
16.38
16.26
15.66
14.44
12.58
10.25
7.75
5.32
3.13
1.14
-0.77
-2.73
-4.76
-6.81
-8.74
-10.49
-12.13
-13.84
-15.93
-18.70
-22.30
-26.61
-31.12
-34.95
-37.00
-36.33
-32.43
-25.46
-16.28
-6.12
3.71
12.19
18.75
23.27
25.87
26.83
26.44
24.99
22.86
20.49
18.31
16.63
15.60
15.12
14.99
14.99
14.99
14.94
14.90
14.89
14.86
14.66
14.13
13.19
11.82
10.11
8.17
6.00
3.56
0.75
-2.40
-5.70
-8.84
-11.47
-13.42
-14.78
-15.89
-17.22
-19.18
-22.02
-25.72
-30.01
-34.32
-37.85
-39.64
-38.86
-35.08
-28.51
-19.99
-10.75
-1.98
5.46
11.21
15.26
17.75
18.78
18.44
16.87
14.40
11.54
8.88
6.86
5.69
5.34
5.53
5.96
6.41
6.71
6.83
6.77
6.53
6.08
5.34
4.20
2.57
0.40
-2.22
-5.17
-8.19
-11.02
-13.48
-15.45
-17.01
-18.33
-19.67
-21.37
-23.76
-27.06
-31.22
-35.78
-39.87
-42.33
-42.13
-38.66
-32.04
-23.09
-13.02
-3.08
5.82
13.18
18.85
22.86
25.29
26.21
25.78
24.25
22.02
19.58
17.36
15.72
14.83
14.74
15.29
16.29
17.45
18.52
19.26
19.51
19.13
18.13
16.52
14.44
12.04
9.45
6.76
3.95
1.01
-2.10
-5.36
-8.66
-11.82
-14.66
-17.07
-19.05
-20.79
-22.61
-24.99
-28.33
-32.82
-38.16
-43.49
-47.48
-48.71
-46.14
-39.59
-29.77
-18.11
-6.28
4.35
13.00
19.46
23.93
26.71
28.03
28.09
27.13
25.50
23.68
22.17
21.31
21.21
21.68
22.37
22.93
23.15
23.04
22.84
22.79
22.99
23.29
23.30
22.59
20.85
18.12
14.74
11.25
8.11
5.55
3.44
1.47
-0.76
-3.44
-6.52
-9.73
-12.64
-14.94
-16.51
-17.53
-18.42
-19.74
-21.99
-25.51
-30.29
-35.84
-41.24
-45.29
-46.74
-44.67
-38.83
-29.76
-18.61
-6.88
4.10
13.40
20.66
25.93
29.45
31.45
32.13
31.67
30.39
28.76
27.29
26.41
26.27
26.78
27.60
28.35
28.79
28.87
28.72
28.46
28.16
27.68
26.78
25.20
22.82
19.72
16.11
12.30
8.55
5.02
1.76
-1.27
-4.14
-7.04
-10.16
-13.67
-17.64
-21.89
-26.03
-29.55
-32.06
-33.44
-33.95
-34.10
-34.49
-35.61
-37.75
-41.01
-45.29
-50.18
-54.94
-58.46
-59.49
-56.99
-50.59
-40.76
-28.70
-15.98
-4.07
6.08
14.07
19.96
24.05
26.64
27.99
28.30
27.80
26.76
25.52
24.44
23.82
23.81
24.39
25.37
26.52
27.63
28.61
29.45
30.12
30.56
30.58
29.99
28.65
26.60
24.02
21.27
18.67
16.49
14.81
13.47
12.18
10.53
8.20
5.11
1.48
-2.25
-5.58
-8.14
-9.85
-10.93
-11.82
-13.00
-14.89
-17.79
-21.80
-26.73
-32.02
-36.66
-39.42
-39.14
-35.20
-27.73
-17.72
-6.66
3.92
12.91
19.85
24.80
28.12
30.11
30.91
30.52
29.00
26.62
23.90
21.49
19.90
19.36
19.71
20.52
21.32
21.80
21.95
21.99
22.17
22.57
23.02
23.13
22.48
20.86
18.37
15.35
12.29
9.53
7.25
5.36
3.69
2.08
0.39
-1.41
-3.31
-5.31
-7.35
-9.40
-11.38
-13.25
-15.03
-16.85
-18.92
-21.50
-24.81
-28.91
-33.64
-38.52
-42.68
-45.07
-44.67
-40.88
-33.79
-24.19
-13.35
-2.64
6.88
14.68
20.68
24.99
27.78
29.17
29.28
28.34
26.68
24.75
22.92
21.45
20.45
19.89
19.70
19.77
19.96
20.18
20.35
20.47
20.51
20.46
20.17
19.49
18.23
16.39
14.12
11.72
9.49
7.58
5.94
4.37
2.58
0.39
-2.21
-5.08
-7.98
-10.63
-12.81
-14.39
-15.39
-15.96
-16.36
-16.98
-18.18
-20.29
-23.41
-27.32
-31.45
-34.86
-36.48
-35.44
-31.34
-24.51
-15.87
-6.66
1.96
9.23
14.86
18.92
21.61
23.06
23.35
22.59
21.00
18.99
17.02
15.49
14.58
14.28
14.35
14.56
14.68
14.66
14.53
14.40
14.34
14.32
14.13
13.54
12.32
10.44
8.10
5.64
3.42
1.67
0.36
-0.71
-1.88
-3.37
-5.24
-7.35
-9.47
-11.37
-12.95
-14.25
-15.42
-16.64
-18.13
-20.06
-22.59
-25.80
-29.63
-33.79
-37.64
-40.33
-40.93
-38.81
-33.84
-26.47
-17.61
-8.33
0.34
7.67
13.28
17.04
19.03
19.49
18.71
17.09
14.99
12.81
10.88
9.49
8.80
8.85
9.47
10.38
11.27
11.96
12.40
12.69
12.92
12.98
12.66
11.64
9.79
7.23
4.37
1.69
-0.46
-2.06
-3.42
-4.98
-7.07
-9.71
-12.59
-15.24
-17.20
-18.31
-18.73
-18.91
-19.40
-20.71
-23.14
-26.68
-30.95
-35.16
-38.25
-39.12
-36.97
-31.62
-23.61
-14.07
-4.35
4.36
11.35
16.37
19.58
21.24
21.62
20.95
19.51
17.67
15.83
14.36
13.47
13.16
13.29
13.63
14.01
14.37
14.76
15.25
15.85
16.46
16.91
16.92
16.29
14.91
12.90
10.50
8.09
5.98
4.34
3.06
1.84
0.35
-1.66
-4.13
-6.77
-9.15
-10.91
-11.94
-12.43
-12.83
-13.67
-15.45
-18.44
-22.59
-27.41
-32.01
-35.24
-35.96
-33.46
-27.71
-19.44
-9.89
-0.45
7.80
14.26
18.81
21.62
22.96
23.08
22.24
20.73
18.91
17.10
15.59
14.51
13.92
13.75
13.89
14.25
14.73
15.29
15.94
16.67
17.39
17.88
17.85
16.99
15.22
12.64
9.67
6.79
4.42
2.70
1.50
0.44
-0.86
-2.63
-4.89
-7.39
-9.77
-11.70
-13.01
-13.77
-14.26
-14.84
-15.89
-17.68
-20.42
-24.12
-28.51
-32.97
-36.57
-38.25
-37.16
-32.94
-25.94
-17.09
-7.69
1.02
8.15
13.22
16.17
17.21
16.67
14.94
12.50
9.86
7.47
5.71
4.72
4.48
4.81
5.48
6.30
7.18
8.08
9.00
9.86
10.49
10.72
10.32
9.20
7.39
5.10
2.60
0.21
-1.91
-3.71
-5.31
-6.87
-8.51
-10.18
-11.75
-13.06
-14.01
-14.66
-15.22
-15.98
-17.25
-19.27
-22.18
-25.85
-29.92
-33.68
-36.18
-36.51
-34.05
-28.73
-21.15
-12.38
-3.64
4.09
10.26
14.79
17.85
19.72
20.58
20.52
19.64
18.15
16.42
14.92
14.03
13.94
14.58
15.61
16.68
17.45
17.83
17.92
17.90
17.93
18.01
17.95
17.41
16.11
13.90
10.91
7.54
4.32
1.65
-0.27
-1.62
-2.77
-4.13
-5.95
-8.20
-10.61
-12.83
-14.57
-15.72
-16.37
-16.79
-17.36
-18.51
-20.63
-23.90
-28.16
-32.74
-36.60
-38.50
-37.45
-33.03
-25.66
-16.37
-6.57
2.50
10.02
15.69
19.64
22.14
23.46
23.80
23.34
22.27
20.89
19.49
18.36
17.65
17.43
17.63
18.10
18.64
19.11
19.41
19.59
19.73
19.89
19.97
19.73
18.89
17.26
14.84
11.90
8.88
6.21
4.15
2.76
1.85
1.12
0.21
-1.14
-3.03
-5.40
-7.99
-10.50
-12.63
-14.23
-15.38
-16.33
-17.50
-19.30
-22.00
-25.68
-30.04
-34.40
-37.75
-39.01
-37.35
-32.47
-24.77
-15.21
-5.13
4.24
12.00
17.73
21.45
23.44
24.08
23.73
22.67
21.19
19.51
17.89
16.55
15.63
15.16
15.02
15.03
14.96
14.72
14.34
13.96
13.68
13.51
13.27
12.67
11.45
9.49
6.90
3.99
1.18
-1.24
-3.10
-4.52
-5.74
-6.99
-8.42
-9.97
-11.50
-12.80
-13.79
-14.51
-15.18
-16.05
-17.41
-19.40
-22.10
-25.43
-29.20
-33.05
-36.42
-38.58
-38.77
-36.37
-31.20
-23.60
-14.40
-4.75
4.25
11.77
17.39
21.10
23.13
23.81
23.47
22.30
20.55
18.42
16.21
14.27
12.88
12.22
12.24
12.75
13.46
14.15
14.73
15.23
15.65
15.91
15.76
14.92
13.18
10.56
7.33
3.95
0.89
-1.52
-3.24
-4.47
-5.54
-6.77
-8.32
-10.14
-12.02
-13.65
-14.79
-15.38
-15.55
-15.65
-16.12
-17.38
-19.75
-23.33
-27.86
-32.71
-36.85
-39.11
-38.52
-34.62
-27.73
-18.80
-9.15
0.01
7.84
14.01
18.55
21.64
23.45
24.10
23.78
22.74
21.36
20.00
18.94
18.30
18.03
17.98
18.00
17.98
17.91
17.80
17.73
17.74
17.81
17.87
17.74
17.22
16.08
14.22
11.74
8.95
6.29
4.17
2.78
1.95
1.26
0.20
-1.56
-4.03
-6.85
-9.53
-11.63
-12.99
-13.77
-14.39
-15.38
-17.21
-20.15
-24.17
-28.88
-33.55
-37.20
-38.79
-37.54
-33.15
-25.94
-16.80
-6.91
2.53
10.62
16.90
21.31
24.08
25.56
26.03
25.65
24.52
22.81
20.76
18.74
17.12
16.12
15.73
15.70
15.69
15.51
15.18
14.92
14.96
15.38
15.95
16.25
15.85
14.48
12.24
9.47
6.68
4.28
2.42
0.97
-0.40
-2.02
-4.05
-6.44
-8.93
-11.24
-13.17
-14.67
-15.89
-17.04
-18.40
-20.21
-22.65
-25.80
-29.50
-33.33
-36.58
-38.41
-38.03
-34.98
-29.34
-21.75
-13.24
-4.90
2.37
8.05
12.05
14.51
15.66
15.71
14.83
13.22
11.21
9.17
7.45
6.29
5.79
5.84
6.31
7.03
7.86
8.69
9.39
9.82
9.82
9.27
8.12
6.46
4.44
2.28
0.11
-2.03
-4.19
-6.41
-8.67
-10.84
-12.71
-14.07
-14.86
-15.22
-15.45
-15.94
-17.10
-19.19
-22.23
-25.94
-29.68
-32.48
-33.33
-31.49
-26.72
-19.51
-10.89
-2.13
5.71
11.97
16.50
19.47
21.18
21.87
21.72
20.92
19.71
18.37
17.15
16.22
15.65
15.42
15.45
15.64
15.90
16.14
16.31
16.34
16.17
15.68
14.75
13.24
11.10
8.47
5.60
2.78
0.22
-2.03
-4.06
-6.04
-8.01
-9.93
-11.67
-13.14
-14.29
-15.29
-16.35
-17.78
-19.91
-22.94
-26.86
-31.25
-35.25
-37.77
-37.79
-34.72
-28.68
-20.44
-11.19
-2.15
5.77
12.05
16.59
19.47
20.90
21.10
20.36
19.03
17.51
16.19
15.35
15.08
15.24
15.59
15.88
16.00
16.02
16.12
16.45
17.03
17.64
17.94
17.59
16.42
14.52
12.17
9.68
7.33
5.13
2.99
0.74
-1.68
-4.24
-6.78
-9.09
-11.08
-12.74
-14.16
-15.51
-16.97
-18.79
-21.16
-24.20
-27.76
-31.31
-33.95
-34.66
-32.63
-27.66
-20.24
-11.44
-2.54
5.43
11.87
16.66
19.96
21.97
22.83
22.63
21.52
19.76
17.75
15.88
14.42
13.46
12.94
12.74
12.74
12.90
13.23
13.72
14.29
14.79
14.99
14.66
13.63
11.92
9.71
7.31
5.03
3.05
1.39
-0.18
-1.92
-4.00
-6.37
-8.82
-11.03
-12.78
-14.06
-15.07
-16.08
-17.44
-19.42
-22.18
-25.68
-29.61
-33.32
-35.90
-36.43
-34.25
-29.24
-21.93
-13.33
-4.64
3.10
9.28
13.67
16.38
17.62
17.65
16.75
15.21
13.38
11.62
10.23
9.39
9.08
9.17
9.53
10.05
10.70
11.47
12.26
12.92
13.18
12.85
11.84
10.23
8.23
6.06
3.89
1.75
-0.44
-2.81
-5.36
-8.04
-10.66
-12.99
-14.88
-16.28
-17.34
-18.38
-19.84
-22.19
-25.71
-30.27
-35.27
-39.67
-42.27
-42.06
-38.57
-32.01
-23.26
-13.52
-3.96
4.55
11.54
16.89
20.63
22.86
23.63
23.15
21.75
19.90
18.13
16.84
16.18
16.07
16.25
16.52
16.74
16.97
17.27
17.71
18.22
18.60
18.62
18.04
16.76
14.81
12.35
9.67
7.06
4.77
2.85
1.20
-0.46
-2.39
-4.73
-7.37
-10.04
-12.34
-14.01
-15.00
-15.54
-16.10
-17.22
-19.37
-22.73
-27.19
-32.15
-36.68
-39.61
-39.84
-36.74
-30.34
-21.42
-11.24
-1.14
7.82
15.08
20.53
24.34
26.75
27.94
28.09
27.42
26.20
24.80
23.57
22.73
22.32
22.19
22.09
21.79
21.21
20.48
19.87
19.62
19.80
20.20
20.41
20.03
18.80
16.75
14.15
11.35
8.71
6.43
4.60
3.12
1.85
0.58
-0.91
-2.72
-4.79
-6.95
-8.93
-10.50
-11.62
-12.42
-13.23
-14.46
-16.48
-19.51
-23.50
-28.10
-32.60
-36.09
-37.58
-36.33
-32.05
-25.06
-16.23
-6.72
2.28
9.87
15.59
19.42
21.59
22.40
22.11
20.96
19.18
17.08
15.07
13.48
12.54
12.24
12.36
12.63
12.84
12.99
13.18
13.53
14.01
14.36
14.22
13.28
11.45
8.91
6.03
3.20
0.73
-1.24
-2.79
-4.09
-5.36
-6.77
-8.37
-10.07
-11.66
-12.93
-13.79
-14.36
-14.89
-15.73
-17.13
-19.21
-22.01
-25.40
-29.18
-32.90
-35.83
-37.09
-35.78
-31.45
-24.30
-15.24
-5.56
3.43
10.87
16.44
20.25
22.57
23.63
23.50
22.27
20.14
17.51
14.95
12.96
11.84
11.62
12.11
13.01
14.01
14.92
15.65
16.18
16.55
16.75
16.70
16.25
15.25
13.64
11.47
8.97
6.47
4.26
2.45
0.99
-0.34
-1.78
-3.52
-5.54
-7.73
-9.90
-11.87
-13.56
-15.04
-16.47
-18.11
-20.23
-23.08
-26.76
-31.10
-35.55
-39.17
-40.86
-39.67
-35.22
-27.86
-18.58
-8.70
0.55
8.38
14.49
18.96
22.01
23.84
24.58
24.36
23.40
22.01
20.61
19.51
18.92
18.81
19.01
19.27
19.37
19.24
18.97
18.69
18.55
18.55
18.52
18.25
17.48
16.13
14.28
12.15
9.95
7.85
5.88
4.03
2.25
0.46
-1.39
-3.31
-5.29
-7.26
-9.10
-10.67
-11.91
-12.83
-13.60
-14.48
-15.81
-17.89
-20.90
-24.78
-29.14
-33.20
-35.91
-36.25
-33.52
-27.70
-19.47
-10.00
-0.59
7.69
14.27
19.05
22.19
23.92
24.44
23.87
22.43
20.40
18.18
16.18
14.72
13.91
13.65
13.68
13.67
13.44
12.98
12.44
12.04
11.89
11.91
11.84
11.31
10.11
8.23
5.89
3.48
1.33
-0.36
-1.67
-2.84
-4.14
-5.77
-7.72
-9.77
-11.66
-13.17
-14.28
-15.14
-16.02
-17.15
-18.67
-20.68
-23.19
-26.23
-29.67
-33.09
-35.76
-36.73
-35.17
-30.68
-23.57
-14.70
-5.33
3.36
10.54
15.80
19.11
20.67
20.74
19.63
17.67
15.23
12.74
10.52
8.81
7.70
7.15
7.01
7.15
7.52
8.10
8.91
9.90
10.89
11.56
11.55
10.57
8.60
5.91
3.02
0.46
-1.44
-2.71
-3.67
-4.76
-6.31
-8.37
-10.70
-12.93
-14.78
-16.14
-17.11
-17.94
-18.89
-20.22
-22.14
-24.80
-28.11
-31.63
-34.53
-35.75
-34.34
-29.89
-22.70
-13.73
-4.31
4.34
11.41
16.62
20.06
22.00
22.69
22.28
20.90
18.76
16.16
13.51
11.20
9.51
8.52
8.14
8.19
8.51
9.03
9.79
10.84
12.09
13.30
14.04
13.92
12.72
10.54
7.80
5.05
2.74
0.99
-0.35
-1.68
-3.35
-5.51
-8.01
-10.59
-12.98
-15.03
-16.76
-18.33
-19.92
-21.76
-24.04
-26.90
-30.28
-33.81
-36.73
-38.05
-36.86
-32.65
-25.59
-16.48
-6.52
3.08
11.34
17.79
22.31
25.01
26.12
25.88
24.57
22.47
19.95
17.38
15.06
13.24
12.01
11.36
11.22
11.49
12.12
13.09
14.35
15.76
17.04
17.86
17.93
17.12
15.52
13.39
11.00
8.56
6.14
3.70
1.16
-1.51
-4.24
-6.90
-9.31
-11.31
-12.85
-13.99
-14.93
-15.98
-17.46
-19.63
-22.62
-26.28
-30.19
-33.59
-35.62
-35.45
-32.60
-27.18
-19.81
-11.47
-3.22
4.15
10.21
14.83
18.06
19.95
20.60
20.07
18.58
16.44
13.99
11.63
9.62
8.12
7.18
6.74
6.68
6.86
7.19
7.61
8.07
8.48
8.72
8.63
8.05
6.94
5.36
3.41
1.21
-1.19
-3.78
-6.58
-9.45
-12.14
-14.36
-15.95
-17.00
-17.87
-19.13
-21.26
-24.49
-28.53
-32.69
-35.93
-37.23
-35.84
-31.58
-24.86
-16.56
-7.75
0.60
7.83
13.64
17.97
20.85
22.31
22.35
21.11
18.85
16.07
13.28
10.96
9.38
8.59
8.44
8.68
9.14
9.71
10.38
11.06
11.64
11.89
11.60
10.65
9.01
6.79
4.11
1.11
-2.11
-5.46
-8.78
-11.91
-14.66
-16.94
-18.77
-20.32
-21.83
-23.66
-26.17
-29.57
-33.79
-38.32
-42.22
-44.30
-43.54
-39.45
-32.27
-22.94
-12.79
-3.13
5.12
11.52
16.09
19.04
20.66
21.18
20.81
19.77
18.33
16.77
15.35
14.24
13.51
13.17
13.19
13.56
14.22
15.08
15.98
16.73
17.12
16.98
16.23
14.90
13.06
10.86
8.45
5.89
3.23
0.48
-2.33
-5.09
-7.67
-9.91
-11.79
-13.44
-15.16
-17.35
-20.32
-24.20
-28.75
-33.40
-37.23
-39.26
-38.64
-34.96
-28.41
-19.76
-10.18
-0.84
7.31
13.77
18.48
21.62
23.47
24.24
24.15
23.35
22.10
20.68
19.39
18.43
17.92
17.80
17.96
18.28
18.67
19.12
19.58
19.97
20.12
19.78
18.77
17.04
14.78
12.25
9.75
7.41
5.18
2.87
0.29
-2.56
-5.57
-8.47
-11.05
-13.23
-15.09
-16.88
-18.94
-21.63
-25.23
-29.70
-34.64
-39.19
-42.20
-42.62
-39.84
-33.93
-25.64
-16.13
-6.57
2.13
9.44
15.15
19.22
21.68
22.66
22.37
21.13
19.34
17.33
15.45
13.90
12.89
12.48
12.65
13.24
13.99
14.59
14.85
14.67
14.13
13.34
12.42
11.35
10.02
8.24
5.87
2.94
-0.32
-3.58
-6.51
-8.93
-10.92
-12.69
-14.64
-17.05
-20.10
-23.80
-28.00
-32.27
-36.02
-38.48
-38.89
-36.72
-31.81
-24.53
-15.68
-6.28
2.65
10.35
16.39
20.71
23.43
24.76
24.89
23.99
22.27
20.07
17.82
15.99
14.96
14.82
15.43
16.42
17.41
18.11
18.38
18.19
17.57
16.53
15.10
13.30
11.17
8.76
6.10
3.20
0.03
-3.32
-6.72
-9.93
-12.68
-14.86
-16.50
-17.87
-19.37
-21.45
-24.48
-28.62
-33.62
-38.71
-42.75
-44.43
-42.75
-37.39
-28.86
-18.42
-7.59
2.30
10.52
16.88
21.58
24.86
26.86
27.63
27.30
26.16
24.70
23.49
22.92
23.11
23.92
25.01
26.03
26.79
27.22
27.40
27.43
27.31
27.00
26.28
24.92
22.74
19.77
16.27
12.69
9.49
6.92
4.91
3.09
1.02
-1.53
-4.46
-7.39
-9.92
-11.80
-13.11
-14.24
-15.73
-18.04
-21.47
-25.93
-30.91
-35.50
-38.52
-38.91
-35.97
-29.75
-20.97
-10.87
-0.76
8.31
15.74
21.38
25.32
27.73
28.80
28.74
27.84
26.50
25.18
24.26
23.96
24.27
24.94
25.66
26.12
26.19
25.90
25.46
25.06
24.86
24.80
24.65
24.09
22.86
20.87
18.25
15.28
12.35
9.74
7.54
5.67
3.92
2.08
0.06
-2.09
-4.22
-6.14
-7.77
-9.17
-10.52
-12.10
-14.16
-16.90
-20.38
-24.58
-29.29
-34.06
-38.18
-40.77
-40.91
-38.04
-32.09
-23.67
-13.89
-4.00
4.90
12.07
17.24
20.46
21.94
21.95
20.81
18.86
16.50
14.18
12.26
11.01
10.53
10.74
11.48
12.52
13.70
14.88
15.96
16.85
17.42
17.54
17.06
15.85
13.87
11.23
8.18
5.09
2.31
0.08
-1.63
-3.06
-4.60
-6.57
-9.07
-11.93
-14.75
-17.12
-18.74
-19.59
-19.95
-20.27
-21.10
-22.87
-25.81
-29.78
-34.16
-37.97
-40.02
-39.32
-35.35
-28.34
-19.24
-9.35
0.00
7.89
13.92
18.16
20.93
22.56
23.29
23.21
22.45
21.19
19.73
18.41
17.53
17.21
17.37
17.80
18.28
18.64
18.90
19.11
19.31
19.47
19.44
19.04
18.18
16.81
15.02
12.90
10.59
8.19
5.83
3.59
1.55
-0.33
-2.14
-4.02
-6.05
-8.21
-10.35
-12.29
-13.91
-15.18
-16.23
-17.20
-18.28
-19.63
-21.49
-24.08
-27.59
-31.88
-36.36
-39.94
-41.31
-39.44
-34.02
-25.62
-15.51
-5.18
4.14
11.74
17.44
21.38
23.79
24.85
24.75
23.73
22.17
20.47
19.01
18.02
17.55
17.52
17.76
18.10
18.41
18.61
18.69
18.69
18.65
18.57
18.43
18.11
17.46
16.36
14.75
12.70
10.39
8.06
5.89
3.99
2.33
0.78
-0.79
-2.46
-4.24
-6.04
-7.73
-9.22
-10.48
-11.55
-12.55
-13.57
-14.71
-16.08
-17.79
-20.03
-22.94
-26.49
-30.28
-33.55
-35.28
-34.53
-30.86
-24.41
-16.02
-6.84
1.93
9.39
15.03
18.77
20.71
21.13
20.34
18.66
16.48
14.16
12.07
10.46
9.46
9.08
9.17
9.54
10.02
10.51
11.06
11.73
12.55
13.38
13.99
14.09
13.47
12.11
10.19
8.01
5.90
4.05
2.45
0.90
-0.85
-2.99
-5.51
-8.20
-10.71
-12.75
-14.23
-15.29
-16.23
-17.38
-18.95
-21.03
-23.57
-26.46
-29.50
-32.32
-34.37
-34.99
-33.57
-29.77
-23.70
-15.92
-7.35
1.04
8.43
14.27
18.38
20.77
21.64
21.20
19.67
17.32
14.45
11.42
8.65
6.47
5.08
4.48
4.47
4.84
5.35
5.88
6.37
6.75
6.90
6.67
5.95
4.76
3.25
1.63
0.03
-1.58
-3.32
-5.37
-7.75
-10.29
-12.70
-14.64
-15.90
-16.56
-16.94
-17.52
-18.85
-21.22
-24.63
-28.60
-32.29
-34.65
-34.75
-32.08
-26.74
-19.39
-11.08
-2.88
4.31
10.02
14.12
16.71
18.06
18.39
17.95
16.97
15.68
14.28
12.99
11.90
11.07
10.49
10.16
10.04
10.12
10.37
10.71
10.98
11.00
10.58
9.62
8.19
6.44
4.61
2.86
1.23
-0.41
-2.21
-4.30
-6.64
-9.06
-11.32
-13.23
-14.75
-15.99
-17.19
-18.67
-20.67
-23.30
-26.34
-29.21
-31.04
-30.91
-28.23
-22.95
-15.69
-7.49
0.54
7.59
13.26
17.51
20.45
22.12
22.56
21.79
20.05
17.74
15.40
13.48
12.22
11.61
11.43
11.43
11.42
11.36
11.30
11.33
11.47
11.62
11.62
11.30
10.53
9.29
7.63
5.65
3.48
1.21
-1.12
-3.44
-5.73
-7.90
-9.87
-11.61
-13.14
-14.61
-16.25
-18.32
-20.99
-24.20
-27.55
-30.33
-31.69
-30.91
-27.63
-22.02
-14.72
-6.68
1.14
7.98
13.42
17.33
19.78
20.86
20.74
19.53
17.45
14.78
11.88
9.13
6.86
5.25
4.38
4.20
4.59
5.37
6.35
7.33
8.12
8.55
8.51
7.94
6.79
5.08
2.86
0.28
-2.44
-5.05
-7.34
-9.24
-10.86
-12.45
-14.27
-16.56
-19.36
-22.57
-25.93
-29.00
-31.23
-32.01
-30.87
-27.57
-22.25
-15.46
-8.01
-0.77
5.53
10.47
13.87
15.81
16.42
15.90
14.50
12.53
10.35
8.35
6.82
5.90
5.54
5.54
5.68
5.84
6.04
6.37
6.87
7.44
7.73
7.30
5.81
3.23
-0.15
-3.78
-7.14
-9.94
-12.11
-13.86
-15.42
-17.01
-18.81
-20.96
-23.61
-26.77
-30.12
-32.97
-34.34
-33.33
-29.52
-23.19
-15.23
-6.85
0.87
7.31
12.35
16.12
18.83
20.49
21.03
20.40
18.73
16.45
14.12
12.23
11.04
10.55
10.53
10.71
10.88
10.98
11.00
10.93
10.72
10.22
9.28
7.76
5.62
2.96
-0.02
-3.06
-5.89
-8.32
-10.28
-11.81
-13.09
-14.32
-15.71
-17.40
-19.52
-22.13
-25.18
-28.39
-31.17
-32.72
-32.18
-28.97
-23.13
-15.28
-6.59
1.75
8.79
14.15
17.93
20.47
22.09
22.94
23.01
22.34
21.11
19.68
18.47
17.76
17.61
17.84
18.15
18.33
18.30
18.14
17.96
17.84
17.70
17.36
16.61
15.29
13.39
11.03
8.40
5.70
3.03
0.38
-2.32
-5.14
-8.04
-10.90
-13.56
-15.90
-17.95
-19.93
-22.21
-25.06
-28.54
-32.28
-35.51
-37.22
-36.52
-32.92
-26.58
-18.27
-9.12
-0.28
7.42
13.57
18.10
21.12
22.80
23.30
22.80
21.60
20.08
18.58
17.35
16.48
15.90
15.49
15.16
14.92
14.82
14.87
15.00
15.07
14.92
14.44
13.61
12.50
11.20
9.75
8.14
6.32
4.25
1.95
-0.48
-2.87
-5.03
-6.84
-8.23
-9.28
-10.18
-11.20
-12.62
-14.71
-17.60
-21.22
-25.22
-28.94
-31.53
-32.13
-30.14
-25.45
-18.50
-10.25
-1.84
5.61
11.37
15.18
17.16
17.73
17.32
16.32
14.95
13.38
11.71
10.15
8.91
8.16
7.99
8.34
9.04
9.89
10.71
11.37
11.78
11.86
11.56
10.84
9.65
7.97
5.82
3.28
0.51
-2.30
-4.96
-7.34
-9.41
-11.24
-12.96
-14.70
-16.53
-18.56
-20.89
-23.58
-26.62
-29.75
-32.43
-33.89
-33.33
-30.23
-24.56
-16.84
-8.04
0.71
8.40
14.43
18.53
20.77
21.35
20.54
18.66
16.12
13.43
11.08
9.43
8.61
8.45
8.65
8.88
8.98
8.99
9.12
9.58
10.44
11.61
12.87
13.96
14.75
15.21
15.46
15.63
15.80
15.90
15.71
14.97
13.49
11.26
8.47
5.46
2.50
-0.31
-3.12
-6.24
-10.04
-14.76
-20.41
-26.67
-32.85
-38.02
-41.11
-41.23
-37.96
-31.50
-22.75
-12.97
-3.46
4.83
11.43
16.33
19.78
22.05
23.32
23.71
23.29
22.21
20.64
18.76
16.70
14.55
12.43
10.48
8.91
7.91
7.56
7.75
8.13
8.21
7.52
5.70
2.74
-1.03
-4.91
-8.00
-9.51
-9.00
-6.60
-3.02
0.67
3.42
4.56
4.03
2.37
0.40
-1.05
-1.55
-1.25
-0.81
-1.16
-3.09
-6.92
-12.22
-17.88
-22.46
-24.69
-23.85
-20.06
-14.14
-7.22
-0.40
5.58
10.41
14.05
16.58
18.06
18.52
18.03
16.82
15.24
13.75
12.71
12.24
12.25
12.51
12.82
13.07
13.30
13.61
14.01
14.35
14.38
13.86
12.71
11.03
9.11
7.27
5.70
4.39
3.15
1.67
-0.29
-2.81
-5.72
-8.60
-10.96
-12.38
-12.70
-12.11
-11.09
-10.24
-10.17
-11.27
-13.65
-17.02
-20.79
-24.08
-25.97
-25.71
-22.95
-17.89
-11.23
-3.93
3.07
9.09
13.80
17.19
19.37
20.48
20.62
19.89
18.45
16.60
14.73
13.23
12.39
12.28
12.75
13.45
13.97
13.98
13.25
11.79
9.77
7.45
5.07
2.83
0.79
-1.13
-3.05
-5.12
-7.36
-9.65
-11.76
-13.41
-14.42
-14.81
-14.79
-14.74
-15.08
-16.14
-18.14
-21.01
-24.43
-27.73
-30.02
-30.44
-28.37
-23.76
-17.13
-9.43
-1.76
5.01
10.36
14.21
16.71
18.08
18.52
18.15
17.11
15.57
13.78
12.04
10.60
9.62
9.15
9.15
9.46
9.99
10.64
11.35
12.04
12.56
12.67
12.19
11.02
9.25
7.10
4.82
2.61
0.50
-1.53
-3.58
-5.70
-7.86
-9.98
-11.89
-13.47
-14.68
-15.57
-16.38
-17.45
-19.07
-21.38
-24.13
-26.68
-28.14
-27.65
-24.70
-19.34
-12.16
-4.08
3.87
10.87
16.41
20.28
22.56
23.44
23.20
22.14
20.59
18.86
17.22
15.87
14.90
14.29
13.95
13.71
13.45
13.11
12.75
12.51
12.50
12.69
12.85
12.57
11.54
9.64
7.06
4.23
1.55
-0.76
-2.78
-4.73
-6.81
-9.02
-11.14
-12.85
-13.98
-14.55
-14.82
-15.14
-15.85
-17.21
-19.28
-21.93
-24.76
-27.15
-28.33
-27.65
-24.82
-20.00
-13.82
-7.07
-0.50
5.36
10.24
13.99
16.49
17.66
17.50
16.18
14.03
11.50
8.96
6.73
5.02
3.90
3.39
3.41
3.80
4.39
5.00
5.53
5.96
6.28
6.43
6.29
5.71
4.54
2.71
0.33
-2.37
-5.04
-7.35
-9.14
-10.36
-11.14
-11.71
-12.31
-13.19
-14.61
-16.76
-19.74
-23.31
-26.81
-29.23
-29.58
-27.21
-22.17
-15.21
-7.44
0.03
6.50
11.68
15.59
18.33
19.94
20.35
19.57
17.79
15.41
12.90
10.69
9.02
7.95
7.44
7.39
7.73
8.38
9.22
10.08
10.74
11.00
10.79
10.13
9.11
7.82
6.30
4.51
2.45
0.21
-2.02
-4.12
-6.03
-7.87
-9.88
-12.21
-14.91
-17.89
-21.04
-24.27
-27.53
-30.60
-33.01
-34.03
-32.86
-29.03
-22.71
-14.70
-6.23
1.58
8.00
12.84
16.26
18.49
19.65
19.70
18.62
16.58
14.00
11.39
9.25
7.84
7.17
7.04
7.23
7.55
7.90
8.28
8.70
9.11
9.42
9.43
8.97
7.90
6.23
4.06
1.62
-0.87
-3.24
-5.39
-7.29
-8.93
-10.30
-11.45
-12.52
-13.69
-15.23
-17.35
-20.13
-23.37
-26.58
-29.00
-29.76
-28.20
-24.05
-17.68
-9.93
-1.88
5.48
11.52
16.04
19.11
20.92
21.64
21.36
20.21
18.42
16.30
14.22
12.45
11.08
10.02
9.10
8.19
7.23
6.32
5.64
5.30
5.35
5.66
5.95
5.96
5.45
4.33
2.61
0.45
-1.97
-4.44
-6.75
-8.77
-10.39
-11.65
-12.66
-13.63
-14.84
-16.50
-18.74
-21.43
-24.20
-26.44
-27.45
-26.65
-23.76
-18.93
-12.70
-5.85
0.81
6.62
11.18
14.31
16.00
16.37
15.64
14.08
12.02
9.79
7.64
5.75
4.17
2.92
1.99
1.32
0.88
0.65
0.62
0.77
1.04
1.35
1.55
1.50
1.01
-0.03
-1.66
-3.80
-6.26
-8.77
-11.08
-12.99
-14.48
-15.74
-17.09
-18.89
-21.30
-24.16
-26.93
-28.84
-29.07
-27.15
-23.02
-17.15
-10.30
-3.32
3.15
8.75
13.35
16.90
19.31
20.45
20.25
18.82
16.48
13.76
11.13
8.93
7.26
6.03
5.10
4.37
3.86
3.67
3.84
4.32
4.89
5.24
5.04
4.09
2.31
-0.18
-3.10
-6.11
-8.84
-11.05
-12.74
-14.11
-15.58
-17.62
-20.59
-24.51
-29.02
-33.29
-36.31
-37.05
-34.93
-29.93
-22.63
-14.06
-5.34
2.66
9.39
14.65
18.41
20.71
21.57
21.12
19.61
17.38
14.89
12.52
10.49
8.88
7.64
6.71
6.01
5.54
5.34
5.43
5.81
6.36
6.91
7.18
6.93
5.90
4.02
1.38
-1.74
-5.00
-8.07
-10.77
-13.14
-15.36
-17.69
-20.34
-23.43
-26.94
-30.64
-34.06
-36.51
-37.20
-35.49
-31.13
-24.41
-16.11
-7.23
1.35
8.98
15.33
20.22
23.50
25.07
24.98
23.51
21.17
18.61
16.35
14.68
13.62
12.96
12.44
11.84
11.09
10.28
9.59
9.22
9.26
9.60
9.86
9.61
8.40
6.09
2.83
-0.91
-4.56
-7.64
-9.94
-11.60
-13.01
-14.69
-17.11
-20.54
-24.89
-29.72
-34.22
-37.41
-38.39
-36.55
-31.83
-24.69
-16.05
-7.00
1.48
8.70
14.31
18.22
20.54
21.42
21.09
19.83
18.00
15.94
13.95
12.19
10.65
9.30
8.11
7.18
6.66
6.70
7.26
8.13
8.87
9.04
8.26
6.38
3.55
0.10
-3.52
-6.92
-9.84
-12.27
-14.42
-16.65
-19.37
-22.82
-27.01
-31.57
-35.81
-38.86
-39.85
-38.18
-33.67
-26.65
-17.90
-8.49
0.50
8.18
13.98
17.70
19.50
19.73
18.85
17.34
15.58
13.81
12.14
10.53
8.95
7.43
6.14
5.35
5.24
5.84
6.85
7.79
8.09
7.40
5.66
3.11
0.16
-2.84
-5.70
-8.45
-11.29
-14.44
-18.15
-22.57
-27.67
-33.13
-38.21
-41.88
-43.03
-40.88
-35.30
-26.96
-17.12
-7.15
1.80
9.12
14.64
18.42
20.55
21.02
19.84
17.15
13.34
9.08
5.19
2.43
1.25
1.70
3.38
5.71
8.14
10.41
12.52
14.59
16.58
18.11
18.52
17.20
13.92
9.05
3.50
-1.67
-5.70
-8.43
-10.38
-12.50
-15.78
-20.85
-27.60
-35.18
-42.09
-46.63
-47.45
-43.95
-36.54
-26.50
-15.59
-5.52
2.53
8.14
11.51
13.24
13.95
14.09
13.89
13.50
13.19
13.39
14.58
17.07
20.77
25.20
29.58
33.28
35.97
37.75
38.99
39.97
40.66
40.71
39.59
36.90
32.60
27.03
20.80
14.58
8.87
3.91
-0.32
-4.01
-7.49
-11.07
-15.04
-19.64
-24.91
-30.64
-36.25
-40.83
-43.33
-42.91
-39.17
-32.35
-23.24
-12.90
-2.35
7.60
16.39
23.66
29.17
32.72
34.29
34.09
32.54
30.19
27.61
25.27
23.51
22.54
22.45
23.17
24.50
26.10
27.54
28.48
28.68
28.07
26.73
24.79
22.42
19.81
17.12
14.52
12.11
9.85
7.65
5.34
2.83
0.16
-2.53
-5.05
-7.32
-9.48
-11.83
-14.84
-18.89
-24.11
-30.29
-36.72
-42.33
-45.89
-46.31
-43.02
-36.18
-26.58
-15.50
-4.31
5.86
14.32
20.79
25.31
28.07
29.29
29.20
28.11
26.34
24.35
22.57
21.38
21.00
21.44
22.52
23.94
25.44
26.80
27.88
28.60
28.81
28.35
27.08
25.06
22.52
19.82
17.26
14.96
12.76
10.30
7.29
3.66
-0.35
-4.30
-7.77
-10.50
-12.56
-14.24
-15.96
-18.16
-21.20
-25.28
-30.30
-35.77
-40.67
-43.76
-43.82
-40.17
-32.92
-22.99
-11.79
-0.75
9.06
17.09
23.23
27.60
30.39
31.77
31.96
31.26
30.07
28.82
27.87
27.45
27.59
28.17
28.96
29.68
30.14
30.24
29.98
29.43
28.62
27.57
26.27
24.71
22.94
21.02
19.01
16.94
14.81
12.64
10.51
8.53
6.79
5.24
3.68
1.81
-0.61
-3.65
-7.16
-10.84
-14.30
-17.29
-19.74
-21.81
-23.83
-26.24
-29.42
-33.58
-38.57
-43.75
-48.05
-50.20
-49.10
-44.28
-36.08
-25.60
-14.30
-3.60
5.52
12.61
17.74
21.20
23.42
24.74
25.43
25.71
25.76
25.72
25.66
25.64
25.67
25.72
25.74
25.66
25.53
25.43
25.52
25.87
26.36
26.72
26.56
25.61
23.83
21.49
19.01
16.82
15.18
14.05
13.19
12.28
11.06
9.47
7.64
5.77
4.10
2.75
1.70
0.75
-0.42
-2.07
-4.37
-7.23
-10.35
-13.35
-15.91
-17.92
-19.49
-20.95
-22.67
-25.02
-28.20
-32.19
-36.75
-41.27
-44.85
-46.47
-45.27
-40.85
-33.49
-24.08
-13.88
-4.16
4.17
10.69
15.44
18.64
20.61
21.57
21.74
21.33
20.62
19.89
19.38
19.17
19.20
19.35
19.47
19.55
19.62
19.78
20.10
20.51
20.88
21.01
20.72
19.91
18.61
16.89
14.99
13.10
11.39
9.91
8.62
7.40
6.13
4.72
3.17
1.52
-0.14
-1.71
-3.13
-4.35
-5.41
-6.40
-7.49
-8.83
-10.51
-12.46
-14.51
-16.46
-18.21
-19.80
-21.51
-23.68
-26.57
-30.25
-34.42
-38.44
-41.39
-42.39
-40.80
-36.48
-29.84
-21.70
-13.06
-4.78
2.53
8.53
13.10
16.18
17.80
18.14
17.50
16.34
15.12
14.17
13.58
13.27
13.09
12.98
13.01
13.35
14.11
15.27
16.57
17.66
18.19
17.96
16.90
15.15
12.96
10.58
8.24
6.12
4.31
2.82
1.59
0.53
-0.45
-1.39
-2.32
-3.24
-4.16
-5.11
-6.14
-7.30
-8.61
-10.04
-11.51
-12.91
-14.19
-15.34
-16.48
-17.79
-19.53
-21.90
-25.02
-28.73
-32.63
-35.98
-37.93
-37.70
-34.83
-29.37
-21.89
-13.32
-4.62
3.41
10.32
15.92
20.17
23.03
24.45
24.44
23.20
21.24
19.23
17.84
17.41
17.80
18.44
18.62
17.83
16.04
13.79
11.95
11.42
12.71
15.79
20.07
24.65
28.51
30.75
30.73
28.20
23.30
16.62
9.09
1.79
-4.33
-8.69
-11.20
-12.26
-12.44
-12.36
-12.44
-12.87
-13.75
-15.12
-17.05
-19.51
-22.42
-25.54
-28.61
-31.41
-33.90
-36.24
-38.69
-41.46
-44.60
-47.78
-50.35
-51.41
-50.02
-45.50
-37.69
-27.13
-14.92
-2.57
8.52
17.34
23.50
27.15
28.80
28.97
28.07
26.33
23.90
20.98
17.84
14.86
12.32
10.36
8.94
7.92
7.14
6.58
6.35
6.62
7.43
8.69
10.07
11.17
11.68
11.48
10.70
9.58
8.35
7.12
5.86
4.47
2.89
1.14
-0.76
-2.76
-4.83
-6.93
-8.99
-10.90
-12.54
-13.90
-15.05
-16.04
-16.94
-17.72
-18.31
-18.68
-18.91
-19.24
-19.97
-21.35
-23.39
-25.80
-27.92
-28.92
-28.02
-24.77
-19.25
-12.06
-4.15
3.47
10.03
15.10
18.52
20.38
20.79
19.92
18.04
15.51
12.78
10.27
8.26
6.82
5.84
5.11
4.51
4.05
3.82
3.98
4.63
5.71
6.98
8.07
8.53
8.07
6.57
4.22
1.44
-1.33
-3.71
-5.59
-7.08
-8.45
-9.92
-11.58
-13.33
-14.96
-16.26
-17.15
-17.76
-18.35
-19.27
-20.83
-23.13
-26.07
-29.26
-32.08
-33.75
-33.56
-30.99
-25.97
-18.91
-10.62
-2.12
5.65
12.08
16.90
20.18
22.13
22.98
22.89
22.00
20.49
18.60
16.64
14.88
13.48
12.49
11.79
11.23
10.67
10.08
9.45
8.77
8.03
7.16
6.13
4.95
3.73
2.57
1.50
0.40
-0.93
-2.69
-4.95
-7.58
-10.26
-12.61
