1721237241.00
64.000000
-0.00
-0.00
-0.00
-0.00
-0.00
-0.00
-0.00
-0.00
-0.00
-0.00
0.00
0.01
0.01
-0.00
-0.03
-0.05
-0.05
0.00
0.13
0.36
0.66
1.01
1.37
1.72
2.06
2.40
2.79
3.24
3.80
4.42
5.06
5.66
6.20
6.68
7.15
7.68
8.31
9.14
10.09
11.04
11.88
12.56
13.14
13.76
14.65
15.96
17.91
20.32
22.90
25.38
27.58
29.57
31.68
34.32
37.81
42.54
48.15
54.10
59.83
64.97
69.58
74.14
79.34
85.71
93.76
103.00
112.62
121.73
129.77
136.75
143.30
150.75
157.77
166.64
177.95
191.79
206.97
220.57
228.25
225.36
208.53
176.87
132.76
80.05
23.07
-34.94
-92.44
-149.16
-205.23
-260.37
-313.74
-363.87
-409.83
-450.90
-486.48
-515.70
-537.17
-549.13
-549.84
-538.21
-514.00
-478.42
-433.56
-382.07
-326.58
-269.33
-212.06
-156.01
-102.23
-51.58
-5.03
36.54
72.47
102.50
126.75
145.74
160.18
170.77
178.14
182.69
184.71
184.42
182.09
178.09
172.80
166.65
159.98
153.04
145.97
138.87
131.77
124.68
117.67
110.76
104.03
97.54
91.36
85.53
80.11
75.11
70.51
66.30
62.42
58.85
55.61
52.74
50.29
48.31
46.78
45.64
44.79
44.07
43.36
42.57
41.63
40.51
39.12
37.28
34.75
31.22
26.48
20.43
13.27
5.46
-2.43
-9.86
-16.55
-22.46
-27.86
-33.02
-38.10
-42.91
-47.02
-49.87
-51.10
-50.80
-49.56
-48.32
-48.00
-49.09
-51.45
-54.36
-56.90
-58.32
-58.44
-57.69
-56.88
-56.94
-58.68
-62.70
-69.17
-77.48
-85.80
-91.18
-90.19
-80.36
-61.43
-35.99
-8.71
15.35
32.66
42.27
45.66
45.39
43.64
41.40
38.58
34.81
30.20
25.47
21.56
19.01
17.69
16.83
15.45
12.91
9.21
4.92
0.88
-2.22
-4.14
-5.22
-6.14
-7.61
-9.99
-13.19
-16.54
-19.06
-19.83
-18.31
-14.41
-8.46
-0.97
7.56
16.79
26.56
36.69
46.89
56.62
65.22
71.99
76.44
78.45
78.24
76.34
73.31
69.75
66.15
62.87
60.14
57.94
56.05
54.07
51.62
48.48
44.75
40.84
37.36
34.96
34.01
34.33
35.00
34.50
31.23
24.05
12.55
-2.92
-21.50
-42.23
-64.15
-86.19
-106.95
-124.61
-136.45
-139.99
-134.08
-119.53
-98.95
-75.76
-52.92
-32.18
-14.18
1.07
13.52
22.87
28.74
31.04
30.22
27.42
24.10
21.63
20.79
21.40
22.44
22.52
20.64
16.68
11.58
6.99
4.48
4.83
7.47
10.73
12.48
11.23
6.89
0.94
-4.23
-6.37
-4.63
0.08
5.50
9.13
9.40
6.27
0.74
-5.87
-12.32
-16.72
-16.14
-7.12
12.31
40.16
69.70
91.35
97.36
86.06
63.43
39.94
25.13
22.37
27.78
33.33
32.27
22.93
9.09
-3.17
-9.61
-10.27
-8.74
-9.55
-15.61
-26.67
-39.91
-51.65
-59.31
-62.17
-60.94
-57.19
-52.72
-48.75
-46.22
-46.11
-49.49
-57.10
-68.09
-79.35
-86.03
-83.26
-68.19
-41.98
-9.84
20.43
41.21
47.42
39.05
20.39
-2.37
-22.93
-37.30
-43.72
-41.89
-32.80
-18.10
-0.04
18.72
35.50
48.89
58.81
66.25
72.78
78.70
82.30
80.59
71.48
53.66
28.41
-1.05
-30.96
-57.69
-78.06
-89.15
-88.69
-76.02
-53.30
-25.66
0.16
17.85
23.72
18.08
4.85
-11.08
-25.95
-37.91
-46.66
-52.41
-55.64
-56.66
-55.85
-53.75
-50.89
-47.27
-42.26
-34.68
-23.00
-6.78
13.20
35.16
56.98
76.78
93.63
107.65
118.32
127.24
135.78
145.04
155.40
165.80
173.20
173.03
161.03
135.48
99.12
58.38
21.34
-5.58
-20.06
-24.25
-22.89
-20.49
-19.37
-19.30
-19.18
-18.42
-17.63
-18.14
-20.86
-25.56
-30.89
-35.15
-36.88
-35.96
-33.34
-30.59
-29.03
-29.30
-31.03
-33.10
-34.25
-33.55
-30.95
-27.03
-22.67
-18.54
-15.00
-11.84
-8.46
-4.23
1.19
7.76
15.13
22.94
31.02
39.09
47.16
55.28
63.29
70.79
77.15
81.89
84.88
86.63
87.37
87.67
87.93
88.12
87.72
86.05
82.76
78.14
73.37
69.18
66.30
64.69
63.13
59.41
50.86
35.10
10.21
-18.91
-49.10
-77.70
-103.31
-126.16
-147.84
-170.55
-196.07
-225.02
-256.19
-287.43
-314.87
-333.63
-338.71
-326.10
-294.09
-244.28
-181.70
-113.44
-47.27
11.64
61.59
103.41
138.09
164.37
178.05
173.73
148.33
103.73
47.89
-7.74
-52.92
-82.64
-98.39
-106.15
-112.52
-121.26
-132.24
-142.23
-147.07
-143.79
-131.37
-110.40
-82.39
-49.35
-13.78
21.04
51.46
74.39
88.17
93.21
91.43
85.33
77.07
68.01
58.89
50.33
43.14
38.07
35.37
34.42
33.85
32.22
28.71
23.57
17.96
13.21
10.10
8.55
7.76
6.74
4.75
1.63
-2.21
-5.94
-8.60
-9.53
-8.60
-6.28
-3.37
-0.70
1.35
2.91
4.50
6.65
9.55
12.86
15.87
17.88
18.51
17.94
16.73
15.57
14.90
14.72
14.74
14.58
14.17
13.79
13.96
15.16
17.49
20.65
24.11
27.33
30.00
31.96
33.13
33.36
32.51
30.63
28.08
25.47
23.49
22.51
22.47
22.86
23.00
22.36
20.80
18.55
16.08
13.85
12.08
10.75
9.68
8.76
8.12
8.21
9.64
12.94
18.34
25.49
33.60
41.52
48.13
52.60
54.79
55.53
56.53
60.15
68.70
83.66
104.96
130.57
156.85
179.30
193.80
197.70
190.55
173.94
150.74
124.07
96.34
68.88
41.94
15.18
-11.90
-39.62
-68.10
-97.38
-127.49
-158.51
-190.28
-222.26
-253.23
-281.38
-304.45
-320.07
-326.21
-321.47
-305.49
-279.06
-244.08
-203.36
-160.01
-116.96
-76.55
-40.37
-9.32
16.14
35.87
50.12
59.67
65.92
70.65
75.44
81.21
87.88
94.56
100.11
103.67
104.96
104.27
102.20
99.26
95.66
91.20
85.49
78.16
69.17
58.88
47.99
37.26
27.22
17.96
9.10
0.11
-9.37
-19.28
-29.05
-37.83
-44.83
-49.62
-52.34
-53.58
-54.07
-54.43
-54.87
-55.22
-55.11
-54.15
-52.20
-49.42
-46.29
-43.38
-41.22
-40.15
-40.18
-41.05
-42.22
-42.96
-42.44
-39.90
-34.92
-27.66
-18.89
-9.84
-1.84
4.27
8.25
10.51
11.76
12.64
13.42
14.10
14.62
15.11
15.91
17.43
19.81
22.81
25.82
28.20
29.55
29.95
29.88
29.97
30.67
32.04
33.73
35.20
35.97
35.83
34.90
33.45
31.82
30.21
28.67
27.21
25.75
24.30
22.92
21.68
20.63
19.84
19.32
19.07
19.02
18.96
18.62
17.69
15.99
13.55
10.63
7.67
5.09
3.21
2.21
2.07
2.75
4.08
5.94
8.09
10.29
12.27
13.78
14.72
15.04
14.78
14.02
12.92
11.69
10.60
9.87
9.59
9.73
10.14
10.70
11.38
12.22
13.38
14.92
16.82
18.88
20.85
22.42
23.31
23.25
22.04
19.50
15.60
10.53
4.67
-1.42
-7.09
-11.76
-14.96
-16.47
-16.22
-14.39
-11.33
-7.53
-3.61
-0.22
2.12
3.06
2.58
0.91
-1.47
-4.02
-6.29
-8.06
-9.27
-10.01
-10.34
-10.22
-9.52
-8.16
-6.24
-4.04
-2.00
-0.51
0.26
0.40
0.16
-0.19
-0.50
-0.82
-1.30
-2.09
-3.26
-4.75
-6.38
-7.94
-9.28
-10.31
-11.02
-11.43
-11.57
-11.45
-10.98
-10.10
-8.81
-7.22
-5.58
-4.18
-3.19
-2.67
-2.44
-2.23
-1.85
-1.21
-0.40
0.37
0.90
1.08
0.92
0.51
-0.06
-0.77
-1.63
-2.68
-3.95
-5.40
-6.97
-8.57
-10.11
-11.55
-12.86
-14.08
-15.23
-16.41
-17.72
-19.32
-21.33
-23.76
-26.47
-29.12
-31.23
-32.29
-31.83
-29.53
-25.32
-19.42
-12.28
-4.52
3.29
10.77
17.81
24.56
31.23
37.78
43.86
48.84
52.06
53.13
52.09
49.32
45.35
40.65
35.52
30.19
24.92
20.08
16.03
13.06
11.17
10.18
9.77
9.60
9.49
9.34
9.17
9.07
9.16
9.49
9.99
10.46
10.60
10.19
9.22
7.93
6.76
6.09
6.05
6.43
6.78
6.54
5.38
3.18
0.06
-3.76
-8.01
-12.49
-17.07
-21.64
-26.25
-30.98
-35.93
-41.13
-46.41
-51.39
-55.50
-57.99
-58.08
-55.16
-48.89
-39.53
-27.93
-15.49
-3.83
5.64
12.08
15.43
16.27
15.55
14.19
12.91
12.16
12.09
12.62
13.49
14.34
14.82
14.78
14.32
13.71
13.31
13.37
13.96
14.95
16.13
17.24
18.06
18.37
18.03
17.03
15.52
13.86
12.43
11.51
11.11
11.04
11.03
10.96
10.98
11.35
12.40
14.23
16.67
19.30
21.50
22.58
21.97
19.41
15.09
9.70
4.23
-0.36
-3.54
-5.41
-6.63
-7.97
-10.01
-12.85
-16.17
-19.48
-22.33
-24.41
-25.50
-25.46
-24.15
-21.62
-18.14
-14.19
-10.31
-6.89
-4.06
-1.69
0.44
2.52
4.58
6.54
8.28
9.70
10.80
11.68
12.40
12.97
13.36
13.50
13.46
13.32
13.26
13.34
13.50
13.50
13.04
11.86
9.90
7.27
4.20
1.02
-1.96
-4.42
-6.14
-6.97
-6.95
-6.26
-5.18
-3.95
-2.66
-1.22
0.55
2.72
5.20
7.63
9.56
10.57
10.47
9.32
7.45
5.33
3.59
2.83
3.49
5.63
8.78
11.93
13.84
13.45
10.37
4.94
-1.82
-8.65
-14.59
-19.09
-22.08
-23.74
-24.25
-23.77
-22.46
-20.55
-18.34
-16.06
-13.80
-11.44
-8.80
-5.77
-2.42
0.96
4.01
6.43
8.11
9.15
9.78
10.22
10.63
11.03
11.27
11.06
10.10
8.20
5.38
1.94
-1.66
-4.91
-7.42
-9.09
-10.09
-10.76
-11.50
-12.63
-14.32
-16.53
-19.09
-21.76
-24.27
-26.41
-28.05
-29.23
-30.03
-30.48
-30.53
-30.01
-28.80
-26.84
-24.33
-21.59
-19.01
-16.84
-15.11
-13.66
-12.26
-10.72
-9.02
-7.25
-5.49
-3.82
-2.25
-0.76
0.65
1.94
3.05
3.89
4.46
4.87
5.31
6.03
7.20
8.79
10.65
12.43
13.81
14.60
14.82
14.60
14.15
13.61
12.98
12.21
11.27
10.17
8.99
7.83
6.71
5.62
4.48
3.17
1.60
-0.30
-2.49
-4.81
-7.07
-9.08
-10.74
-12.10
-13.31
-14.58
-16.03
-17.69
-19.42
-20.98
-22.04
-22.29
-21.45
-19.39
-16.16
-12.02
-7.46
-3.01
0.85
3.88
6.05
7.50
8.43
8.99
9.21
9.08
8.58
7.73
6.63
5.44
4.37
3.57
3.22
3.31
3.80
4.51
5.23
5.81
6.20
6.46
6.68
6.90
7.09
7.15
7.00
6.65
6.16
5.62
5.03
4.30
3.38
2.23
0.98
-0.22
-1.22
-1.96
-2.52
-2.96
-3.35
-3.62
-3.67
-3.39
-2.78
-2.03
-1.43
-1.33
-1.98
-3.49
-5.76
-8.51
-11.36
-13.89
-15.66
-16.33
-15.71
-13.83
-11.02
-7.86
-4.95
-2.80
-1.59
-1.17
-1.18
-1.24
-1.09
-0.67
-0.09
0.52
1.01
1.27
1.22
0.85
0.20
-0.54
-1.15
-1.37
-1.11
-0.50
0.14
0.51
0.44
0.01
-0.52
-0.83
-0.78
-0.44
-0.05
0.13
-0.02
-0.46
-1.01
-1.50
-1.87
-2.21
-2.68
-3.43
-4.47
-5.73
-7.12
-8.55
-10.00
-11.48
-12.95
-14.32
-15.50
-16.45
-17.23
-18.01
-18.90
-19.95
-21.06
-21.99
-22.54
-22.50
-21.78
-20.29
-18.05
-15.19
-11.89
-8.43
-5.12
-2.22
0.11
1.77
2.75
3.09
2.93
2.54
2.37
2.97
4.88
8.45
13.64
19.94
26.45
32.06
35.76
36.91
35.45
31.82
26.83
21.42
16.39
12.33
9.57
8.23
8.29
9.60
11.81
14.45
16.91
18.57
18.96
17.94
15.79
13.10
10.58
8.79
7.93
7.78
7.89
7.78
7.22
6.26
5.17
4.19
3.43
2.75
1.89
0.57
-1.31
-3.62
-5.96
-7.86
-8.90
-8.90
-7.99
-6.61
-5.28
-4.40
-4.03
-3.97
-3.87
-3.52
-3.00
-2.61
-2.64
-3.06
-3.52
-3.45
-2.46
-0.54
1.91
4.30
6.15
7.37
8.17
8.91
9.83
10.92
11.98
12.80
13.22
13.19
12.69
11.75
10.43
8.90
7.47
6.50
6.18
6.51
7.21
7.87
8.12
7.83
7.08
6.11
5.11
4.24
3.46
2.73
2.02
1.32
0.60
-0.19
-1.15
-2.43
-4.14
-6.30
-8.71
-10.97
-12.55
-12.87
-11.61
-8.84
-5.09
-1.20
1.93
3.66
3.81
2.64
0.78
-1.09
-2.36
-2.65
-1.86
-0.12
2.24
4.75
6.95
8.54
9.42
9.69
9.65
9.56
9.67
10.05
10.66
11.34
11.95
12.31
12.33
11.99
11.33
10.49
9.56
8.61
7.57
6.29
4.70
2.77
0.68
-1.30
-2.85
-3.77
-4.08
-3.92
-3.63
-3.51
-3.71
-4.23
-4.84
-5.21
-5.08
-4.36
-3.19
-1.96
-1.11
-0.99
-1.71
-3.16
-5.09
-7.24
-9.36
-11.20
-12.45
-12.73
-11.79
-9.64
-6.69
-3.63
-1.15
0.33
0.89
0.99
1.16
1.77
2.80
3.89
4.62
4.70
4.15
3.17
2.10
1.19
0.56
0.23
0.20
0.52
1.25
2.42
3.94
5.63
7.21
8.40
9.02
9.05
8.63
8.00
7.41
7.06
7.03
7.20
7.38
7.36
7.05
6.51
5.89
5.34
4.91
4.57
4.17
3.63
2.92
2.08
1.18
0.24
-0.72
-1.69
-2.65
-3.56
-4.42
-5.26
-6.19
-7.33
-8.78
-10.55
-12.53
-14.52
-16.23
-17.27
-17.30
-16.11
-13.70
-10.38
-6.67
-3.19
-0.49
1.17
1.82
1.77
1.39
1.01
0.79
0.69
0.62
0.47
0.22
-0.05
-0.29
-0.48
-0.72
-1.16
-1.95
-3.04
-4.27
-5.32
-5.95
-6.10
-5.94
-5.86
-6.23
-7.19
-8.56
-9.90
-10.73
-10.79
-10.13
-9.11
-8.17
-7.62
-7.49
-7.54
-7.52
-7.20
-6.63
-5.99
-5.53
-5.39
-5.56
-5.95
-6.42
-6.84
-7.03
-6.70
-5.53
-3.38
-0.41
2.81
5.51
7.04
7.25
6.52
5.62
5.28
5.82
7.13
8.77
10.34
11.71
12.94
14.10
15.14
15.83
15.93
15.41
14.53
13.72
13.43
13.82
14.74
15.84
16.75
17.19
17.11
16.56
15.65
14.50
13.22
11.94
10.78
9.85
9.14
8.56
7.97
7.17
6.09
4.75
3.29
1.88
0.68
-0.24
-0.90
-1.31
-1.54
-1.61
-1.60
-1.54
-1.50
-1.47
-1.40
-1.17
-0.75
-0.24
0.09
-0.11
-1.11
-2.95
-5.36
-7.86
-9.93
-11.21
-11.57
-11.07
-9.91
-8.29
-6.43
-4.55
-2.89
-1.61
-0.80
-0.39
-0.16
0.13
0.65
1.46
2.42
3.35
4.07
4.47
4.58
4.50
4.38
4.34
4.42
4.59
4.74
4.85
4.90
4.94
4.99
5.00
4.87
4.45
3.70
2.70
1.68
0.90
0.58
0.78
1.38
2.12
2.74
2.99
2.80
2.21
1.41
0.57
-0.18
-0.88
-1.65
-2.64
-3.89
-5.30
-6.60
-7.53
-7.97
-8.02
-8.02
-8.40
-9.43
-11.15
-13.26
-15.31
-16.79
-17.33
-16.79
-15.25
-12.95
-10.26
-7.55
-5.15
-3.24
-1.86
-0.87
-0.07
0.76
1.73
2.82
3.87
4.71
5.20
5.35
5.26
5.13
5.13
5.37
5.82
6.34
6.76
6.95
6.86
6.56
6.18
5.84
5.58
5.39
5.26
5.16
5.05
4.87
4.48
3.68
2.28
0.22
-2.36
-5.11
-7.58
-9.37
-10.31
-10.39
-9.82
-8.84
-7.65
-6.40
-5.19
-4.15
-3.42
-3.08
-3.12
-3.45
-3.95
-4.54
-5.29
-6.37
-7.93
-9.95
-12.22
-14.25
-15.56
-15.73
-14.65
-12.48
-9.66
-6.75
-4.25
-2.47
-1.48
-1.11
-1.05
-0.92
-0.48
0.40
1.69
3.21
4.66
5.74
6.22
6.03
5.26
4.17
3.05
2.11
1.48
1.15
1.03
1.05
1.16
1.30
1.47
1.58
1.52
1.18
0.50
-0.45
-1.54
-2.58
-3.42
-4.09
-4.71
-5.43
-6.31
-7.22
-7.96
-8.31
-8.22
-7.83
-7.44
-7.27
-7.43
-7.79
-8.15
-8.31
-8.21
-7.94
-7.65
-7.53
-7.68
-8.14
-8.91
-9.93
-11.03
-11.95
-12.32
-11.80
-10.21
-7.66
-4.55
-1.44
1.15
2.89
3.69
3.71
3.22
2.53
1.89
1.49
1.48
1.85
2.55
3.41
4.29
5.08
5.76
6.39
7.10
7.98
9.10
10.47
12.00
13.52
14.85
15.78
16.20
16.09
15.53
14.68
13.73
12.83
12.11
11.65
11.52
11.68
12.06
12.48
12.74
12.70
12.26
11.41
10.23
8.82
7.31
5.85
4.58
3.55
2.70
1.88
0.83
-0.63
-2.57
-4.84
-7.09
-8.89
-9.87
-9.79
-8.66
-6.73
-4.39
-2.09
-0.18
1.18
2.03
2.55
2.99
3.45
3.97
4.45
4.85
5.16
5.45
5.76
6.09
6.37
6.48
6.35
6.04
5.71
5.47
5.42
5.54
5.71
5.84
5.88
5.82
5.66
5.36
4.82
4.05
3.08
2.10
1.29
0.80
0.64
0.69
0.82
0.89
0.89
0.80
0.59
0.24
-0.31
-1.05
-1.88
-2.64
-3.24
-3.69
-4.15
-4.82
-5.86
-7.30
-9.04
-10.83
-12.39
-13.38
-13.55
-12.79
-11.18
-9.01
-6.74
-4.80
-3.48
-2.76
-2.40
-2.07
-1.55
-0.84
-0.10
0.46
0.69
0.61
0.38
0.20
0.22
0.48
0.91
1.38
1.77
2.04
2.25
2.47
2.83
3.41
4.18
5.05
5.88
6.52
6.87
6.91
6.68
6.22
5.62
4.97
4.34
3.79
3.38
3.07
2.79
2.46
2.02
1.46
0.80
0.09
-0.67
-1.53
-2.51
-3.61
-4.72
-5.72
-6.52
-7.11
-7.59
-8.15
-8.92
-9.99
-11.34
-12.87
-14.39
-15.65
-16.31
-16.08
-14.78
-12.49
-9.54
-6.45
-3.72
-1.68
-0.38
0.36
0.81
1.20
1.64
2.14
2.65
3.17
3.73
4.36
5.11
5.91
6.65
7.24
7.61
7.79
7.88
7.98
8.17
8.42
8.67
8.85
8.93
8.94
8.88
8.74
8.45
7.96
7.27
6.40
5.42
4.38
3.26
2.03
0.70
-0.63
-1.78
-2.55
-2.85
-2.79
-2.63
-2.72
-3.33
-4.51
-6.08
-7.69
-8.99
-9.76
-10.02
-9.99
-10.00
-10.37
-11.27
-12.68
-14.38
-16.00
-17.18
-17.57
-16.99
-15.41
-12.98
-9.97
-6.83
-4.01
-1.95
-0.90
-0.83
-1.48
-2.41
-3.22
-3.75
-4.05
-4.40
-5.08
-6.29
-8.05
-10.17
-12.35
-14.22
-15.49
-16.00
-15.77
-14.98
-13.89
-12.79
-11.86
-11.14
-10.58
-10.01
-9.26
-8.20
-6.77
-4.94
-2.78
-0.42
1.94
4.10
5.86
7.15
7.98
8.44
8.64
8.66
8.53
8.28
7.96
7.63
7.40
7.29
7.33
7.46
7.61
7.73
7.71
7.48
6.92
5.94
4.55
2.83
1.00
-0.69
-1.98
-2.67
-2.60
-1.68
0.06
2.43
5.01
7.22
8.60
8.89
8.24
7.13
6.17
5.79
6.13
7.03
8.13
9.11
9.82
10.19
10.28
10.17
9.90
9.57
9.30
9.16
9.18
9.23
9.15
8.82
8.20
7.45
6.73
6.14
5.62
5.04
4.21
3.12
1.89
0.74
-0.09
-0.47
-0.40
0.03
0.67
1.33
1.80
1.88
1.43
0.51
-0.63
-1.65
-2.25
-2.36
-2.22
-2.25
-2.84
-4.22
-6.26
-8.61
-10.76
-12.20
-12.52
-11.55
-9.37
-6.32
-2.92
0.26
2.82
4.57
5.67
6.38
6.96
7.50
7.96
8.26
8.40
8.50
8.73
9.20
9.84
10.45
10.75
10.62
10.09
9.33
8.60
8.03
7.66
7.36
6.99
6.55
6.10
5.77
5.61
5.57
5.50
5.21
4.66
3.95
3.27
2.78
2.53
2.45
2.41
2.36
2.32
2.33
2.40
2.42
2.21
1.65
0.76
-0.29
-1.30
-2.15
-2.84
-3.52
-4.34
-5.41
-6.68
-8.08
-9.51
-10.92
-12.27
-13.51
-14.49
-14.97
-14.71
-13.56
-11.60
-9.08
-6.41
-4.02
-2.17
-0.92
-0.15
0.35
0.80
1.32
1.90
2.47
2.91
3.15
3.15
2.96
2.69
2.51
2.58
2.97
3.64
4.43
5.10
5.45
5.44
5.12
4.69
4.30
4.06
3.96
3.92
3.82
3.61
3.28
2.87
2.46
2.13
1.93
1.88
1.92
1.93
1.85
1.67
1.44
1.28
1.24
1.24
1.14
0.77
0.06
-0.92
-2.00
-2.99
-3.73
-4.20
-4.49
-4.74
-5.11
-5.75
-6.75
-8.15
-9.91
-11.90
-13.93
-15.68
-16.81
-17.01
-16.10
-14.18
-11.60
-8.89
-6.57
-4.93
-3.93
-3.28
-2.59
-1.62
-0.38
0.93
2.02
2.70
2.98
2.94
2.77
2.57
2.40
2.26
2.18
2.21
2.40
2.77
3.26
3.76
4.14
4.25
4.01
3.39
2.44
1.28
0.06
-1.01
-1.80
-2.23
-2.32
-2.11
-1.61
-0.87
0.06
1.04
1.83
2.14
1.77
0.69
-0.93
-2.81
-4.72
-6.52
-8.17
-9.72
-11.12
-12.29
-13.12
-13.54
-13.61
-13.47
-13.35
-13.46
-13.95
-14.88
-16.22
-17.82
-19.42
-20.67
-21.20
-20.73
-19.17
-16.67
-13.60
-10.38
-7.39
-4.82
-2.69
-0.87
0.79
2.32
3.67
4.71
5.36
5.61
5.60
5.55
5.62
5.88
6.24
6.60
6.95
7.44
8.36
10.01
12.44
15.43
18.47
20.95
22.46
22.85
22.24
20.88
19.00
16.75
14.25
11.64
9.13
6.94
5.20
3.90
2.90
2.06
1.28
0.63
0.24
0.21
0.55
1.18
1.92
2.60
3.07
3.23
3.02
2.41
1.45
0.24
-1.14
-2.61
-4.06
-5.39
-6.45
-7.00
-6.85
-5.95
-4.50
-2.86
-1.47
-0.58
-0.20
-0.06
0.11
0.54
1.18
1.91
2.58
3.10
3.55
4.01
4.53
5.07
5.55
5.93
6.30
6.77
7.45
8.36
9.34
10.18
10.62
10.53
9.91
8.90
7.71
6.49
5.30
4.11
2.87
1.63
0.48
-0.40
-0.92
-1.08
-1.03
-0.96
-1.02
-1.25
-1.59
-1.93
-2.28
-2.67
-3.27
-4.22
-5.56
-7.22
-9.00
-10.66
-12.01
-12.89
-13.21
-12.93
-12.07
-10.73
-9.06
-7.28
-5.62
-4.23
-3.18
-2.37
-1.70
-1.07
-0.45
0.09
0.47
0.65
0.69
0.72
0.86
1.23
1.86
2.71
3.68
4.65
5.51
6.22
6.76
7.18
7.52
7.83
8.11
8.33
8.42
8.35
8.08
7.62
6.97
6.17
5.26
4.32
3.43
2.64
1.94
1.29
0.61
-0.14
-0.97
-1.84
-2.73
-3.59
-4.44
-5.34
-6.34
-7.47
-8.77
-10.27
-11.97
-13.86
-15.76
-17.32
-18.11
-17.79
-16.25
-13.75
-10.84
-8.10
-5.96
-4.48
-3.41
-2.39
-1.11
0.45
2.15
3.69
4.88
5.62
5.95
5.99
5.85
5.62
5.36
5.17
5.13
5.34
5.90
6.75
7.78
8.81
9.64
10.14
10.33
10.29
10.17
10.10
10.11
10.15
10.11
9.87
9.31
8.43
7.28
6.00
4.73
3.60
2.65
1.82
1.03
0.23
-0.57
-1.31
-1.88
-2.26
-2.54
-2.83
-3.28
-3.92
-4.70
-5.48
-6.20
-6.90
-7.77
-9.00
-10.66
-12.61
-14.51
-15.90
-16.41
-15.94
-14.71
-13.13
-11.64
-10.52
-9.79
-9.26
-8.65
-7.74
-6.47
-4.92
-3.26
-1.69
-0.37
0.63
1.26
1.52
1.49
1.29
1.08
1.07
1.43
2.24
3.44
4.84
6.15
7.11
7.61
7.68
7.48
7.20
6.94
6.77
6.64
6.50
6.28
5.92
5.32
4.48
3.41
2.24
1.13
0.23
-0.40
-0.81
-1.10
-1.38
-1.74
-2.16
-2.63
-3.10
-3.63
-4.24
-4.99
-5.82
-6.66
-7.42
-8.09
-8.79
-9.70
-10.91
-12.34
-13.74
-14.79
-15.31
-15.41
-15.39
-15.58
-16.07
-16.64
-16.74
-15.88
-13.84
-10.81
-7.30
-3.92
-1.11
0.98
2.43
3.52
4.48
5.45
6.44
7.41
8.23
8.85
9.26
9.50
9.59
9.58
9.47
9.34
9.24
9.27
9.50
9.92
10.45
10.94
11.26
11.33
11.17
10.85
10.48
10.23
10.22
10.61
11.43
12.59
13.82
14.78
15.17
14.81
13.78
12.26
10.51
8.70
6.86
4.92
2.77
0.37
-2.21
-4.84
-7.40
-9.79
-11.95
-13.76
-15.08
-15.71
-15.51
-14.48
-12.78
-10.65
-8.34
-5.99
-3.66
-1.38
0.79
2.65
3.98
4.63
4.63
4.21
3.70
3.41
3.48
3.89
4.46
5.02
5.44
5.75
6.07
6.54
7.20
7.97
8.65
9.05
9.09
8.83
8.46
8.11
7.90
7.78
7.62
7.33
6.87
6.30
5.71
5.17
4.71
4.31
3.93
3.49
2.94
2.24
1.41
0.47
-0.51
-1.56
-2.69
-3.98
-5.49
-7.25
-9.26
-11.46
-13.74
-15.88
-17.63
-18.70
-18.85
-18.05
-16.48
-14.50
-12.48
-10.63
-8.94
-7.27
-5.46
-3.48
-1.47
0.35
1.80
2.81
3.47
3.96
4.46
5.08
5.82
6.60
7.30
7.85
8.22
8.45
8.67
8.96
9.38
9.85
10.30
10.61
10.70
10.60
10.37
10.10
9.87
9.73
9.63
9.53
9.36
9.02
8.46
7.65
6.62
5.42
4.09
2.68
1.20
-0.34
-1.87
-3.28
-4.46
-5.33
-5.96
-6.47
-7.05
-7.86
-8.97
-10.35
-11.93
-13.63
-15.37
-17.05
-18.53
-19.63
-20.18
-20.11
-19.46
-18.40
-17.07
-15.57
-13.93
-12.10
-10.08
-7.97
-5.91
-4.12
-2.75
-1.85
-1.32
-1.07
-0.95
-0.89
-0.83
-0.80
-0.77
-0.70
-0.50
-0.05
0.73
1.85
3.17
4.47
5.48
6.01
5.98
5.47
4.68
3.85
3.17
2.73
2.48
2.28
1.91
1.21
0.13
-1.24
-2.68
-3.96
-4.94
-5.57
-5.95
-6.19
-6.37
-6.51
-6.64
-6.81
-7.14
-7.73
-8.55
-9.39
-9.88
-9.61
-8.37
-6.28
-3.81
-1.57
-0.07
0.49
0.25
-0.39
-1.00
-1.37
-1.46
-1.38
-1.26
-1.13
-0.90
-0.47
0.24
1.17
2.21
3.18
3.99
4.61
5.14
5.70
6.44
7.41
8.57
9.80
10.96
11.95
12.78
13.49
14.12
14.67
15.03
15.09
14.78
14.15
13.31
12.38
11.42
10.41
9.25
7.91
6.44
4.96
3.63
2.56
1.74
1.12
0.60
0.10
-0.40
-0.86
-1.29
-1.69
-2.09
-2.53
-3.07
-3.73
-4.60
-5.75
-7.27
-9.12
-11.14
-13.00
-14.31
-14.78
-14.29
-13.00
-11.14
-9.02
-6.85
-4.76
-2.81
-1.06
0.38
1.41
2.02
2.29
2.41
2.59
2.93
3.44
4.05
4.63
5.10
5.48
5.83
6.28
6.95
7.87
8.99
10.16
11.15
11.72
11.75
11.21
10.25
9.07
7.84
6.72
5.79
5.08
4.61
4.36
4.25
4.14
3.85
3.28
2.45
1.52
0.70
0.16
-0.10
-0.28
-0.65
-1.44
-2.79
-4.64
-6.84
-9.23
-11.64
-13.88
-15.73
-16.94
-17.28
-16.72
-15.39
-13.60
-11.69
-9.85
-8.09
-6.26
-4.27
-2.14
-0.04
1.81
3.30
4.44
5.35
6.13
6.78
7.24
7.49
7.58
7.75
8.21
9.06
10.24
11.53
12.71
13.62
14.22
14.53
14.57
14.36
13.94
13.37
12.74
12.10
11.44
10.68
9.73
8.56
7.27
6.01
4.93
4.08
3.39
2.73
1.96
1.00
-0.10
-1.25
-2.33
-3.30
-4.18
-5.05
-5.96
-7.00
-8.22
-9.67
-11.40
-13.43
-15.70
-17.99
-19.92
-21.10
-21.28
-20.44
-18.83
-16.88
-14.97
-13.28
-11.82
-10.47
-9.08
-7.62
-6.11
-4.62
-3.23
-1.96
-0.80
0.27
1.27
2.19
3.03
3.75
4.36
4.88
5.36
5.88
6.47
7.11
7.71
8.15
8.33
8.20
7.73
6.90
5.70
4.19
2.51
0.90
-0.37
-1.15
-1.49
-1.60
-1.73
-2.09
-2.71
-3.51
-4.31
-4.98
-5.47
-5.85
-6.23
-6.71
-7.32
-8.04
-8.74
-9.27
-9.57
-9.66
-9.74
-10.05
-10.77
-11.98
-13.56
-15.29
-16.84
-17.94
-18.34
-17.92
-16.65
-14.63
-12.09
-9.33
-6.62
-4.12
-1.88
0.19
2.13
3.94
5.48
6.61
7.24
7.44
7.41
7.38
7.56
8.00
8.63
9.31
9.93
10.48
10.99
11.58
12.32
13.22
14.21
15.14
15.90
16.36
16.47
16.20
15.60
14.76
13.80
12.83
11.82
10.74
9.46
7.99
6.43
4.99
3.89
3.22
2.93
2.83
2.63
2.15
1.33
0.19
-1.15
-2.58
-4.05
-5.45
-6.73
-7.72
-8.26
-8.22
-7.56
-6.38
-4.88
-3.38
-2.12
-1.22
-0.59
-0.03
0.72
1.77
3.04
4.28
5.19
5.55
5.38
4.90
4.44
4.27
4.47
4.92
5.43
5.84
6.14
6.42
6.78
7.25
7.75
8.12
8.20
7.94
7.41
6.75
6.14
5.66
5.30
4.93
4.42
3.71
2.86
1.99
1.24
0.63
0.10
-0.45
-1.12
-1.91
-2.79
-3.76
-4.83
-6.07
-7.53
-9.20
-10.93
-12.54
-13.76
-14.40
-14.36
-13.68
-12.50
-11.03
-9.48
-8.00
-6.60
-5.18
-3.66
-2.05
-0.45
0.94
1.94
2.44
2.46
2.10
1.55
0.97
0.51
0.25
0.24
0.52
1.14
2.15
3.52
5.17
6.88
8.42
9.61
10.34
10.64
10.59
10.31
9.85
9.22
8.40
7.37
6.17
4.88
3.61
2.51
1.73
1.34
1.29
1.41
1.45
1.15
0.36
-0.84
-2.26
-3.61
-4.62
-5.16
-5.30
-5.22
-5.20
-5.52
-6.36
-7.79
-9.73
-11.96
-14.16
-15.92
-16.86
-16.82
-15.83
-14.21
-12.40
-10.81
-9.65
-8.85
-8.16
-7.28
-6.04
-4.46
-2.73
-1.10
0.28
1.35
2.18
2.94
3.78
4.80
6.02
7.38
8.71
9.90
10.82
11.47
11.87
12.07
12.11
11.95
11.59
11.00
10.20
9.26
8.26
7.27
6.36
5.58
4.92
4.35
3.79
3.19
2.53
1.87
1.33
0.97
0.82
0.77
0.62
0.19
-0.62
-1.84
-3.33
-4.94
-6.54
-8.04
-9.42
-10.67
-11.83
-13.00
-14.32
-15.94
-17.94
-20.25
-22.60
-24.58
-25.77
-25.94
-25.11
-23.57
-21.72
-19.95
-18.42
-17.11
-15.88
-14.56
-13.10
-11.53
-10.00
-8.60
-7.37
-6.27
-5.26
-4.32
-3.48
-2.76
-2.14
-1.53
-0.78
0.23
1.56
3.17
4.92
6.65
8.21
9.54
10.61
11.41
11.94
12.16
12.02
11.53
10.80
9.93
9.05
8.17
7.28
6.31
5.28
4.35
3.71
3.54
3.80
4.25
4.52
4.33
3.64
2.65
1.71
1.09
0.80
0.63
0.25
-0.53
-1.72
-3.14
-4.59
-5.98
-7.41
-9.00
-10.76
-12.47
-13.70
-14.08
-13.46
-12.05
-10.30
-8.68
-7.48
-6.71
-6.21
-5.73
-5.02
-3.67
-1.24
2.74
8.50
15.73
23.60
30.91
36.50
39.70
40.45
39.24
36.77
33.64
30.21
26.67
23.16
19.82
16.81
14.20
11.92
9.75
7.51
5.06
2.47
-0.09
-2.32
-3.99
-5.01
-5.43
-5.42
-5.24
-5.08
-5.05
-5.16
-5.35
-5.57
-5.82
-6.18
-6.77
-7.67
-8.85
-10.20
-11.57
-12.89
-14.13
-15.31
-16.43
-17.38
-17.95
-17.90
-17.12
-15.63
-13.64
-11.43
-9.26
-7.27
-5.44
-3.68
-1.90
-0.14
1.50
2.80
3.66
4.05
4.11
4.04
3.99
4.03
4.10
4.18
4.30
4.56
5.11
5.98
7.06
8.16
9.05
9.61
9.87
9.93
9.90
9.82
9.66
9.37
8.92
8.34
7.75
7.25
6.91
6.70
6.56
6.40
6.20
5.91
5.51
4.92
4.02
2.74
1.10
-0.76
-2.56
-4.05
-5.04
-5.55
-5.69
-5.71
-5.84
-6.24
-6.99
-8.09
-9.43
-10.83
-12.09
-12.99
-13.43
-13.39
-12.93
-12.16
-11.20
-10.14
-9.01
-7.83
-6.61
-5.35
-4.12
-2.97
-1.94
-1.04
-0.25
0.49
1.19
1.93
2.74
3.67
4.72
5.84
6.99
8.13
9.24
10.33
11.35
12.17
12.64
12.64
12.18
11.37
10.43
9.52
8.69
7.96
7.27
6.61
6.02
5.48
4.98
4.42
3.76
2.96
2.12
1.35
0.78
0.47
0.40
0.46
0.48
0.30
-0.19
-1.00
-2.05
-3.26
-4.54
-5.89
-7.36
-8.99
-10.76
-12.60
-14.39
-16.04
-17.48
-18.62
-19.34
-19.53
-19.13
-18.19
-16.90
-15.47
-14.09
-12.86
-11.73
-10.60
-9.38
-8.08
-6.75
-5.49
-4.36
-3.36
-2.50
-1.73
-1.05
-0.48
-0.02
0.31
0.54
0.69
0.80
0.93
1.14
1.48
1.95
2.46
2.90
3.13
3.11
2.85
2.44
1.99
1.55
1.10
0.61
0.10
-0.35
-0.68
-0.81
-0.82
-0.79
-0.82
-0.93
-1.03
-1.02
-0.84
-0.56
-0.26
-0.07
-0.05
-0.20
-0.50
-0.90
-1.41
-2.03
-2.73
-3.53
-4.43
-5.49
-6.75
-8.19
-9.69
-11.02
-11.92
-12.18
-11.72
-10.64
-9.17
-7.52
-5.84
-4.18
-2.48
-0.68
1.23
3.15
4.92
6.36
7.33
7.80
7.88
7.73
7.57
7.58
7.83
8.32
8.96
9.65
10.36
11.13
12.02
13.03
14.07
14.95
15.49
15.56
15.18
14.45
13.53
12.57
11.67
10.88
10.22
9.72
9.31
8.91
8.45
7.80
6.97
6.02
5.11
4.37
3.86
3.49
3.09
2.44
1.40
-0.04
-1.80
-3.71
-5.59
-7.25
-8.54
-9.34
-9.56
-9.25
-8.53
-7.66
-6.84
-6.19
-5.65
-5.07
-4.27
-3.19
-1.96
-0.84
-0.12
-0.00
-0.49
-1.41
-2.45
-3.29
-3.73
-3.66
-3.16
-2.41
-1.65
-1.10
-0.87
-0.99
-1.37
-1.87
-2.29
-2.46
-2.22
-1.51
-0.32
1.21
2.83
4.30
5.41
6.03
6.18
5.95
5.50
4.97
4.49
4.16
3.98
3.94
3.91
3.78
3.45
2.87
2.12
1.34
0.64
0.12
-0.21
-0.41
-0.55
-0.72
-0.99
-1.44
-2.13
-3.15
-4.52
-6.25
-8.26
-10.39
-12.39
-13.96
-14.82
-14.85
-14.05
-12.62
-10.85
-8.99
-7.19
-5.48
-3.82
-2.16
-0.49
1.13
2.57
3.73
4.54
5.04
5.31
5.49
5.69
6.00
6.42
6.91
7.42
7.88
8.29
8.67
9.06
9.48
9.91
10.26
10.43
10.35
10.01
9.45
8.80
8.17
7.63
7.17
6.75
6.28
5.71
5.01
4.18
3.27
2.26
1.17
0.02
-1.16
-2.31
-3.37
-4.36
-5.31
-6.26
-7.27
-8.39
-9.64
-11.08
-12.68
-14.32
-15.74
-16.67
-16.82
-16.11
-14.69
-12.89
-11.07
-9.45
-8.05
-6.72
-5.32
-3.79
-2.26
-0.89
0.22
1.11
1.94
2.93
4.16
5.54
6.85
7.81
8.29
8.34
8.16
8.02
8.14
8.57
9.22
9.89
10.33
10.39
10.02
9.28
8.31
7.25
6.21
5.26
4.39
3.60
2.85
2.14
1.47
0.84
0.23
-0.39
-1.09
-1.92
-2.88
-3.92
-5.00
-6.02
-6.97
-7.87
-8.79
-9.77
-10.88
-12.17
-13.66
-15.35
-17.22
-19.15
-20.99
-22.52
-23.54
-23.91
-23.58
-22.61
-21.18
-19.46
-17.61
-15.75
-13.85
-11.90
-9.90
-7.94
-6.18
-4.82
-3.93
-3.43
-3.10
-2.63
-1.81
-0.56
0.99
2.67
4.30
5.80
7.19
8.50
9.72
10.83
11.75
12.44
12.92
13.31
13.74
14.34
15.09
15.86
16.41
16.55
16.19
15.41
14.37
13.28
12.27
11.33
10.39
9.41
8.42
7.52
6.85
6.45
6.26
6.14
5.88
5.35
4.56
3.57
2.48
1.36
0.20
-1.02
-2.26
-3.36
-4.16
-4.49
-4.38
-3.98
-3.49
-3.08
-2.78
-2.45
-1.90
-1.01
0.17
1.46
2.62
3.48
3.98
4.20
4.27
4.34
4.49
4.74
5.08
5.50
6.01
6.61
7.33
8.19
9.16
10.24
11.31
12.18
12.58
12.24
11.05
9.14
6.92
4.89
3.44
2.69
2.44
2.33
2.05
1.46
0.64
-0.20
-0.90
-1.42
-1.83
-2.27
-2.87
-3.65
-4.59
-5.65
-6.79
-8.02
-9.35
-10.75
-12.10
-13.22
-13.87
-13.86
-13.18
-11.94
-10.38
-8.76
-7.21
-5.73
-4.21
-2.58
-0.89
0.68
1.88
2.52
2.61
2.33
2.00
1.88
2.11
2.66
3.37
4.07
4.67
5.22
5.83
6.57
7.44
8.32
9.07
9.53
9.66
9.49
9.10
8.60
8.04
7.47
6.89
6.27
5.63
4.96
4.32
3.75
3.29
2.91
2.54
2.08
1.45
0.63
-0.26
-1.11
-1.78
-2.23
-2.50
-2.73
-3.07
-3.71
-4.77
-6.29
-8.16
-10.20
-12.15
-13.75
-14.77
-15.10
-14.77
-13.92
-12.77
-11.47
-10.10
-8.68
-7.16
-5.52
-3.77
-2.01
-0.33
1.16
2.37
3.26
3.81
4.08
4.17
4.22
4.36
4.62
4.96
5.31
5.62
5.96
6.47
7.24
8.22
9.19
9.87
10.05
9.65
8.82
7.79
6.78
5.94
5.26
4.69
4.22
3.88
3.77
3.93
4.32
4.80
5.16
5.29
5.11
4.64
3.92
2.95
1.73
0.25
-1.38
-2.96
-4.28
-5.22
-5.82
-6.28
-6.87
-7.75
-8.89
-10.15
-11.33
-12.31
-13.12
-13.84
-14.54
-15.18
-15.60
-15.57
-15.01
-14.01
-12.77
-11.55
-10.49
-9.61
-8.78
-7.90
-6.90
-5.83
-4.79
-3.87
-3.11
-2.48
-1.95
-1.52
-1.21
-1.09
-1.11
-1.21
-1.23
-1.08
-0.70
-0.16
0.44
0.94
1.28
1.47
1.55
1.53
1.37
1.01
0.40
-0.41
-1.26
-1.98
-2.43
-2.57
-2.44
-2.12
-1.65
-1.04
-0.29
0.54
1.32
1.87
2.07
1.89
1.45
0.92
0.46
0.13
-0.10
-0.30
-0.54
-0.83
-1.18
-1.63
-2.23
-3.06
-4.12
-5.35
-6.58
-7.64
-8.34
-8.64
-8.57
-8.21
-7.64
-6.91
-6.04
-5.03
-3.86
-2.50
-0.90
0.94
2.97
5.05
6.96
8.53
9.70
10.53
11.20
11.87
12.62
13.42
14.15
14.69
14.94
14.86
14.49
13.91
13.18
12.38
11.52
10.60
9.60
8.57
7.59
6.74
6.13
5.75
5.50
5.28
5.04
4.81
4.67
4.69
4.81
4.87
4.70
4.19
3.38
2.42
1.56
0.95
0.65
0.58
0.56
0.41
0.00
-0.74
-1.88
-3.45
-5.50
-7.90
-10.35
-12.36
-13.42
-13.19
-11.71
-9.36
-6.72
-4.36
-2.58
-1.42
-0.69
-0.19
0.19
0.44
0.50
0.37
0.09
-0.18
-0.27
-0.06
0.46
1.22
2.15
3.12
4.12
5.21
6.49
8.00
9.67
11.29
12.54
13.14
12.94
12.01
10.62
9.13
7.74
6.55
5.46
4.35
3.22
2.15
1.32
0.87
0.81
1.01
1.26
1.39
1.32
1.05
0.64
0.12
-0.58
-1.50
-2.70
-4.10
-5.51
-6.72
-7.60
-8.20
-8.71
-9.42
-10.53
-12.04
-13.75
-15.31
-16.42
-16.94
-16.90
-16.46
-15.80
-14.99
-14.00
-12.74
-11.21
-9.45
-7.63
-5.92
-4.43
-3.18
-2.14
-1.22
-0.39
0.31
0.89
1.39
1.95
2.72
3.73
4.89
6.01
6.85
7.32
7.47
7.47
7.52
7.69
7.91
8.03
7.93
7.60
7.15
6.78
6.61
6.66
6.87
7.10
7.23
7.18
6.93
6.46
5.77
4.91
3.91
2.88
1.86
0.86
-0.12
-1.17
-2.27
-3.41
-4.48
-5.38
-6.13
-6.81
-7.61
-8.71
-10.15
-11.85
-13.61
-15.21
-16.48
-17.32
-17.74
-17.78
-17.49
-16.91
-16.09
-15.09
-14.01
-12.90
-11.75
-10.44
-8.89
-7.03
-4.99
-3.00
-1.38
-0.35
0.05
0.00
-0.18
-0.19
0.16
0.87
1.81
2.81
3.74
4.51
5.09
5.45
5.58
5.51
5.26
4.87
4.37
3.76
3.03
2.17
1.22
0.19
-0.90
-2.07
-3.35
-4.74
-6.14
-7.38
-8.31
-8.82
-9.01
-9.06
-9.20
-9.57
-10.21
-11.09
-12.14
-13.35
-14.70
-16.12
-17.48
-18.64
-19.61
-20.55
-21.77
-23.65
-26.33
-29.68
-33.29
-36.63
-39.24
-40.85
-41.46
-41.25
-40.51
-39.59
-38.76
-38.05
-37.21
-35.44
-31.55
-24.29
-12.88
2.46
20.37
38.64
54.99
67.76
76.35
81.02
82.44
81.38
78.62
75.24
72.76
72.84
76.60
83.87
93.00
101.43
106.71
107.32
103.02
94.49
82.63
68.31
52.25
35.49
19.36
5.41
-5.23
-12.26
-16.33
-18.72
-20.72
-23.23
-26.50
-30.23
-33.80
-36.60
-38.18
-38.40
-37.50
-36.00
-34.48
-33.43
-33.04
-33.20
-33.65
-34.01
-34.03
-33.54
-32.51
-30.94
-28.91
-26.54
-23.99
-21.47
-19.18
-17.29
-15.94
-15.17
-14.91
-14.99
-15.07
-14.78
-13.78
-11.88
-9.02
-5.34
-1.07
3.54
8.21
12.66
16.67
20.02
22.57
24.31
25.33
25.82
26.11
26.58
27.64
29.55
32.29
35.43
38.13
39.32
37.96
33.29
25.06
13.56
-0.32
-15.28
-29.68
-41.88
-50.55
-54.99
-55.24
-52.03
-46.43
-39.52
-32.18
-25.11
-18.85
-13.90
-10.58
-8.87
-8.32
-8.06
-7.17
-5.02
-1.58
2.62
6.76
10.10
12.29
13.37
13.71
13.67
13.55
13.45
13.40
13.39
13.46
13.64
13.90
14.18
14.31
14.11
13.42
12.14
10.26
7.89
5.23
2.58
0.25
-1.51
-2.64
-3.19
-3.35
-3.30
-3.16
-2.98
-2.82
-2.85
-3.31
-4.46
-6.45
-9.17
-12.26
-15.18
-17.43
-18.70
-18.95
-18.37
-17.30
-16.01
-14.71
-13.50
-12.41
-11.42
-10.48
-9.54
-8.52
-7.39
-6.20
-5.02
-3.95
-2.94
-1.85
-0.44
1.43
3.78
6.42
9.05
11.42
13.41
15.06
16.44
17.59
18.41
18.73
18.41
17.41
15.93
14.27
12.80
11.77
11.28
11.17
11.16
10.95
10.32
9.20
7.72
6.08
4.39
2.68
0.92
-0.94
-2.85
-4.63
-6.07
-6.95
-7.14
-6.61
-5.41
-3.66
-1.52
0.87
3.36
5.79
8.04
9.92
11.21
11.70
11.26
9.96
8.10
6.14
4.48
3.37
2.78
2.49
2.23
1.79
1.12
0.28
-0.60
-1.43
-2.19
-2.92
-3.67
-4.47
-5.34
-6.23
-7.05
-7.69
-8.08
-8.22
-8.20
-8.12
-8.07
-8.10
-8.21
-8.39
-8.68
-9.11
-9.69
-10.35
-10.95
-11.28
-11.19
-10.66
-9.89
-9.18
-8.83
-9.05
-9.83
-11.05
-12.50
-13.96
-15.19
-15.96
-16.02
-15.16
-13.32
-10.66
-7.58
-4.55
-2.01
-0.17
1.05
1.90
2.67
3.58
4.63
5.68
6.47
6.87
6.83
6.49
6.04
5.71
5.61
5.75
6.05
6.41
6.80
7.24
7.82
8.57
9.43
10.23
10.78
10.94
10.70
10.17
9.45
8.63
7.69
6.61
5.43
4.25
3.24
2.50
2.01
1.63
1.18
0.61
0.02
-0.44
-0.62
-0.52
-0.28
-0.15
-0.30
-0.83
-1.75
-3.06
-4.77
-6.92
-9.46
-12.17
-14.66
-16.43
-17.07
-16.40
-14.57
-11.99
-9.21
-6.73
-4.84
-3.57
-2.74
-2.03
-1.19
-0.07
1.24
2.55
3.63
4.37
4.79
5.02
5.21
5.45
5.74
6.00
6.16
6.21
6.16
6.05
5.93
5.81
5.64
5.39
4.97
4.36
3.59
2.78
2.11
1.72
1.65
1.83
2.11
2.34
2.42
2.33
2.05
1.66
1.20
0.79
0.50
0.41
0.49
0.64
0.75
0.74
0.63
0.50
0.39
0.25
-0.09
-0.77
-1.92
-3.48
-5.27
-7.01
-8.40
-9.17
-9.15
-8.30
-6.75
-4.76
-2.67
-0.79
0.66
1.63
2.23
2.61
2.97
3.43
4.04
4.79
5.61
6.42
7.12
7.63
7.91
8.01
8.00
8.03
8.22
8.62
9.20
9.87
10.49
10.95
11.18
11.15
10.89
10.46
9.92
9.36
8.83
8.36
7.92
7.46
6.86
6.05
4.96
3.64
2.21
0.89
-0.10
-0.64
-0.74
-0.58
-0.40
-0.44
-0.86
-1.70
-2.97
-4.57
-6.38
-8.17
-9.71
-10.69
-10.94
-10.40
-9.20
-7.58
-5.83
-4.22
-2.96
-2.09
-1.57
-1.21
-0.81
-0.25
0.50
1.29
1.97
2.40
2.56
2.50
2.35
2.18
2.00
1.78
1.50
1.15
0.82
0.62
0.63
0.88
1.30
1.73
2.04
2.10
1.91
1.53
1.15
0.93
0.94
1.16
1.41
1.54
1.39
0.95
0.30
-0.42
-1.06
-1.53
-1.85
-2.08
-2.33
-2.71
-3.30
-4.13
-5.17
-6.27
-7.20
-7.68
-7.50
-6.60
-5.16
-3.51
-2.06
-1.05
-0.50
-0.27
-0.12
0.09
0.36
0.51
0.39
-0.10
-0.86
-1.67
-2.28
-2.50
-2.30
-1.76
-0.99
-0.12
0.82
1.81
2.84
3.85
4.73
5.34
5.58
5.45
5.07
4.62
4.25
4.00
3.84
3.67
3.42
3.14
2.93
2.86
2.94
3.02
2.89
2.35
1.38
0.11
-1.23
-2.41
-3.32
-3.99
-4.52
-5.00
-5.43
-5.79
-6.10
-6.45
-7.01
-7.91
-9.12
-10.38
-11.29
-11.46
-10.66
-8.96
-6.71
-4.40
-2.50
-1.29
-0.78
-0.72
-0.75
-0.57
-0.02
0.84
1.78
2.57
3.02
3.06
2.72
2.10
1.33
0.62
0.12
-0.03
0.22
0.79
1.51
2.18
2.68
2.93
2.98
2.87
2.68
2.41
2.11
1.83
1.64
1.60
1.68
1.83
1.97
2.04
2.06
2.07
2.14
2.30
2.49
2.64
2.63
2.37
1.85
1.11
0.26
-0.61
-1.38
-2.02
-2.51
-2.91
-3.30
-3.78
-4.40
-5.16
-6.01
-6.87
-7.68
-8.43
-9.16
-9.91
-10.68
-11.35
-11.69
-11.45
-10.49
-8.86
-6.85
-4.88
-3.30
-2.25
-1.64
-1.20
-0.70
-0.07
0.62
1.16
1.41
1.36
1.12
0.84
0.62
0.46
0.31
0.10
-0.16
-0.40
-0.49
-0.34
0.08
0.71
1.44
2.11
2.59
2.82
2.76
2.48
2.08
1.69
1.38
1.17
1.00
0.79
0.50
0.19
-0.04
-0.09
0.10
0.43
0.76
0.95
0.95
0.80
0.59
0.44
0.40
0.49
0.64
0.75
0.70
0.39
-0.19
-0.95
-1.73
-2.37
-2.82
-3.19
-3.68
-4.45
-5.57
-6.96
-8.52
-10.13
-11.71
-13.15
-14.30
-14.89
-14.72
-13.69
-11.97
-9.91
-7.94
-6.37
-5.34
-4.76
-4.44
-4.17
-3.80
-3.32
-2.76
-2.23
-1.85
-1.67
-1.68
-1.75
-1.70
-1.33
-0.55
0.62
2.00
3.42
4.72
5.84
6.85
7.80
8.71
9.49
9.97
10.04
9.71
9.11
8.47
8.02
7.81
7.82
7.90
7.94
7.90
7.85
7.86
7.99
8.21
8.50
8.74
8.89
8.88
8.68
8.28
7.68
6.87
5.89
4.81
3.72
2.68
1.74
0.87
-0.07
-1.21
-2.65
-4.32
-5.95
-7.16
-7.55
-6.93
-5.41
-3.40
-1.41
0.16
1.13
1.56
1.64
1.53
1.32
1.01
0.62
0.20
-0.13
-0.30
-0.30
-0.19
-0.04
0.12
0.31
0.60
0.99
1.46
1.97
2.49
3.03
3.63
4.22
4.71
4.96
4.88
4.54
4.06
3.63
3.35
3.22
3.14
2.98
2.66
2.19
1.61
1.02
0.53
0.18
-0.05
-0.21
-0.44
-0.82
-1.38
-2.07
-2.81
-3.49
-4.07
-4.55
-5.02
-5.57
-6.26
-7.15
-8.23
-9.41
-10.54
-11.38
-11.70
-11.35
-10.37
-8.97
-7.45
-6.07
-4.91
-3.92
-3.00
-2.05
-1.09
-0.21
0.45
0.77
0.70
0.28
-0.37
-1.07
-1.60
-1.79
-1.60
-1.10
-0.43
0.24
0.84
1.41
2.03
2.72
3.41
3.98
4.28
4.29
4.10
3.84
3.64
3.52
3.46
3.39
3.27
3.15
3.09
3.15
3.35
3.63
3.88
4.02
3.97
3.70
3.21
2.55
1.79
1.02
0.32
-0.27
-0.76
-1.22
-1.73
-2.37
-3.15
-4.05
-4.99
-5.95
-6.95
-8.10
-9.48
-11.08
-12.71
-14.08
-14.82
-14.69
-13.68
-11.94
-9.79
-7.55
-5.52
-3.88
-2.68
-1.91
-1.43
-1.09
-0.72
-0.24
0.37
1.01
1.56
1.90
1.99
1.86
1.63
1.49
1.60
2.08
2.93
4.02
5.14
6.07
6.67
6.96
7.09
7.20
7.39
7.63
7.78
7.69
7.32
6.75
6.17
5.74
5.55
5.55
5.62
5.60
5.41
5.05
4.53
3.88
3.13
2.31
1.50
0.84
0.42
0.27
0.28
0.28
0.03
-0.55
-1.45
-2.49
-3.49
-4.32
-5.00
-5.66
-6.53
-7.73
-9.30
-11.09
-12.91
-14.48
-15.57
-15.99
-15.61
-14.38
-12.37
-9.78
-6.91
-4.12
-1.74
0.05
1.23
1.89
2.08
1.82
1.02
-0.37
-2.25
-4.31
-6.10
-7.21
-7.44
-6.89
-5.82
-4.57
-3.32
-2.08
-0.70
0.90
2.70
4.55
6.24
7.58
8.48
8.95
9.07
8.97
8.79
8.68
8.72
8.87
9.03
9.06
8.93
8.68
8.39
8.13
7.90
7.55
6.96
6.05
4.94
3.85
2.95
2.26
1.61
0.75
-0.54
-2.24
-4.11
-5.83
-7.19
-8.19
-9.01
-9.96
-11.27
-13.00
-15.08
-17.32
-19.52
-21.46
-22.84
-23.40
-22.90
-21.30
-18.77
-15.70
-12.51
-9.52
-6.86
-4.52
-2.46
-0.69
0.73
1.72
2.28
2.58
2.81
3.16
3.70
4.37
5.08
5.73
6.38
7.14
8.18
9.63
11.49
13.58
15.60
17.19
18.12
18.30
17.91
17.25
16.63
16.24
16.03
15.85
15.51
14.90
14.05
13.04
12.01
11.06
10.23
9.57
9.08
8.73
8.47
8.19
7.78
7.15
6.31
5.33
4.30
3.33
2.43
1.56
0.57
-0.65
-2.18
-4.07
-6.27
-8.67
-11.11
-13.34
-15.08
-16.04
-16.01
-14.93
-12.92
-10.28
-7.39
-4.61
-2.22
-0.31
1.16
2.30
3.24
4.04
4.64
5.01
5.09
4.98
4.85
4.94
5.39
6.22
7.29
8.44
9.54
10.53
11.40
12.13
12.62
12.77
12.50
11.85
10.93
9.88
8.80
7.74
6.67
5.54
4.35
3.15
2.02
1.06
0.35
-0.14
-0.47
-0.72
-1.02
-1.44
-2.00
-2.68
-3.44
-4.28
-5.22
-6.32
-7.64
-9.22
-11.05
-13.11
-15.39
-17.84
-20.36
-22.73
-24.59
-25.50
-25.14
-23.43
-20.53
-16.87
-12.88
-8.94
-5.27
-1.97
0.87
3.21
4.97
6.23
7.14
7.91
8.69
9.50
10.23
10.76
11.07
11.25
11.48
11.88
12.43
13.02
13.49
13.79
13.99
14.20
14.48
14.71
14.67
14.13
13.01
11.44
9.76
8.29
7.26
6.64
6.26
5.86
5.29
4.49
3.54
2.53
1.53
0.56
-0.43
-1.49
-2.64
-3.87
-5.12
-6.36
-7.56
-8.75
-10.01
-11.44
-13.12
-15.08
-17.31
-19.79
-22.47
-25.16
-27.55
-29.13
-29.39
-27.99
-24.98
-20.77
-16.04
-11.39
-7.18
-3.46
-0.13
2.90
5.57
7.71
9.13
9.78
9.79
9.40
8.91
8.57
8.51
8.79
9.38
10.22
11.19
12.16
13.07
13.91
14.66
15.30
15.76
15.96
15.85
15.44
14.78
13.99
13.15
12.28
11.36
10.35
9.22
8.00
6.75
5.52
4.35
3.25
2.21
1.20
0.20
-0.83
-1.89
-2.97
-4.05
-5.16
-6.31
-7.61
-9.12
-10.87
-12.88
-15.11
-17.51
-20.06
-22.74
-25.47
-28.05
-30.12
-31.27
-31.13
-29.58
-26.74
-22.97
-18.74
-14.48
-10.49
-6.92
-3.84
-1.31
0.61
1.88
2.55
2.85
3.09
3.61
4.60
6.03
7.66
9.20
10.43
11.35
12.16
13.14
14.44
15.98
17.48
18.54
18.91
18.57
17.74
16.73
15.84
15.20
14.77
14.40
13.95
13.33
12.54
11.66
10.78
10.00
9.32
8.70
8.01
7.14
6.03
4.73
3.39
2.15
1.12
0.28
-0.49
-1.38
-2.52
-3.98
-5.83
-8.10
-10.79
-13.73
-16.55
-18.65
-19.42
-18.50
-15.92
-12.20
-8.06
-4.19
-0.97
1.58
3.66
5.43
6.91
8.04
8.74
9.07
9.22
9.42
9.78
10.30
10.88
11.39
11.83
12.20
12.59
13.02
13.50
13.99
14.47
14.88
15.11
15.02
14.44
13.30
11.62
9.57
7.41
5.37
3.57
2.04
0.71
-0.47
-1.55
-2.55
-3.50
-4.45
-5.44
-6.45
-7.46
-8.37
-9.21
-10.04
-11.03
-12.32
-14.05
-16.22
-18.71
-21.22
-23.31
-24.46
-24.18
-22.26
-18.84
-14.44
-9.77
-5.50
-1.99
0.72
2.86
4.68
6.30
7.67
8.63
9.10
9.10
8.81
8.44
8.18
8.11
8.20
8.42
8.75
9.25
10.00
11.06
12.34
13.61
14.55
14.87
14.45
13.43
12.11
10.84
9.81
9.04
8.35
7.53
6.48
5.26
4.06
3.02
2.16
1.32
0.26
-1.20
-3.03
-5.05
-6.96
-8.51
-9.64
-10.44
-11.11
-11.84
-12.74
-13.92
-15.44
-17.40
-19.82
-22.54
-25.15
-27.05
-27.66
-26.61
-23.95
-20.14
-15.85
-11.74
-8.17
-5.24
-2.79
-0.61
1.42
3.29
4.90
6.17
7.08
7.72
8.23
8.71
9.22
9.72
10.18
10.58
10.96
11.42
12.07
12.92
13.85
14.70
15.23
15.29
14.86
14.04
13.01
11.97
11.04
10.29
9.68
9.15
8.62
8.01
7.26
6.34
5.28
4.15
3.05
2.09
1.25
0.44
-0.48
-1.66
-3.11
-4.73
-6.36
-7.85
-9.20
-10.51
-11.99
-13.80
-16.01
-18.59
-21.41
-24.27
-26.90
-28.97
-30.13
-30.09
-28.74
-26.21
-22.84
-19.04
-15.20
-11.57
-8.27
-5.34
-2.83
-0.78
0.75
1.76
2.29
2.46
2.45
2.44
2.57
2.96
3.60
4.43
5.31
6.12
6.81
7.46
8.20
9.15
10.32
11.60
12.77
13.61
14.01
13.98
13.61
13.05
12.42
11.75
11.03
10.21
9.27
8.21
7.11
6.10
5.27
4.70
4.35
4.05
3.65
2.99
2.05
0.91
-0.28
-1.39
-2.35
-3.19
-3.99
-4.87
-5.93
-7.23
-8.78
-10.55
-12.49
-14.41
-16.08
-17.21
-17.47
-16.69
-14.84
-12.10
-8.74
-5.09
-1.40
2.14
5.37
8.16
10.30
11.63
12.12
11.91
11.29
10.63
10.20
10.12
10.29
10.49
10.53
10.31
9.91
9.49
9.25
9.28
9.55
9.95
10.32
10.58
10.68
10.60
10.34
9.84
9.06
7.99
6.70
5.33
4.02
2.91
2.02
1.27
0.50
-0.43
-1.64
-3.11
-4.68
-6.10
-7.19
-7.88
-8.35
-8.92
-9.90
-11.50
-13.69
-16.18
-18.52
-20.22
-20.94
-20.51
-18.99
-16.60
-13.60
-10.23
-6.72
-3.24
0.01
2.84
5.10
6.68
7.62
8.05
8.11
7.99
7.80
7.67
7.68
7.89
8.32
8.90
9.50
9.98
10.29
10.42
10.42
10.34
10.14
9.79
9.25
8.55
7.81
7.15
6.67
6.36
6.12
5.80
5.29
4.55
3.65
2.69
1.82
1.12
0.59
0.14
-0.36
-1.11
-2.23
-3.76
-5.60
-7.54
-9.34
-10.79
-11.88
-12.73
-13.63
-14.82
-16.46
-18.52
-20.76
-22.76
-24.11
-24.42
-23.55
-21.53
-18.62
-15.14
-11.41
-7.70
-4.20
-1.10
1.48
3.42
4.72
5.52
6.01
6.39
6.77
7.19
7.61
7.98
8.32
8.62
8.91
9.18
9.45
9.74
10.14
10.68
11.34
12.01
12.52
12.74
12.67
12.40
12.06
11.74
11.38
10.88
10.14
9.14
8.02
6.89
5.86
4.93
4.00
2.94
1.70
0.30
-1.19
-2.65
-4.08
-5.47
-6.83
-8.12
-9.26
-10.15
-10.76
-11.24
-11.82
-12.80
-14.39
-16.66
-19.46
-22.54
-25.55
-28.12
-29.90
-30.58
-29.99
-28.16
-25.32
-21.87
-18.20
-14.59
-11.14
-7.88
-4.82
-2.11
0.05
1.44
2.02
1.95
1.64
1.49
1.80
2.66
3.90
5.23
6.35
7.05
7.28
7.22
7.34
8.34
10.98
15.68
22.22
29.61
36.34
40.87
42.28
40.56
36.52
31.36
26.13
21.39
17.25
13.53
10.08
6.92
4.14
1.77
-0.26
-2.17
-4.16
-6.31
-8.51
-10.47
-11.90
-12.59
-12.56
-12.06
-11.52
-11.37
-11.95
-13.34
-15.43
-17.96
-20.58
-22.94
-24.70
-25.54
-25.28
-23.80
-21.17
-17.58
-13.35
-8.83
-4.43
-0.46
2.84
5.40
7.24
8.50
9.35
9.91
10.25
10.34
10.19
9.88
9.54
9.37
9.52
10.05
10.90
11.94
12.99
13.91
14.56
14.82
14.63
13.98
13.00
11.89
10.91
10.27
10.00
9.97
9.94
9.64
8.86
7.55
5.81
3.86
1.96
0.28
-1.08
-2.16
-3.11
-4.09
-5.28
-6.85
-8.86
-11.35
-14.26
-17.38
-20.38
-22.77
-24.08
-24.00
-22.49
-19.85
-16.61
-13.31
-10.35
-7.85
-5.68
-3.64
-1.60
0.40
2.19
3.56
4.45
4.89
5.06
5.16
5.36
5.73
6.28
6.96
7.72
8.48
9.15
9.65
9.84
9.64
9.01
8.03
6.88
5.86
5.19
4.94
4.95
4.90
4.49
3.59
2.35
1.16
0.38
0.21
0.56
1.10
1.49
1.54
1.25
0.83
0.47
0.26
0.10
-0.17
-0.78
-1.91
-3.62
-5.96
-8.92
-12.40
-16.16
-19.74
-22.51
-23.85
-23.41
-21.26
-17.87
-13.95
-10.18
-6.93
-4.26
-1.97
0.12
2.08
3.81
5.14
6.05
6.67
7.27
8.05
9.07
10.13
10.96
11.35
11.27
10.95
10.68
10.73
11.16
11.85
12.54
12.97
12.96
12.46
11.54
10.34
9.01
7.69
6.46
5.32
4.23
3.18
2.15
1.17
0.27
-0.55
-1.32
-2.07
-2.82
-3.55
-4.24
-4.87
-5.51
-6.29
-7.34
-8.75
-10.42
-12.17
-13.74
-14.96
-15.88
-16.73
-17.86
-19.51
-21.72
-24.15
-26.24
-27.38
-27.13
-25.41
-22.52
-18.95
-15.24
-11.74
-8.60
-5.73
-3.03
-0.41
2.04
4.19
5.88
7.04
7.65
7.81
7.58
7.08
6.45
5.89
5.62
5.77
6.37
7.32
8.39
9.31
9.90
10.04
9.73
9.07
8.24
7.41
6.73
6.30
6.14
6.16
6.18
6.04
5.60
4.88
3.98
3.12
2.48
2.16
2.09
2.05
1.80
1.17
0.17
-1.05
-2.26
-3.25
-3.98
-4.56
-5.14
-5.86
-6.77
-7.87
-9.15
-10.65
-12.43
-14.44
-16.47
-18.14
-18.99
-18.72
-17.29
-14.96
-12.13
-9.16
-6.20
-3.28
-0.34
2.58
5.33
7.67
9.44
10.66
11.48
12.10
12.67
13.19
13.59
13.76
13.75
13.68
13.70
13.91
14.28
14.69
14.99
15.07
14.88
14.45
13.79
12.92
11.83
10.60
9.38
8.37
7.73
7.46
7.42
7.35
6.95
6.04
4.60
2.78
0.81
-1.06
-2.66
-3.97
-5.06
-6.13
-7.39
-9.05
-11.18
-13.69
-16.28
-18.53
-20.00
-20.35
-19.48
-17.51
-14.73
-11.50
-8.20
-5.10
-2.40
-0.14
1.67
3.11
4.33
5.42
6.46
7.44
8.27
8.84
9.09
9.03
8.79
8.54
8.43
8.60
9.03
9.63
10.21
10.61
10.75
10.64
10.35
9.93
9.39
8.69
7.78
6.69
5.51
4.40
3.48
2.70
1.94
0.98
-0.30
-1.89
-3.62
-5.30
-6.75
-7.95
-8.97
-9.93
-10.86
-11.80
-12.76
-13.83
-15.14
-16.87
-19.06
-21.44
-23.50
-24.60
-24.18
-22.06
-18.48
-14.08
-9.61
-5.72
-2.70
-0.54
1.00
2.20
3.30
4.36
5.36
6.23
6.94
7.50
7.97
8.40
8.85
9.32
9.78
10.26
10.81
11.49
12.32
13.22
13.99
14.39
14.26
13.59
12.58
11.47
10.51
9.79
9.21
8.59
7.73
6.55
5.15
3.68
2.31
1.13
0.13
-0.82
-1.84
-3.05
-4.46
-5.98
-7.49
-8.88
-10.07
-11.13
-12.18
-13.42
-15.03
-17.08
-19.48
-22.01
-24.39
-26.34
-27.60
-27.99
-27.39
-25.76
-23.23
-20.02
-16.46
-12.84
-9.38
-6.18
-3.29
-0.77
1.31
2.82
3.71
4.06
4.03
3.86
3.80
4.02
4.61
5.58
6.86
8.33
9.81
11.13
12.13
12.75
13.01
13.00
12.84
12.64
12.39
12.07
11.61
10.98
10.22
9.41
8.64
7.97
7.38
6.85
6.31
5.72
5.02
4.19
3.21
2.13
1.02
0.01
-0.79
-1.33
-1.65
-1.90
-2.27
-2.91
-3.87
-5.12
-6.55
-8.11
-9.69
-11.16
-12.30
-12.79
-12.34
-10.79
-8.25
-5.05
-1.61
1.68
4.55
6.94
8.81
10.14
10.85
10.89
10.33
9.33
8.20
7.28
6.79
6.77
7.11
7.61
8.12
8.55
8.92
9.29
9.66
9.96
10.05
9.85
9.31
8.49
7.50
6.41
5.32
4.27
3.34
2.56
1.93
1.35
0.69
-0.13
-1.10
-2.09
-2.96
-3.62
-4.16
-4.76
-5.67
-7.05
-8.98
-11.44
-14.28
-17.27
-20.06
-22.18
-23.18
-22.78
-20.97
-18.04
-14.48
-10.78
-7.30
-4.18
-1.40
1.06
3.22
5.02
6.43
7.48
8.30
8.99
9.64
10.19
10.55
10.64
10.47
10.15
9.82
9.59
9.51
9.59
9.83
10.22
10.75
11.29
11.67
11.69
11.24
10.39
9.34
8.34
7.60
7.15
6.93
6.77
6.53
6.08
5.36
4.37
3.12
1.70
0.21
-1.27
-2.68
-3.97
-5.15
-6.25
-7.31
-8.46
-9.83
-11.56
-13.68
-16.10
-18.49
-20.42
-21.43
-21.21
-19.74
-17.27
-14.25
-11.18
-8.37
-5.95
-3.82
-1.84
0.07
1.81
3.20
4.08
4.43
4.40
4.21
4.05
4.04
4.18
4.45
4.85
5.40
6.15
7.06
8.05
9.00
9.84
10.51
11.02
11.34
11.37
11.07
10.43
9.60
8.80
8.22
7.91
7.75
7.46
6.84
5.82
4.53
3.23
2.15
1.39
0.88
0.49
0.08
-0.49
-1.32
-2.47
-3.99
-5.86
-7.99
-10.21
-12.30
-14.11
-15.57
-16.76
-17.85
-19.01
-20.41
-22.04
-23.78
-25.36
-26.38
-26.47
-25.38
-23.13
-19.98
-16.38
-12.82
-9.60
-6.86
-4.52
-2.49
-0.70
0.81
2.00
2.79
3.24
3.46
3.61
3.82
4.18
4.69
5.33
6.06
6.81
7.57
8.38
9.26
10.21
11.13
11.88
12.31
12.34
12.02
11.50
10.96
10.54
10.27
10.03
9.66
9.02
8.08
6.90
5.63
4.44
3.41
2.57
1.85
1.20
0.60
0.13
-0.18
-0.31
-0.32
-0.35
-0.57
-1.11
-2.00
-3.16
-4.49
-5.90
-7.33
-8.81
-10.37
-11.93
-13.27
-14.09
-14.03
-12.92
-10.77
-7.82
-4.42
-0.92
2.48
5.62
8.40
10.66
12.21
12.92
12.77
11.96
10.81
9.66
8.71
8.05
7.60
7.28
7.02
6.85
6.83
7.06
7.59
8.38
9.28
10.05
10.44
10.29
9.60
8.51
7.25
6.04
4.98
4.06
3.21
2.36
1.48
0.59
-0.27
-1.12
-1.98
-2.88
-3.85
-4.85
-5.87
-6.92
-8.05
-9.34
-10.87
-12.64
-14.51
-16.22
-17.40
-17.70
-16.91
-15.01
-12.22
-8.89
-5.44
-2.22
0.57
2.82
4.54
5.73
6.46
6.78
6.80
6.66
6.53
6.53
6.70
6.97
7.25
7.42
7.47
7.49
7.60
7.89
8.31
8.73
8.97
8.94
8.60
8.05
7.37
6.61
5.70
4.58
3.20
1.64
0.07
-1.30
-2.32
-2.96
-3.34
-3.66
-4.12
-4.84
-5.83
-7.00
-8.21
-9.39
-10.55
-11.76
-13.16
-14.85
-16.85
-18.99
-20.97
-22.36
-22.76
-21.94
-19.90
-16.89
-13.29
-9.51
-5.86
-2.52
0.41
2.93
5.05
6.77
8.12
9.10
9.74
10.02
9.94
9.52
8.83
8.00
7.16
6.47
6.01
5.91
6.22
6.93
7.95
9.06
9.99
10.51
10.51
10.05
9.26
8.31
7.28
6.21
5.08
3.90
2.73
1.66
0.77
0.08
-0.44
-0.87
-1.31
-1.85
-2.55
-3.42
-4.43
-5.49
-6.54
-7.55
-8.58
-9.78
-11.28
-13.20
-15.54
-18.20
-20.96
-23.55
-25.65
-26.92
-27.10
-26.06
-23.90
-20.95
-17.67
-14.46
-11.57
-9.00
-6.66
-4.47
-2.50
-0.97
-0.05
0.22
0.06
-0.13
0.01
0.65
1.75
3.10
4.51
5.89
7.29
8.77
10.35
11.89
13.19
14.06
14.40
14.27
13.83
13.25
12.63
11.97
11.19
10.26
9.23
8.21
7.38
6.80
6.46
6.23
5.98
5.63
5.22
4.82
4.47
4.11
3.64
2.95
2.03
0.94
-0.26
-1.58
-3.11
-4.95
-7.08
-9.28
-11.16
-12.28
-12.34
-11.25
-9.19
-6.46
-3.40
-0.29
2.62
5.18
7.24
8.70
9.50
9.67
9.32
8.63
7.85
7.18
6.80
6.77
7.06
7.59
8.28
9.05
9.87
10.72
11.50
12.05
12.19
11.82
10.94
9.72
8.36
7.02
5.76
4.56
3.33
2.01
0.60
-0.85
-2.29
-3.69
-5.07
-6.46
-7.91
-9.43
-11.05
-12.80
-14.69
-16.66
-18.51
-19.88
-20.41
-19.78
-17.98
-15.22
-11.98
-8.76
-5.90
-3.55
-1.62
0.04
1.52
2.81
3.85
4.59
5.05
5.33
5.58
5.91
6.40
7.03
7.68
8.24
8.64
8.89
9.12
9.46
9.95
10.50
10.88
10.85
10.25
9.14
7.70
6.17
4.71
3.35
2.05
0.70
-0.70
-2.09
-3.32
-4.33
-5.09
-5.74
-6.50
-7.57
-9.07
-11.02
-13.33
-15.82
-18.28
-20.42
-21.98
-22.62
-22.12
-20.43
-17.69
-14.26
-10.59
-7.08
-4.02
-1.51
0.53
2.20
3.61
4.81
5.78
6.49
6.89
7.00
6.92
6.76
6.64
6.67
6.90
7.41
8.25
9.43
10.88
12.42
13.79
14.70
14.94
14.49
13.43
11.98
10.37
8.79
7.34
6.11
5.13
4.38
3.80
3.26
2.60
1.68
0.42
-1.13
-2.89
-4.72
-6.50
-8.18
-9.74
-11.24
-12.81
-14.56
-16.60
-18.98
-21.64
-24.44
-27.18
-29.57
-31.31
-32.07
-31.59
-29.75
-26.68
-22.72
-18.36
-14.09
-10.21
-6.78
-3.68
-0.77
1.99
4.50
6.57
8.05
8.92
9.39
9.74
10.22
10.97
11.98
13.13
14.30
15.38
16.33
17.13
17.74
18.11
18.19
17.98
17.51
16.86
16.09
15.29
14.50
13.77
13.13
12.57
12.03
11.44
10.74
9.96
9.14
8.40
7.83
7.44
7.13
6.80
6.31
5.61
4.71
3.69
2.59
1.37
-0.13
-2.05
-4.49
-7.29
-10.06
-12.25
-13.32
-13.05
-11.54
-9.20
-6.54
-3.95
-1.61
0.47
2.34
4.00
5.31
6.13
6.30
5.84
4.85
3.58
2.28
1.18
0.46
0.24
0.54
1.29
2.34
3.53
4.69
5.67
6.38
6.78
6.85
6.67
6.33
5.95
5.61
5.30
4.97
4.54
3.93
3.13
2.15
1.08
0.01
-0.97
-1.81
-2.50
-3.06
-3.60
-4.23
-5.10
-6.31
-7.96
-10.03
-12.43
-14.98
-17.42
-19.36
-20.46
-20.45
-19.23
-16.94
-13.87
-10.39
-6.85
-3.52
-0.56
1.93
3.92
5.39
6.35
6.91
7.18
7.30
7.37
7.50
7.74
8.20
8.94
9.93
11.02
11.97
12.60
12.85
12.86
12.80
12.81
12.88
12.81
12.39
11.54
10.38
9.13
8.02
7.13
6.38
5.62
4.74
3.74
2.74
1.85
1.13
0.53
-0.08
-0.85
-1.87
-3.14
-4.57
-6.01
-7.33
-8.44
-9.33
-10.10
-10.88
-11.85
-13.17
-14.96
-17.20
-19.70
-22.06
-23.71
-24.16
-23.13
-20.69
-17.24
-13.34
-9.46
-5.86
-2.61
0.31
2.90
5.02
6.56
7.42
7.72
7.70
7.65
7.80
8.25
8.95
9.79
10.67
11.52
12.34
13.13
13.85
14.40
14.68
14.59
14.11
13.28
12.22
11.02
9.77
8.46
7.09
5.63
4.10
2.51
0.88
-0.78
-2.45
-4.05
-5.50
-6.72
-7.71
-8.55
-9.33
-10.17
-11.11
-12.11
-13.05
-13.87
-14.54
-15.13
-15.72
-16.38
-17.10
-17.87
-18.71
-19.65
-20.75
-21.95
-23.01
-23.52
-23.06
-21.38
-18.48
-14.69
-10.52
-6.42
-2.69
0.57
3.43
5.95
8.16
10.01
11.46
12.53
13.31
13.96
14.63
15.43
16.35
17.31
18.20
18.95
19.52
19.94
20.27
20.54
20.73
20.76
20.53
19.95
19.00
17.68
16.08
14.32
12.50
10.73
9.06
7.49
5.95
4.40
2.84
1.33
-0.01
-1.12
-1.98
-2.65
-3.26
-3.84
-4.43
-5.01
-5.64
-6.44
-7.60
-9.30
-11.55
-14.16
-16.78
-19.00
-20.41
-20.80
-20.06
-18.30
-15.74
-12.64
-9.29
-5.92
-2.73
0.15
2.60
4.52
5.86
6.61
6.85
6.73
6.41
6.08
5.85
5.80
5.93
6.20
6.56
6.98
7.42
7.89
8.39
8.93
9.48
9.97
10.26
10.26
9.94
9.40
8.79
8.27
7.88
7.55
7.10
6.41
5.45
4.33
3.22
2.24
1.40
0.59
-0.33
-1.41
-2.60
-3.78
-4.82
-5.69
-6.48
-7.37
-8.55
-10.13
-12.11
-14.42
-16.93
-19.51
-21.97
-24.04
-25.36
-25.59
-24.50
-22.14
-18.82
-15.04
-11.30
-7.91
-4.98
-2.43
-0.13
1.94
3.73
5.13
6.04
6.50
6.64
6.64
6.66
6.81
7.13
7.60
8.18
8.85
9.58
10.36
11.14
11.85
12.36
12.57
12.37
11.76
10.81
9.72
8.76
8.12
7.89
7.99
8.16
8.13
7.69
6.81
5.62
4.31
3.08
1.97
0.94
-0.17
-1.45
-2.95
-4.61
-6.34
-8.05
-9.72
-11.37
-13.03
-14.73
-16.44
-18.12
-19.80
-21.53
-23.40
-25.45
-27.61
-29.60
-30.98
-31.29
-30.30
-28.03
-24.82
-21.14
-17.42
-13.84
-10.42
-7.07
-3.81
-0.80
1.69
3.45
4.43
4.79
4.76
4.54
4.27
4.00
3.82
3.88
4.35
5.35
6.88
8.78
10.77
12.54
13.84
14.51
14.55
14.06
13.27
12.41
11.70
11.20
10.91
10.74
10.57
10.32
9.93
9.37
8.67
7.89
7.12
6.45
5.93
5.48
4.95
4.16
3.00
1.51
-0.12
-1.63
-2.86
-3.76
-4.45
-5.16
-6.11
-7.41
-8.98
-10.61
-12.01
-12.88
-13.01
-12.33
-10.88
-8.83
-6.39
-3.77
-1.19
1.24
3.43
5.33
6.82
7.82
8.22
8.03
7.40
6.62
5.99
5.68
5.71
5.95
6.22
6.39
6.49
6.63
6.98
7.65
8.58
9.61
10.47
10.98
11.03
10.70
10.19
9.74
9.46
9.29
9.04
8.49
7.52
6.15
4.55
2.91
1.34
-0.11
-1.45
-2.71
-3.94
-5.19
-6.56
-8.12
-9.90
-11.79
-13.53
-14.75
-15.12
-14.44
-12.74
-10.25
-7.35
-4.36
-1.53
1.06
3.42
5.58
7.53
9.20
10.47
11.24
11.49
11.31
10.89
10.46
10.18
10.09
10.11
10.05
9.74
9.12
8.26
7.28
6.26
5.15
3.80
2.07
-0.05
-2.40
-4.64
-6.44
-7.56
-7.96
-7.79
-7.26
-6.59
-5.93
-5.36
-4.95
-4.75
-4.83
-5.20
-5.81
-6.57
-7.37
-8.11
-8.82
-9.60
-10.61
-12.02
-13.93
-16.32
-19.03
-21.71
-23.87
-24.97
-24.58
-22.60
-19.26
-15.13
-10.87
-6.99
-3.74
-1.06
1.23
3.29
5.16
6.73
7.92
8.74
9.32
9.83
10.42
11.08
11.68
12.06
12.14
11.96
11.74
11.70
12.05
12.78
13.70
14.45
14.71
14.28
13.20
11.65
9.91
8.18
6.55
5.06
3.68
2.42
1.30
0.35
-0.46
-1.21
-2.03
-3.03
-4.25
-5.66
-7.14
-8.56
-9.80
-10.81
-11.63
-12.42
-13.41
-14.81
-16.75
-19.22
-22.03
-24.86
-27.32
-28.99
-29.50
-28.66
-26.45
-23.14
-19.19
-15.11
-11.40
-8.30
-5.82
-3.71
-1.68
0.51
2.91
5.41
7.80
9.92
11.67
13.09
14.24
15.16
15.82
16.14
16.09
15.72
15.22
14.77
14.55
14.57
14.71
14.76
14.48
13.77
12.64
11.29
9.95
8.83
7.96
7.24
6.47
5.51
4.36
3.15
2.05
1.13
0.32
-0.58
-1.72
-3.12
-4.61
-5.93
-6.92
-7.51
-7.86
-8.14
-8.52
-9.09
-9.87
-10.84
-11.91
-12.90
-13.51
-13.39
-12.27
-10.12
-7.16
-3.84
-0.62
2.15
4.30
5.87
6.96
7.68
8.11
8.31
8.37
8.39
8.46
8.69
9.17
9.92
10.89
11.97
12.99
13.81
14.37
14.71
14.94
15.21
15.51
15.78
15.85
15.55
14.81
13.64
12.16
10.52
8.91
7.42
6.14
5.03
3.96
2.81
1.46
-0.04
-1.56
-2.90
-3.96
-4.80
-5.64
-6.79
-8.44
-10.65
-13.23
-15.86
-18.13
-19.68
-20.25
-19.76
-18.28
-16.02
-13.24
-10.21
-7.11
-4.02
-0.96
2.01
4.77
7.15
8.98
10.10
10.48
10.20
9.46
8.52
7.67
7.13
7.00
7.23
7.66
8.14
8.55
8.84
8.99
8.99
8.75
8.22
7.39
6.32
5.20
4.19
3.40
2.79
2.28
1.78
1.24
0.70
0.17
-0.35
-0.93
-1.61
-2.44
-3.41
-4.52
-5.71
-6.91
-8.05
-9.03
-9.74
-10.18
-10.44
-10.69
-11.16
-12.03
-13.38
-15.21
-17.36
-19.56
-21.41
-22.46
-22.33
-20.90
-18.30
-14.97
-11.42
-8.10
-5.23
-2.80
-0.63
1.45
3.48
5.37
6.95
8.10
8.79
9.14
9.32
9.54
9.90
10.41
10.98
11.51
11.92
12.20
12.39
12.54
12.61
12.57
12.31
11.73
10.81
9.61
8.30
7.11
6.21
5.67
5.42
5.28
5.05
4.62
3.99
3.28
2.65
2.18
1.82
1.43
0.77
-0.31
-1.85
-3.74
-5.76
-7.62
-9.11
-10.11
-10.68
-10.98
-11.25
-11.73
-12.58
-13.91
-15.73
-17.94
-20.34
-22.63
-24.43
-25.41
-25.33
-24.15
-22.00
-19.22
-16.19
-13.26
-10.62
-8.28
-6.13
-4.03
-1.95
0.00
1.64
2.78
3.39
3.62
3.70
3.85
4.12
4.45
4.72
4.90
5.10
5.51
6.29
7.47
8.88
10.27
11.37
12.06
12.28
12.08
11.59
10.90
10.19
9.61
9.27
9.27
9.49
9.75
9.85
9.67
9.26
8.78
8.41
8.15
7.85
7.30
6.30
4.86
3.15
1.46
0.08
-0.89
-1.52
-2.00
-2.54
-3.31
-4.37
-5.74
-7.40
-9.28
-11.22
-12.96
-14.16
-14.51
-13.82
-12.08
-9.51
-6.46
-3.28
-0.34
2.19
4.16
5.55
6.39
6.75
6.72
6.43
5.96
5.46
5.04
4.87
5.07
5.65
6.55
7.58
8.60
9.53
10.42
11.35
12.32
13.21
13.77
13.80
13.16
11.99
10.56
9.18
8.05
7.16
6.40
5.58
4.57
3.33
1.90
0.36
-1.21
-2.69
-4.02
-5.11
-5.97
-6.65
-7.28
-7.99
-8.90
-10.09
-11.59
-13.35
-15.30
-17.21
-18.83
-19.84
-20.00
-19.26
-17.73
-15.64
-13.26
-10.74
-8.21
-5.68
-3.19
-0.82
1.32
3.07
4.38
5.25
5.77
6.09
6.35
6.68
7.14
7.77
8.52
9.30
10.01
10.58
10.97
11.21
11.31
11.26
11.00
10.39
9.35
7.92
6.28
4.74
3.59
2.95
2.72
2.61
2.36
1.82
1.08
0.33
-0.25
-0.60
-0.86
-1.18
-1.71
-2.44
-3.22
-3.90
-4.38
-4.73
-5.14
-5.90
-7.18
-9.05
-11.42
-14.10
-16.82
-19.31
-21.30
-22.62
-23.09
-22.68
-21.43
-19.49
-17.06
-14.32
-11.45
-8.62
-5.97
-3.62
-1.65
-0.04
1.26
2.32
3.20
3.96
4.64
5.28
5.92
6.57
7.19
7.71
8.08
8.30
8.47
8.71
9.09
9.52
9.87
9.95
9.69
9.15
8.48
7.79
7.15
6.50
5.83
5.19
4.67
4.41
4.42
4.57
4.61
4.25
3.37
2.08
0.62
-0.69
-1.66
-2.29
-2.77
-3.32
-4.08
-5.01
-5.96
-6.70
-7.14
-7.32
-7.42
-7.65
-8.13
-8.91
-9.90
-10.95
-11.84
-12.32
-12.08
-10.84
-8.45
-4.93
-0.55
4.29
9.20
13.97
18.52
22.91
27.15
31.10
34.56
37.25
39.08
40.20
40.95
41.80
43.09
44.93
47.15
49.43
51.52
53.43
55.42
57.89
61.10
64.87
68.64
71.59
73.10
73.02
71.91
70.82
70.86
72.63
75.86
79.35
81.41
80.53
75.84
67.38
55.70
41.41
24.89
6.49
-13.07
-32.16
-48.32
-58.96
-62.62
-59.86
-53.30
-46.35
-41.40
-38.57
-35.78
-30.43
-21.43
-10.44
-1.07
3.22
1.53
-3.73
-8.37
-9.63
-8.83
-11.36
-23.65
-48.52
-82.27
-115.62
-138.45
-145.42
-138.99
-127.51
-119.56
-118.16
-118.89
-113.07
-94.09
-62.54
-26.69
2.04
15.51
12.85
0.06
-14.39
-24.61
-29.83
-33.26
-38.69
-47.22
-56.54
-62.63
-62.21
-54.67
-42.22
-28.51
-16.38
-6.39
3.39
15.98
32.84
52.39
70.05
79.77
76.76
60.10
33.26
2.83
-24.21
-44.11
-56.31
-62.12
-62.95
-59.57
-52.03
-41.13
-28.45
-15.96
-6.93
-2.58
-0.91
2.22
10.28
24.43
41.96
58.93
72.29
78.20
75.82
67.81
58.62
51.25
46.33
40.34
28.96
8.51
-26.99
-80.40
-148.76
-223.58
-294.09
-349.70
-385.53
-400.90
-376.56
-307.10
-205.48
-96.09
2.47
78.44
142.76
201.95
254.98
295.44
311.57
294.52
244.72
173.29
97.97
38.33
7.02
8.09
35.90
74.42
106.20
119.97
113.77
92.53
64.13
33.05
0.90
-32.23
-67.33
-102.49
-132.60
-152.04
-158.58
-154.33
-145.60
-138.43
-135.87
-138.33
-143.92
-150.06
-154.66
-157.01
-157.38
-156.90
-156.51
-156.49
-157.05
-158.01
-158.55
-156.95
-150.92
-138.02
-116.69
-86.89
-50.64
-11.88
24.60
54.68
76.36
90.19
98.79
105.54
113.20
123.02
134.56
146.29
156.38
163.46
167.02
167.50
166.31
165.62
167.96
175.41
188.72
206.47
225.03
239.46
245.08
238.92
220.47
191.56
155.56
116.40
78.00
43.89
16.89
-1.30
-10.60
-12.65
-10.37
-6.99
-5.08
-5.89
-9.35
-14.51
-20.14
-25.19
-28.98
-31.22
-32.01
-31.73
-30.92
-29.95
-29.01
-28.03
-26.85
-25.40
-23.90
-22.78
-22.50
-23.25
-24.86
-26.78
-28.33
-28.96
-28.55
-27.37
-26.08
-25.42
-25.95
-27.88
-30.95
-34.36
-36.93
-37.36
-34.59
-28.06
-18.06
-5.71
7.38
19.53
29.45
36.59
41.02
43.26
43.85
43.26
41.80
39.70
37.29
34.88
32.79
31.16
29.95
28.95
27.91
26.65
25.13
23.50
21.96
20.76
19.95
19.45
18.99
18.32
17.30
15.98
14.58
13.30
12.24
11.29
10.22
8.84
7.06
4.96
2.72
0.53
-1.57
-3.71
-6.18
-9.20
-12.80
-16.66
-20.14
-22.54
-23.30
-22.31
-19.90
-16.77
-13.67
-11.13
-9.37
-8.27
-7.59
-7.04
-6.44
-5.67
-4.67
-3.43
-2.00
-0.48
1.01
2.40
3.69
4.91
6.10
7.22
8.12
8.62
8.62
8.16
7.44
6.74
6.25
6.04
6.01
5.98
5.75
5.26
4.55
3.77
3.05
2.46
1.97
1.43
0.64
-0.57
-2.37
-4.82
-7.89
-11.48
-15.29
-18.86
-21.53
-22.71
-22.00
-19.46
-15.59
-11.20
-7.09
-3.76
-1.28
0.54
2.00
3.24
4.24
4.89
5.17
5.20
5.20
5.36
5.77
6.39
7.17
8.06
9.08
10.29
11.65
13.03
14.21
14.92
14.93
14.17
12.67
10.63
8.32
6.04
4.00
2.27
0.78
-0.63
-2.13
-3.78
-5.53
-7.23
-8.73
-9.94
-10.87
-11.60
-12.24
-12.94
-13.80
-14.89
-16.27
-17.92
-19.80
-21.88
-24.04
-26.13
-27.89
-28.97
-29.00
-27.73
-25.14
-21.51
-17.27
-12.88
-8.66
-4.75
-1.20
1.92
4.52
6.52
7.90
8.84
9.58
10.35
11.25
12.20
13.04
13.66
14.09
14.46
14.94
15.62
16.47
17.38
18.19
18.77
19.07
19.10
18.88
18.49
18.02
17.55
17.17
16.91
16.84
16.94
17.21
17.54
17.79
17.73
17.12
15.80
13.73
11.05
8.02
4.97
2.14
-0.31
-2.40
-4.24
-6.08
-8.12
-10.53
-13.35
-16.38
-19.26
-21.48
-22.55
-22.17
-20.34
-17.37
-13.73
-9.95
-6.39
-3.22
-0.45
1.97
4.07
5.81
7.07
7.75
7.78
7.26
6.39
5.47
4.81
4.64
5.00
5.81
6.88
8.06
9.29
10.58
11.92
13.18
14.07
14.25
13.49
11.82
9.58
7.26
5.33
3.97
3.08
2.34
1.44
0.23
-1.22
-2.70
-3.99
-4.97
-5.71
-6.36
-7.20
-8.46
-10.31
-12.82
-15.84
-19.01
-21.83
-23.71
-24.18
-23.06
-20.49
-16.96
-13.08
-9.42
-6.35
-3.94
-2.06
-0.44
1.15
2.82
4.50
6.03
7.21
7.91
8.11
7.92
7.55
7.21
7.08
7.23
7.61
8.18
8.86
9.66
10.56
11.50
12.34
12.85
12.79
12.01
10.56
8.62
6.50
4.45
2.56
0.80
-0.99
-2.92
-5.00
-7.09
-9.01
-10.62
-11.93
-13.08
-14.21
-15.40
-16.58
-17.66
-18.59
-19.45
-20.44
-21.73
-23.26
-24.75
-25.77
-25.92
-25.01
-23.14
-20.58
-17.64
-14.54
-11.39
-8.26
-5.17
-2.18
0.64
3.19
5.40
7.15
8.37
9.01
9.12
8.86
8.47
8.16
8.12
8.43
9.10
10.06
11.25
12.58
13.90
15.05
15.86
16.19
15.98
15.26
14.15
12.80
11.37
9.97
8.66
7.48
6.42
5.45
4.57
3.73
2.94
2.17
1.41
0.62
-0.24
-1.20
-2.32
-3.58
-4.96
-6.35
-7.68
-8.91
-10.07
-11.28
-12.68
-14.42
-16.60
-19.24
-22.26
-25.40
-28.24
-30.26
-30.97
-30.05
-27.51
-23.70
-19.17
-14.50
-10.13
-6.27
-2.95
-0.09
2.38
4.46
6.05
7.08
7.51
7.37
6.86
6.24
5.84
5.90
6.54
7.66
9.05
10.45
11.68
12.68
13.52
14.34
15.28
16.35
17.47
18.47
19.20
19.56
19.57
19.30
18.87
18.31
17.58
16.57
15.20
13.53
11.74
10.15
9.06
8.59
8.63
8.89
9.01
8.74
8.01
6.92
5.61
4.20
2.65
0.90
-1.13
-3.41
-5.82
-8.14
-10.13
-11.57
-12.29
-12.17
-11.22
-9.55
-7.36
-4.92
-2.40
0.03
2.34
4.47
6.33
7.76
8.57
8.64
7.95
6.72
5.23
3.81
2.70
2.00
1.67
1.62
1.77
2.02
2.32
2.62
2.86
3.00
2.99
2.85
2.59
2.25
1.87
1.45
0.97
0.43
-0.17
-0.79
-1.38
-1.87
-2.23
-2.50
-2.78
-3.18
-3.79
-4.62
-5.57
-6.57
-7.56
-8.56
-9.69
-11.02
-12.56
-14.21
-15.76
-16.93
-17.47
-17.20
-16.07
-14.16
-11.63
-8.73
-5.68
-2.68
0.16
2.75
4.97
6.66
7.66
7.89
7.42
6.50
5.51
4.73
4.37
4.36
4.52
4.67
4.75
4.87
5.23
5.91
6.82
7.70
8.21
8.14
7.50
6.46
5.28
4.18
3.20
2.30
1.39
0.41
-0.64
-1.73
-2.84
-4.02
-5.30
-6.73
-8.28
-9.88
-11.47
-13.02
-14.59
-16.28
-18.05
-19.72
-20.95
-21.33
-20.58
-18.70
-15.96
-12.82
-9.70
-6.84
-4.24
-1.81
0.54
2.75
4.60
5.85
6.36
6.15
5.52
4.79
4.28
4.16
4.41
4.89
5.45
6.01
6.60
7.31
8.19
9.17
10.07
10.64
10.70
10.22
9.33
8.27
7.25
6.33
5.50
4.63
3.64
2.48
1.21
-0.14
-1.53
-2.98
-4.48
-5.99
-7.43
-8.68
-9.70
-10.50
-11.18
-11.82
-12.50
-13.25
-14.05
-14.91
-15.80
-16.65
-17.27
-17.30
-16.37
-14.15
-10.57
-5.85
-0.48
4.96
9.96
14.23
17.79
21.02
24.42
28.53
33.41
38.75
43.91
48.20
51.21
52.85
53.69
54.95
58.04
63.80
72.21
82.34
92.67
101.90
109.20
114.88
120.28
127.10
135.98
146.31
156.45
164.07
167.18
163.81
153.02
135.66
114.75
94.34
80.26
78.84
94.30
126.66
168.42
207.57
232.10
234.24
210.53
164.79
106.43
46.70
-4.16
-44.04
-75.74
-103.41
-130.39
-161.82
-199.90
-243.06
-286.74
-323.44
-352.09
-374.09
-390.98
-405.15
-425.25
-459.97
-514.10
-585.50
-662.18
-734.25
-791.57
-825.32
-796.97
-688.89
-513.14
-307.34
-135.48
-6.01
87.14
151.92
199.62
236.33
262.70
280.36
292.58
302.55
313.56
319.38
313.16
293.06
262.64
225.09
184.39
144.65
112.80
97.31
98.09
110.99
131.19
154.23
174.32
186.98
190.59
186.96
181.19
175.30
170.53
167.77
166.87
165.67
161.74
153.61
141.48
127.26
111.33
94.01
75.89
57.38
37.96
16.97
-5.91
-30.28
-51.92
-70.17
-84.78
-95.53
-102.37
-105.84
-106.76
-106.02
-104.33
-102.22
-100.46
-99.13
-98.08
-96.93
-95.81
-94.90
-94.41
-94.46
-95.01
-96.29
-98.16
-100.42
-102.59
-104.72
-106.89
-109.00
-110.67
-111.17
-109.81
-105.66
-99.65
-90.29
-77.49
-61.89
-44.33
-25.60
-6.15
13.69
34.16
53.97
72.18
87.29
97.95
103.40
103.76
100.15
94.31
87.82
81.69
76.28
70.72
63.86
54.61
42.27
26.41
7.27
-13.51
-33.17
-47.05
-50.48
-40.62
-18.22
12.07
43.26
68.76
84.82
91.38
91.36
88.25
84.36
80.22
75.29
69.04
61.81
54.44
47.67
41.63
35.71
29.22
21.77
13.84
6.46
0.95
-1.90
-1.98
0.15
3.63
7.70
11.93
16.43
21.75
28.75
38.12
49.66
61.92
72.07
76.72
73.21
61.08
42.48
21.89
4.15
-7.44
-11.92
-10.51
-5.34
2.16
11.64
22.27
33.48
44.02
51.79
54.89
52.36
44.96
34.43
22.78
11.00
-0.95
-13.98
-28.83
-45.35
-61.96
-76.56
-87.00
-92.26
-92.62
-89.12
-83.23
-76.39
-69.49
-63.29
-58.00
-53.83
-50.86
-48.65
-46.11
-41.86
-34.54
-23.87
-10.69
3.17
16.00
26.94
36.68
46.53
57.54
68.83
77.63
79.81
72.38
54.57
28.74
-0.79
-29.09
-52.74
-69.96
-80.18
-83.06
-77.86
-64.68
-45.90
-26.59
-13.71
-12.77
-25.52
-48.63
-74.47
-93.96
-100.39
-91.83
-71.36
-44.83
-17.99
4.93
22.16
31.41
31.70
24.18
11.36
-4.17
-20.20
-33.87
-43.24
-47.85
-48.82
-47.70
-45.99
-44.05
-41.41
-36.96
-29.05
-15.45
5.12
32.80
66.00
100.94
132.12
152.76
152.72
129.81
88.80
38.50
-12.53
-58.85
-101.24
-140.48
-175.07
-200.84
-211.87
-204.93
-182.05
-147.65
-112.67
-86.69
-72.25
-64.43
-56.08
-40.42
-14.12
22.90
69.22
123.88
183.83
241.42
288.73
319.69
332.54
329.27
314.26
292.06
266.06
239.00
213.75
192.61
176.96
165.69
154.80
138.77
112.67
74.69
27.11
-21.96
-68.46
-108.49
-140.06
-162.96
-177.55
-183.70
-180.91
-169.20
-150.44
-128.39
-107.12
-89.63
-76.52
-65.40
-52.43
-34.12
-9.09
20.96
51.80
78.91
98.31
108.25
109.38
103.98
94.87
84.73
75.38
68.11
63.51
60.40
56.76
50.47
39.85
24.67
6.85
-9.84
-21.06
-23.36
-17.34
-6.01
5.62
11.72
6.64
-13.82
-51.55
-105.07
-169.09
-236.18
-295.76
-336.75
-351.56
-339.01
-304.68
-258.73
-212.05
-162.42
-112.30
-65.36
-25.11
6.89
30.36
45.85
54.39
57.71
58.05
55.97
52.61
49.27
46.83
45.45
44.84
44.15
42.93
41.14
38.16
34.67
32.08
32.04
35.99
45.25
60.14
79.88
101.56
119.51
127.88
122.94
104.92
77.26
48.36
26.18
14.84
13.47
17.44
21.94
24.28
24.43
23.63
22.47
19.73
13.06
0.54
-17.71
-39.22
-60.24
-77.12
-87.86
-92.71
-93.44
-92.35
-90.86
-89.16
-86.75
-83.36
-78.68
-70.52
-57.40
-37.17
-8.71
25.99
61.53
91.42
109.64
113.46
104.63
87.66
67.42
46.77
26.50
6.81
-10.84
-23.50
-27.84
-22.32
-8.92
7.42
19.69
22.69
15.56
1.67
-13.83
-26.62
-34.90
-39.56
-42.80
-46.78
-52.25
-58.56
-63.90
-66.76
-66.31
-62.82
-57.37
-51.38
-45.85
-40.77
-34.86
-25.85
-11.99
7.20
30.67
56.51
82.48
106.76
128.20
143.43
151.55
152.80
149.02
143.25
138.45
135.60
132.85
126.69
113.89
93.89
68.87
42.79
19.54
1.61
-10.55
-17.84
-22.03
-25.21
-29.00
-34.68
-42.83
-53.08
-64.04
-74.44
-83.85
-93.43
-105.36
-120.80
-138.48
-154.64
-163.88
-161.39
-145.19
-117.13
-82.74
-48.19
-21.63
-6.95
-3.31
-6.79
-13.14
-19.82
-26.12
-32.43
-38.71
-43.79
-45.62
-42.81
-35.65
-25.77
-15.05
-4.30
6.75
19.35
34.71
53.53
75.07
97.47
118.36
134.05
144.25
149.88
152.64
154.56
157.76
163.44
170.79
176.56
175.50
162.74
135.85
97.01
52.80
12.00
-18.15
-34.73
-39.66
-37.82
-33.89
-30.60
-28.28
-26.02
-23.26
-20.67
-19.87
-21.87
-26.56
-32.37
-37.36
-39.77
-39.02
-35.74
-31.21
-26.77
-23.07
-20.01
-16.76
-12.30
-6.06
1.81
10.46
18.71
25.57
30.71
34.13
36.51
38.75
41.61
45.41
50.07
55.29
60.78
66.57
72.38
78.28
84.18
90.05
95.97
102.09
108.53
115.35
122.70
130.04
137.07
143.27
148.18
151.42
152.62
151.05
145.22
137.96
129.86
121.23
111.53
100.48
88.34
75.88
63.88
52.82
43.01
33.90
25.09
14.39
0.51
-16.19
-33.95
-50.95
-66.16
-79.34
-91.15
-102.19
-116.87
-137.84
-164.34
-192.83
-219.65
-242.91
-262.41
-279.12
-294.07
-314.38
-344.29
-382.55
-423.36
-460.78
-491.64
-515.48
-533.39
-546.67
-564.48
-592.27
-628.23
-664.72
-693.75
-710.94
-715.53
-708.67
-640.82
-492.40
-283.06
-60.37
134.01
282.84
387.76
458.08
503.91
533.51
544.64
536.40
513.26
483.89
456.73
436.06
422.21
413.45
407.55
396.26
374.41
342.60
305.83
269.56
236.87
208.32
183.21
160.62
135.91
106.36
75.78
47.11
23.48
6.39
-4.38
-9.96
-11.67
-12.61
-14.83
-18.55
-22.93
-26.45
-28.29
-28.46
-27.36
-25.46
-23.81
-23.00
-22.95
-23.34
-23.56
-23.28
-22.55
-21.60
-20.61
-19.68
-18.70
-17.52
-16.21
-14.75
-13.30
-12.17
-11.64
-11.83
-12.66
-13.76
-14.67
-15.15
-15.13
-14.91
-15.03
-16.08
-18.25
-21.45
-25.14
-28.65
-31.50
-33.52
-35.02
-36.57
-39.38
-43.66
-49.84
-58.05
-67.83
-77.84
-85.91
-89.59
-87.19
-78.85
-66.74
-54.62
-46.38
-44.40
-48.82
-57.93
-69.12
-80.05
-89.55
-97.29
-103.44
-107.85
-110.20
-110.17
-107.72
-103.36
-96.55
-86.44
-71.73
-51.35
-25.11
5.73
38.54
70.08
97.04
117.53
131.25
138.98
141.84
141.00
137.35
131.52
124.19
116.40
108.18
99.23
89.19
78.01
66.87
57.99
54.15
57.24
66.85
80.28
93.26
101.86
104.06
100.33
92.98
84.55
76.66
69.52
62.77
56.18
50.20
45.69
43.40
43.54
45.49
48.31
50.90
52.74
53.84
54.45
54.89
55.25
55.14
53.91
51.32
46.40
39.22
30.16
20.05
9.73
-0.22
-9.42
-17.81
-25.47
-32.50
-38.76
-44.03
-48.00
-50.55
-51.61
-51.44
-50.51
-49.25
-48.22
-47.79
-48.21
-49.61
-52.09
-55.57
-60.01
-65.18
-70.71
-76.28
-81.34
-85.58
-88.57
-90.03
-89.83
-87.84
-84.22
-79.14
-72.94
-65.90
-58.28
-50.44
-42.70
-35.25
-28.30
-21.83
-15.79
-10.21
-4.89
0.30
5.58
11.11
17.09
23.49
30.44
37.56
44.38
50.37
54.86
57.38
57.66
55.58
51.32
45.39
38.21
30.24
21.86
13.32
4.66
-3.96
-12.63
-21.60
-30.92
-41.10
-52.72
-66.29
-82.31
-101.00
-121.66
-143.24
-166.09
-187.50
-204.94
-216.76
-221.80
-220.78
-215.00
-205.20
-192.38
-177.24
-159.99
-140.70
-119.08
-94.50
-65.95
-37.46
-11.05
11.89
30.91
46.64
60.00
72.52
85.82
101.17
118.81
138.17
156.91
171.73
180.01
181.11
177.43
173.39
173.39
179.93
193.13
210.34
227.29
239.54
243.05
235.85
217.14
187.69
149.67
107.47
66.43
31.87
7.56
-5.19
-5.38
5.66
24.76
47.35
68.78
85.59
96.11
100.43
99.97
99.59
103.08
111.80
123.72
135.35
143.73
147.70
148.15
147.30
151.63
165.81
190.91
223.98
259.72
293.39
321.67
342.72
333.65
282.69
194.13
88.99
-8.24
-82.66
-131.47
-160.30
-177.44
-190.25
-197.17
-198.81
-196.86
-194.94
-196.59
-202.87
-211.94
-220.47
-226.03
-224.66
-214.11
-195.07
-170.82
-145.72
-123.27
-106.20
-96.62
-94.98
-98.43
-101.90
-100.19
-93.03
-85.01
-82.46
-90.63
-110.29
-137.92
-165.21
-182.24
-181.62
-161.03
-124.29
-79.71
-37.45
-6.51
7.96
6.11
-7.94
-27.76
-46.61
-58.81
-60.36
-49.90
-28.95
-1.46
27.31
52.50
70.81
80.91
83.39
80.11
73.25
64.82
56.49
49.57
44.63
40.68
35.04
24.31
6.48
-17.09
-41.26
-58.53
-62.48
-51.13
-28.17
-1.51
20.39
32.18
32.90
25.09
12.24
-3.42
-21.40
-42.01
-64.94
-88.40
-109.63
-125.95
-135.63
-138.22
-134.40
-125.28
-111.72
-94.05
-72.39
-47.01
-18.73
10.79
39.39
64.82
85.36
100.14
109.09
112.76
111.84
106.70
97.33
83.54
65.34
43.36
18.89
-6.19
-29.69
-49.72
-64.95
-74.76
-79.10
-78.21
-72.40
-61.66
-45.73
-24.06
3.69
36.72
72.49
106.83
134.80
152.38
157.93
152.70
140.67
126.49
113.75
104.12
97.57
93.38
90.90
89.79
89.89
91.31
93.80
96.56
98.66
99.76
99.95
99.26
97.50
94.07
89.29
83.94
78.60
74.32
72.54
74.49
79.97
86.67
90.86
90.23
84.57
75.34
65.29
56.79
50.27
43.12
30.90
3.95
-40.25
-94.55
-146.74
-187.09
-212.96
-227.36
-234.71
-237.56
-235.70
-229.29
-215.43
-194.47
-169.76
-145.88
-126.88
-114.92
-109.66
-108.20
-105.61
-96.24
-78.14
-52.71
-23.58
4.29
25.17
33.95
28.94
13.39
-6.67
-26.70
-44.77
-60.36
-73.73
-84.81
-92.83
-96.70
-95.64
-89.76
-80.42
-69.30
-56.19
-40.46
-21.42
1.40
27.87
57.21
88.24
119.63
146.00
165.87
179.53
188.02
192.25
192.66
189.34
182.40
172.35
160.29
148.37
138.34
131.45
128.52
129.72
133.79
137.50
135.73
123.14
97.15
59.15
14.90
-27.50
-60.77
-81.45
-90.62
-92.54
-91.98
-91.56
-91.88
-91.91
-90.99
-89.60
-89.04
-90.21
-92.89
-95.71
-96.60
-93.85
-86.93
-76.70
-64.15
-51.73
-40.94
-32.21
-24.99
-18.20
-10.95
-2.97
5.29
12.97
19.03
23.17
25.66
27.23
28.77
30.96
34.05
37.85
41.83
45.32
48.07
50.02
51.32
52.09
52.40
52.16
51.08
48.84
44.92
39.35
32.26
23.97
14.87
5.34
-4.22
-13.48
-21.51
-28.51
-34.35
-38.91
-42.06
-43.83
-44.32
-43.71
-42.27
-40.33
-38.30
-36.33
-34.46
-32.61
-30.68
-28.64
-26.47
-24.34
-22.42
-20.98
-20.08
-19.94
-19.97
-19.81
-19.26
-18.32
-17.30
-16.70
-17.01
-18.42
-20.70
-23.19
-25.24
-26.30
-26.38
-26.03
-26.20
-27.82
-31.33
-36.38
-41.92
-46.63
-49.65
-50.71
-50.59
-50.84
-52.93
-58.01
-66.11
-76.20
-86.31
-93.95
-96.83
-93.61
-84.34
-70.73
-55.50
-41.84
-31.71
-25.43
-20.83
-14.88
-3.68
14.56
39.18
66.16
89.76
103.96
105.35
94.07
74.37
52.45
34.18
22.87
18.23
17.30
16.77
14.17
9.70
4.54
0.49
-1.98
-3.35
-5.31
-9.03
-14.86
-21.98
-29.17
-34.99
-38.69
-39.74
-37.59
-31.59
-21.39
-6.46
12.61
34.29
55.54
72.95
82.02
82.52
76.49
68.13
61.46
59.11
61.16
65.87
70.58
73.43
73.96
72.71
70.06
66.20
60.84
54.29
47.54
42.41
40.47
42.72
47.88
53.12
55.09
51.20
40.89
25.77
9.35
-5.64
-16.61
-22.34
-22.77
-19.10
-13.25
-7.34
-3.39
-2.35
-4.20
-7.86
-12.01
-15.84
-19.22
-22.55
-26.34
-30.34
-33.90
-36.38
-37.29
-36.91
-35.76
-34.49
-33.51
-32.64
-31.76
-30.76
-29.43
-27.52
-24.92
-21.60
-17.99
-14.64
-12.05
-10.81
-10.87
-11.95
-13.57
-15.13
-16.42
-17.36
-18.11
-19.11
-20.56
-22.50
-24.55
-26.04
-26.58
-25.88
-23.92
-20.96
-16.82
-11.39
-4.40
4.54
15.74
29.45
45.70
64.08
83.73
103.53
121.89
137.56
149.48
157.40
161.64
162.69
160.65
155.12
145.17
129.93
108.92
82.36
51.01
16.01
-21.24
-58.96
-94.99
-126.72
-151.88
-169.05
-178.46
-182.09
-183.11
-184.40
-187.55
-191.89
-195.17
-194.62
-188.61
-177.58
-164.33
-152.49
-145.39
-144.23
-148.45
-156.07
-165.23
-174.25
-181.95
-186.32
-184.57
-173.26
-149.67
-112.67
-63.43
-4.90
58.75
122.78
181.84
230.33
262.70
275.12
266.89
241.67
206.55
170.67
141.84
124.64
118.83
120.30
122.80
121.01
112.18
97.25
79.60
63.36
51.20
43.70
39.27
35.93
31.70
25.37
15.61
0.89
-20.41
-48.65
-82.07
-116.25
-145.39
-164.25
-170.09
-163.28
-146.92
-125.25
-102.28
-80.54
-61.19
-43.99
-28.07
-12.22
4.37
21.98
39.96
57.13
72.05
83.51
90.94
94.47
94.66
92.53
89.14
85.50
82.18
79.38
76.26
71.29
62.31
47.63
26.83
1.47
-24.74
-46.64
-58.91
-57.78
-42.81
-17.32
12.45
39.29
57.27
63.19
57.09
41.77
21.40
0.58
-16.50
-26.57
-27.63
-19.58
-4.06
16.07
38.00
60.29
83.60
109.63
139.46
171.51
201.37
222.51
228.36
214.46
180.52
130.99
74.63
22.15
-16.70
-36.48
-38.04
-28.52
-18.23
-16.75
-28.79
-53.55
-85.97
-120.23
-151.66
-177.51
-195.37
-202.45
-195.88
-175.00
-142.97
-106.98
-75.98
-57.17
-53.06
-60.46
-71.86
-79.10
-76.25
-61.80
-38.36
-11.08
14.63
34.93
48.46
55.74
58.36
57.61
54.29
48.71
41.60
34.22
28.35
25.26
25.26
27.27
29.71
30.91
30.26
28.00
25.27
23.25
22.60
23.24
24.51
26.08
28.13
31.16
35.52
40.64
44.91
46.23
42.64
33.22
18.44
0.27
-18.21
-33.18
-40.88
-38.82
-27.22
-9.42
8.77
21.22
24.05
16.97
3.21
-12.09
-23.62
-27.31
-20.83
-3.91
21.44
50.55
76.63
92.14
91.27
71.98
37.12
-6.61
-50.81
-88.02
-113.37
-125.06
-123.85
-112.36
-94.16
-73.17
-53.00
-36.46
-25.04
-18.96
-17.30
-18.44
-20.48
-21.93
-21.91
-20.60
-18.80
-17.68
-18.05
-20.20
-23.61
-27.54
-31.39
-35.11
-38.97
-43.44
-48.62
-53.93
-57.94
-58.86
-55.00
-45.54
-30.73
-12.09
7.96
26.55
41.22
50.60
55.19
57.12
59.94
67.20
81.07
101.56
126.26
151.30
172.75
187.69
194.80
194.49
188.20
177.69
164.17
148.08
129.21
107.15
81.44
52.21
20.05
-13.36
-45.62
-73.49
-94.03
-104.40
-102.87
-89.64
-67.63
-41.99
-19.04
-4.40
-1.41
-10.97
-30.48
-54.69
-77.98
-95.93
-106.69
-110.77
-110.69
-109.61
-111.16
-116.53
-124.30
-130.93
-132.74
-127.25
-114.22
-95.59
-69.82
-40.23
-13.09
6.61
17.49
21.23
20.15
16.35
11.52
7.33
4.26
2.88
3.25
4.93
6.97
8.30
8.61
8.46
8.71
9.58
11.26
13.88
16.60
17.21
12.75
1.12
-17.19
-38.61
-58.02
-70.41
-73.39
-68.55
-60.75
-55.36
-55.45
-60.28
-66.39
-70.35
-70.59
-67.99
-65.11
-64.18
-65.37
-66.50
-64.31
-55.67
-39.39
-16.79
9.63
37.24
63.80
87.02
103.05
109.17
104.31
90.75
74.36
62.67
61.26
70.90
87.19
103.23
113.67
117.09
116.07
114.50
114.59
115.42
114.23
108.73
99.13
88.47
80.44
77.71
80.92
88.77
98.54
106.95
110.35
105.34
90.25
64.97
32.69
-1.01
-30.09
-50.49
-61.55
-65.61
-66.27
-66.11
-65.86
-64.58
-61.31
-56.50
-52.05
-50.38
-52.81
-58.77
-65.95
-71.63
-73.62
-71.68
-67.57
-64.43
-65.53
-72.56
-84.57
-97.73
-106.74
-106.68
-95.39
-74.14
-47.11
-19.99
2.07
15.40
18.49
11.84
-2.06
-18.77
-32.70
-38.21
-32.08
-14.86
8.95
32.66
50.10
58.04
57.22
50.03
40.79
32.18
24.90
18.13
11.29
4.76
0.13
0.05
6.51
20.78
42.26
68.29
93.77
111.92
116.75
103.65
74.68
36.13
-3.25
-34.83
-52.60
-54.66
-42.47
-20.32
5.24
27.07
38.98
38.08
26.12
8.40
-8.91
-21.59
-29.25
-34.63
-41.09
-51.03
-64.77
-80.49
-95.55
-107.19
-112.68
-109.67
-97.12
-75.99
-48.20
-20.70
0.37
11.94
14.39
10.66
4.12
-2.45
-7.49
-10.63
-12.19
-11.96
-9.41
-3.70
5.71
18.24
31.12
39.68
37.91
23.20
-2.80
-34.63
-65.29
-88.97
-102.50
-105.21
-97.88
-82.07
-59.20
-32.27
-6.30
12.95
21.14
17.34
3.60
-16.07
-37.39
-57.24
-74.23
-87.94
-98.38
-105.81
-110.93
-114.99
-119.47
-125.15
-132.22
-140.27
-148.34
-155.36
-160.47
-163.06
-162.65
-161.93
-161.86
-162.64
-163.89
-164.77
-164.23
-161.39
-155.71
-147.13
-135.93
-122.18
-106.07
-87.92
-68.06
-46.93
-25.10
-3.22
17.98
37.82
55.98
72.02
85.31
95.06
100.53
101.22
97.18
89.22
78.78
67.92
58.38
51.12
46.17
42.73
39.79
36.75
33.92
32.54
34.34
40.59
51.44
65.65
81.08
95.68
108.33
119.41
130.52
143.67
160.44
181.65
207.42
237.39
270.14
302.38
328.78
343.30
341.70
324.16
296.09
266.16
242.37
228.01
220.32
212.35
197.15
171.72
138.39
103.18
72.27
49.06
33.37
22.98
15.93
11.90
11.97
17.03
26.27
36.77
44.56
46.53
42.07
33.29
23.85
17.23
15.14
17.03
20.62
23.09
22.28
17.37
9.01
-1.00
-10.37
-17.12
-20.21
-19.85
-17.22
-13.78
-10.47
-7.42
-4.06
0.20
5.36
10.59
14.66
16.57
16.12
13.83
10.56
6.75
2.02
-4.72
-14.54
-27.74
-43.27
-58.90
-72.01
-80.55
-83.77
-82.18
-76.79
-68.30
-56.83
-42.38
-25.69
-8.67
5.94
15.63
19.21
17.40
12.23
5.81
-0.70
-7.31
-14.54
-22.65
-30.99
-38.36
-43.64
-46.38
-46.95
-46.10
-44.56
-42.64
-40.28
-37.16
-32.97
-27.64
-21.51
-15.25
-9.58
-5.01
-1.68
0.61
2.22
3.40
4.13
4.16
3.30
1.67
-0.27
-1.83
-2.45
-2.01
-0.83
0.42
0.89
-0.33
-4.04
-10.95
-21.50
-35.75
-53.31
-73.46
-95.15
-117.09
-137.74
-155.26
-167.56
-172.49
-168.30
-154.21
-130.75
-99.90
-64.92
-29.77
1.37
24.66
37.37
38.56
29.76
15.02
-0.09
-10.14
-11.79
-4.77
8.33
23.62
37.75
49.16
58.13
65.73
72.67
78.81
83.32
85.51
85.66
84.73
83.72
82.83
81.28
77.94
72.26
64.69
56.54
49.20
43.30
38.53
34.00
28.95
23.24
17.33
11.95
7.76
5.18
4.40
5.28
7.16
8.66
7.88
3.25
-5.55
-17.08
-28.67
-37.60
-42.34
-43.03
-41.15
-38.38
-35.76
-33.40
-30.93
-28.01
-24.60
-20.90
-17.00
-12.61
-7.24
-0.71
6.48
13.20
18.31
21.24
22.35
22.70
23.40
25.02
27.34
29.54
30.58
29.68
26.52
21.33
14.99
8.93
4.85
4.13
7.22
13.45
21.25
28.81
34.70
38.31
39.71
39.47
38.49
37.88
38.75
41.80
46.98
53.25
58.92
62.42
63.08
61.37
58.60
56.25
55.32
56.25
59.04
63.43
68.86
74.57
79.86
84.64
89.96
97.77
109.96
126.89
146.36
163.79
173.73
171.80
156.19
128.02
90.82
49.88
11.69
-16.58
-28.31
-19.40
9.92
54.41
105.16
152.58
189.64
213.43
224.71
225.85
218.75
203.99
181.61
152.27
118.07
82.13
47.45
15.77
-12.74
-39.22
-65.20
-91.98
-120.18
-149.77
-180.26
-211.04
-241.73
-272.19
-302.53
-332.86
-363.18
-393.54
-424.54
-457.82
-495.73
-539.98
-589.59
-639.40
-680.31
-701.79
-695.81
-660.23
-599.93
-524.85
-446.17
-372.50
-307.70
-251.32
-200.44
-151.70
-102.51
-51.29
2.23
56.44
107.39
149.09
175.19
181.36
167.10
136.45
96.93
57.28
25.42
6.76
3.48
14.48
35.91
62.28
88.01
108.99
123.67
132.71
137.52
138.36
133.77
121.93
102.82
79.86
59.14
46.52
44.26
49.21
54.07
51.17
36.55
11.97
-16.17
-40.30
-55.27
-60.11
-57.17
-49.70
-39.43
-26.04
-8.09
15.13
41.79
67.20
85.02
89.66
78.98
56.00
28.49
6.60
-0.76
10.33
37.62
74.47
113.67
150.95
186.12
221.36
258.10
294.92
326.92
347.98
354.07
345.37
326.08
302.05
278.14
256.85
239.33
225.52
215.34
209.29
208.19
212.31
220.07
227.81
230.88
226.23
212.55
190.54
162.13
129.41
93.65
55.05
13.28
-37.06
-94.69
-152.66
-201.39
-234.17
-250.00
-252.49
-246.59
-236.10
-223.10
-207.61
-189.87
-170.92
-152.53
-136.23
-122.69
-111.63
-102.19
-93.35
-83.74
-73.10
-62.23
-52.67
-45.73
-41.95
-40.76
-40.98
-41.09
-39.33
-34.79
-27.33
-17.72
-6.90
4.20
14.97
24.90
33.41
40.48
45.94
49.46
50.81
50.02
47.57
44.17
40.76
38.14
36.77
36.86
38.49
41.35
45.24
49.94
55.34
61.42
68.29
75.59
83.10
90.70
98.33
105.96
113.71
121.55
129.66
138.16
146.67
154.75
162.20
168.60
173.62
176.60
176.65
172.09
165.82
158.45
150.43
141.90
133.10
124.15
115.27
106.58
98.33
90.73
83.49
76.32
69.26
61.90
54.21
46.34
38.78
31.84
25.90
20.47
15.36
10.32
5.03
-0.71
-6.59
-12.31
-17.48
-22.06
-26.42
-30.96
-35.82
-41.91
-49.38
-57.79
-66.18
-73.99
-81.14
-88.27
-95.93
-104.50
-116.17
-131.77
-150.00
-168.58
-185.70
-201.16
-215.80
-230.79
-246.73
-268.50
-297.87
-332.77
-368.52
-401.53
-430.65
-456.89
-481.75
-506.73
-540.50
-587.50
-645.08
-705.19
-758.81
-799.69
-824.68
-833.75
-829.08
-824.07
-826.54
-834.43
-837.80
-826.64
-796.37
-748.92
-690.57
-565.66
-360.25
-103.68
149.99
358.90
509.14
605.96
661.37
687.25
693.63
678.52
642.79
593.26
540.81
493.90
455.86
425.85
402.03
382.21
358.98
329.38
296.91
268.98
251.73
247.21
253.93
269.17
288.29
302.91
308.19
304.22
294.48
282.54
270.17
257.42
244.16
230.46
214.75
196.63
177.46
159.43
144.14
131.86
121.71
113.01
105.51
98.79
93.02
88.87
86.80
86.59
88.92
91.20
92.07
91.15
89.11
87.04
85.89
85.82
86.26
86.37
85.06
82.23
78.50
75.23
73.97
76.28
83.14
95.21
112.29
132.27
151.38
164.55
167.15
157.20
136.75
110.98
86.79
70.01
62.94
64.49
71.12
78.75
84.02
88.17
91.49
94.06
95.48
95.06
92.57
88.58
84.34
81.33
80.64
81.93
84.02
85.29
84.26
80.21
73.54
65.42
57.42
50.89
46.16
42.95
40.52
38.02
34.88
31.03
26.84
22.85
19.56
16.88
14.49
11.89
8.70
4.73
0.11
-4.83
-9.70
-14.24
-18.62
-23.17
-28.35
-34.48
-41.66
-49.68
-58.15
-66.55
-74.53
-82.00
-89.08
-96.08
-103.35
-111.19
-119.73
-128.85
-138.16
-147.01
-154.63
-160.39
-163.94
-165.31
-164.76
-162.68
-159.33
-155.08
-150.42
-146.24
-143.68
-143.75
-146.82
-152.15
-158.08
-162.51
-163.94
-161.88
-157.22
-151.70
-147.27
-145.43
-146.99
-152.06
-160.03
-169.45
-177.97
-182.92
-182.27
-175.82
-165.93
-157.05
-153.94
-159.51
-173.21
-191.11
-207.47
-217.17
-217.61
-209.31
-194.87
-177.45
-159.29
-141.42
-124.04
-107.40
-92.15
-79.19
-69.36
-62.58
-57.90
-53.79
-48.88
-42.62
-35.45
-28.51
-23.06
-19.90
-18.96
-19.44
-20.11
-19.74
-17.52
-13.23
-7.24
-0.28
6.95
13.92
20.47
26.66
32.60
38.33
43.66
48.24
51.66
53.74
54.60
54.66
54.50
54.71
55.64
57.39
59.78
62.57
65.56
68.70
72.03
75.53
79.03
82.19
84.63
86.09
86.53
86.10
84.96
83.11
80.46
76.71
71.61
64.98
56.93
47.78
38.01
28.15
18.66
9.81
1.64
-5.90
-12.91
-19.38
-25.21
-30.22
-34.23
-37.04
-38.44
-38.13
-35.88
-31.61
-25.61
-18.51
-11.18
-4.39
1.30
5.69
8.84
10.92
12.13
12.60
12.44
11.91
11.30
10.93
11.02
11.67
12.81
14.33
16.13
18.11
20.16
22.14
23.87
25.15
25.83
25.80
25.05
23.66
21.79
19.54
17.00
14.25
11.37
8.52
5.78
3.26
0.93
-1.36
-3.78
-6.47
-9.49
-12.66
-15.73
-18.39
-20.35
-21.36
-21.21
-19.74
-16.89
-12.77
-7.64
-1.96
3.79
9.12
13.68
17.20
19.61
20.89
21.17
20.58
19.34
17.68
15.86
14.06
12.42
11.07
10.07
9.39
9.08
9.07
9.38
9.95
10.66
11.29
11.68
11.66
11.22
10.46
9.53
8.54
7.55
6.47
5.21
3.70
1.98
0.16
-1.67
-3.54
-5.57
-7.91
-10.55
-13.31
-15.77
-17.45
-17.92
-16.87
-14.31
-10.36
-5.34
0.42
6.54
12.60
18.17
22.92
26.65
29.29
30.91
31.65
31.72
31.36
30.83
30.42
30.30
30.56
31.14
31.82
32.33
32.44
32.03
31.13
29.96
28.75
27.63
26.64
25.69
24.59
23.13
21.20
18.76
15.93
12.83
9.61
6.40
3.29
0.44
-2.05
-4.01
-5.40
-6.25
-6.80
-7.32
-8.09
-9.32
-11.07
-13.27
-15.84
-18.65
-21.50
-24.08
-25.92
-26.49
-25.39
-22.49
-17.96
-12.32
-6.30
-0.54
4.48
8.54
11.62
13.71
14.93
15.26
14.76
13.62
12.08
10.52
9.33
8.81
9.05
10.01
11.52
13.34
15.27
17.09
18.58
19.55
19.90
19.57
18.70
17.39
15.84
14.22
12.70
11.42
10.46
9.90
9.59
9.33
8.84
7.89
6.48
4.70
2.78
0.84
-1.13
-3.24
-5.65
-8.38
-11.25
-13.97
-16.18
-17.62
-18.20
-17.88
-16.68
-14.55
-11.41
-7.32
-2.49
2.62
7.48
11.58
14.62
16.53
17.42
17.50
16.96
16.03
14.86
13.64
12.56
11.79
11.44
11.57
12.16
13.16
14.47
15.96
17.45
18.66
19.37
19.40
18.73
17.44
15.73
13.76
11.69
9.62
7.64
5.84
4.23
2.84
1.49
0.07
-1.63
-3.67
-5.96
-8.32
-10.52
-12.39
-13.84
-14.92
-15.69
-16.24
-16.66
-17.00
-17.35
-17.78
-18.22
-18.54
-18.50
-17.76
-16.00
-13.04
-8.88
-3.81
1.63
6.81
11.12
14.21
16.07
16.90
17.02
16.71
15.98
14.85
13.40
11.81
10.45
9.70
9.75
10.54
11.83
13.25
14.54
15.60
16.39
16.95
17.28
17.27
16.87
16.02
14.78
13.35
11.91
10.63
9.57
8.66
7.73
6.66
5.36
3.83
2.17
0.46
-1.20
-2.84
-4.45
-6.11
-7.81
-9.59
-11.47
-13.45
-15.44
-17.16
-18.23
-18.24
-16.93
-14.30
-10.65
-6.50
-2.35
1.41
4.61
7.24
9.30
10.76
11.61
11.83
11.43
10.57
9.40
8.13
6.95
6.04
5.55
5.57
6.12
7.10
8.35
9.61
10.61
11.17
11.23
10.86
10.17
9.26
8.20
7.07
5.93
4.91
4.13
3.63
3.34
3.04
2.49
1.54
0.27
-1.16
-2.53
-3.71
-4.80
-5.94
-7.32
-9.01
-10.88
-12.69
-14.16
-15.01
-15.01
-14.07
-12.13
-9.26
-5.62
-1.52
2.62
6.30
9.11
10.81
11.38
11.02
9.99
8.52
6.75
4.75
2.58
0.43
-1.40
-2.66
-3.16
-2.91
-2.06
-0.83
0.65
2.25
3.88
5.36
6.49
7.11
7.11
6.52
5.48
4.16
2.77
1.43
0.22
-0.82
-1.74
-2.63
-3.58
-4.65
-5.82
-6.98
-8.00
-8.73
-9.11
-9.22
-9.20
-9.18
-9.36
-9.79
-10.47
-11.27
-12.00
-12.42
-12.29
-11.38
-9.54
-6.88
-3.59
-0.03
3.38
6.29
8.44
9.75
10.28
10.18
9.63
8.83
7.97
7.28
6.84
6.76
6.98
7.48
8.16
8.94
9.79
10.67
11.49
12.18
12.64
12.77
12.58
12.03
11.16
9.97
8.48
6.75
4.88
2.98
1.16
-0.54
-2.11
-3.60
-4.98
-6.23
-7.30
-8.15
-8.80
-9.29
-9.66
-9.89
-9.94
-9.76
-9.49
-9.34
-9.55
-10.28
-11.47
-12.87
-14.16
-14.99
-15.18
-14.72
-13.65
-12.05
-9.91
-7.25
-4.12
-0.69
2.70
5.59
7.61
8.55
8.53
7.90
7.08
6.52
6.44
6.84
7.57
8.44
9.30
10.05
10.69
11.25
11.80
12.34
12.93
13.55
14.15
14.63
14.76
14.40
13.43
11.91
9.96
7.84
5.81
4.07
2.74
1.79
1.13
0.60
0.06
-0.70
-1.76
-3.05
-4.44
-5.69
-6.62
-7.11
-7.31
-7.48
-7.90
-8.71
-9.88
-11.24
-12.58
-13.76
-14.67
-15.26
-15.37
-14.78
-13.28
-10.84
-7.60
-3.89
-0.17
3.20
5.95
7.94
9.20
9.81
9.88
9.57
9.12
8.66
8.31
8.12
8.08
8.23
8.59
9.15
9.92
10.82
11.76
12.64
13.38
13.90
14.12
13.95
13.30
12.15
10.57
8.67
6.68
4.80
3.17
1.88
0.90
0.21
-0.33
-0.80
-1.40
-2.23
-3.30
-4.56
-5.87
-7.12
-8.29
-9.45
-10.67
-12.01
-13.43
-14.79
-16.06
-17.21
-18.23
-19.00
-19.25
-18.59
-16.77
-13.79
-9.95
-5.87
-2.21
0.53
2.16
2.75
2.58
1.87
0.85
-0.38
-1.71
-2.90
-3.65
-3.70
-2.88
-1.27
0.80
2.99
4.97
6.53
7.63
8.33
8.69
8.76
8.59
8.18
7.57
6.84
6.04
5.27
4.60
4.09
3.74
3.48
3.17
2.67
1.85
0.74
-0.62
-2.16
-3.81
-5.57
-7.46
-9.45
-11.44
-13.25
-14.64
-15.37
-15.27
-14.26
-12.36
-9.66
-6.39
-2.83
0.61
3.51
5.56
6.61
6.73
6.24
5.53
4.96
4.78
4.99
5.54
6.32
7.26
8.31
9.41
10.44
11.23
11.61
11.52
11.00
10.28
9.58
9.09
8.81
8.62
8.34
7.83
7.06
6.09
5.10
4.20
3.42
2.68
1.81
0.73
-0.55
-1.95
-3.23
-4.25
-4.93
-5.34
-5.69
-6.20
-7.07
-8.39
-10.11
-12.04
-13.91
-15.47
-16.50
-16.92
-16.74
-15.98
-14.66
-12.78
-10.37
-7.51
-4.42
-1.41
1.17
3.09
4.21
4.62
4.47
4.00
3.41
2.93
2.74
2.96
3.68
4.82
6.24
7.72
9.05
10.08
10.81
11.30
11.58
11.72
11.70
11.51
11.17
10.72
10.20
9.62
8.90
8.01
6.96
5.81
4.66
3.58
2.62
1.80
1.14
0.72
0.62
0.91
1.53
2.30
3.01
3.42
3.43
3.06
2.42
1.59
0.66
-0.38
-1.60
-2.99
-4.53
-6.13
-7.61
-8.85
-9.72
-10.15
-10.06
-9.37
-7.99
-5.94
-3.38
-0.59
1.98
3.98
5.12
5.37
4.88
3.96
2.95
2.18
1.88
2.19
3.11
4.54
6.27
8.03
9.59
10.74
11.42
11.60
11.37
10.82
10.09
9.29
8.45
7.60
6.71
5.76
4.71
3.63
2.53
1.50
0.64
-0.01
-0.43
-0.64
-0.78
-0.96
-1.27
-1.76
-2.39
-3.10
-3.81
-4.53
-5.29
-6.17
-7.25
-8.55
-10.03
-11.63
-13.23
-14.69
-15.87
-16.63
-16.87
-16.52
-15.62
-14.22
-12.47
-10.49
-8.42
-6.35
-4.34
-2.50
-0.90
0.39
1.31
1.86
2.05
1.98
1.77
1.57
1.51
1.73
2.30
3.22
4.35
5.51
6.51
7.25
7.74
7.94
7.86
7.41
6.51
5.14
3.42
1.68
0.19
-0.87
-1.51
-1.92
-2.29
-2.72
-3.17
-3.54
-3.76
-3.93
-4.18
-4.65
-5.30
-5.96
-6.43
-6.60
-6.61
-6.74
-7.29
-8.35
-9.85
-11.44
-12.80
-13.67
-13.93
-13.60
-12.73
-11.31
-9.27
-6.62
-3.48
-0.13
3.02
5.61
7.37
8.23
8.33
7.90
7.20
6.43
5.72
5.11
4.65
4.30
4.05
3.90
3.86
3.94
4.14
4.46
4.83
5.23
5.62
6.01
6.45
6.88
7.23
7.40
7.29
6.84
6.14
5.22
4.22
3.20
2.18
1.16
0.19
-0.70
-1.47
-2.09
-2.57
-2.94
-3.29
-3.65
-4.16
-4.86
-5.85
-7.17
-8.75
-10.47
-12.09
-13.39
-14.23
-14.56
-14.35
-13.59
-12.24
-10.23
-7.61
-4.61
-1.61
0.94
2.69
3.58
3.80
3.65
3.38
3.10
2.82
2.54
2.40
2.58
3.28
4.50
6.01
7.44
8.40
8.72
8.40
7.71
6.89
6.11
5.43
4.81
4.20
3.58
2.99
2.46
2.07
1.84
1.76
1.77
1.76
1.68
1.45
1.04
0.48
-0.17
-0.90
-1.66
-2.44
-3.22
-3.97
-4.70
-5.32
-5.86
-6.35
-6.85
-7.46
-8.18
-8.99
-9.76
-10.34
-10.59
-10.38
-9.69
-8.57
-7.09
-5.25
-3.08
-0.59
2.12
4.82
7.26
9.11
10.23
10.57
10.23
9.39
8.24
7.00
5.85
5.05
4.78
5.22
6.30
7.84
9.47
10.90
11.95
12.58
12.93
13.14
13.30
13.38
13.24
12.75
11.84
10.58
9.12
7.71
6.56
5.77
5.30
5.00
4.68
4.09
3.12
1.76
0.18
-1.38
-2.72
-3.75
-4.50
-5.03
-5.39
-5.59
-5.68
-5.77
-6.06
-6.82
-8.22
-10.21
-12.55
-14.88
-16.80
-18.07
-18.53
-18.19
-17.09
-15.31
-12.92
-10.12
-7.09
-4.04
-1.23
1.19
3.12
4.51
5.39
5.79
5.76
5.41
4.85
4.27
3.84
3.69
3.91
4.52
5.42
6.48
7.54
8.44
9.02
9.17
8.87
8.15
7.16
6.05
4.98
4.01
3.11
2.22
1.33
0.44
-0.40
-1.10
-1.64
-2.07
-2.45
-2.91
-3.55
-4.37
-5.35
-6.42
-7.52
-8.66
-9.86
-11.18
-12.62
-14.16
-15.67
-17.06
-18.30
-19.32
-20.08
-20.39
-20.01
-18.68
-16.29
-12.91
-8.89
-4.71
-0.87
2.18
4.21
5.17
5.21
4.60
3.68
2.73
2.00
1.69
1.88
2.56
3.63
4.91
6.14
7.09
7.60
7.66
7.40
7.01
6.64
6.41
6.25
6.09
5.81
5.35
4.76
4.15
3.61
3.21
2.89
2.52
1.97
1.15
0.11
-1.10
-2.38
-3.65
-4.90
-6.12
-7.34
-8.58
-9.83
-11.06
-12.29
-13.49
-14.64
-15.68
-16.43
-16.70
-16.23
-14.85
-12.52
-9.43
-5.87
-2.27
0.91
3.38
5.02
5.91
6.26
6.29
6.19
6.08
6.04
6.15
6.55
7.28
8.29
9.41
10.39
10.97
11.06
10.67
9.91
9.03
8.13
7.33
6.65
6.09
5.60
5.14
4.71
4.34
4.08
3.95
3.89
3.79
3.60
3.26
2.82
2.36
1.91
1.48
0.99
0.38
-0.40
-1.30
-2.26
-3.24
-4.24
-5.33
-6.60
-8.15
-9.97
-11.97
-13.98
-15.79
-17.15
-17.90
-17.88
-17.06
-15.42
-13.03
-10.04
-6.63
-3.10
0.30
3.28
5.70
7.51
8.82
9.78
10.51
11.11
11.54
11.76
11.82
11.78
11.78
11.91
12.21
12.60
13.05
13.46
13.85
14.20
14.40
14.37
13.99
13.33
12.53
11.90
11.61
11.73
12.09
12.29
12.09
11.23
9.78
7.94
5.99
4.15
2.62
1.49
0.71
0.29
0.12
0.14
0.18
0.13
-0.24
-1.07
-2.43
-4.33
-6.54
-8.83
-10.92
-12.59
-13.74
-14.34
-14.45
-14.00
-12.98
-11.30
-9.03
-6.30
-3.37
-0.63
1.63
3.16
3.90
3.90
3.34
2.43
1.44
0.67
0.38
0.75
1.76
3.25
4.93
6.50
7.79
8.70
9.30
9.65
9.85
9.89
9.73
9.32
8.65
7.72
6.63
5.49
4.48
3.79
3.44
3.37
3.36
3.17
2.62
1.68
0.45
-0.89
-2.25
-3.64
-5.07
-6.58
-8.07
-9.37
-10.35
-10.95
-11.28
-11.56
-11.96
-12.58
-13.41
-14.37
-15.26
-15.91
-16.07
-15.51
-14.09
-11.88
-9.07
-6.02
-3.16
-0.86
0.69
1.41
1.40
0.80
-0.25
-1.54
-2.93
-4.23
-5.19
-5.62
-5.34
-4.30
-2.57
-0.41
1.83
3.78
5.17
6.01
6.40
6.56
6.71
6.92
7.14
7.23
7.10
6.66
6.01
5.20
4.27
3.19
1.95
0.57
-0.83
-2.11
-3.18
-4.02
-4.78
-5.56
-6.45
-7.37
-8.16
-8.57
-8.46
-7.81
-6.73
-5.36
-3.79
-2.02
-0.03
2.15
4.42
6.58
8.40
9.71
10.48
10.76
10.73
10.55
10.25
9.86
9.43
9.02
8.68
8.50
8.43
8.43
8.43
8.40
8.38
8.49
8.80
9.31
9.91
10.43
10.71
10.70
10.46
10.12
9.83
9.64
9.49
9.22
8.60
7.45
5.65
3.12
-0.04
-3.65
-7.41
-10.96
-13.92
-16.08
-17.34
-17.81
-17.68
-17.09
-16.14
-14.85
-13.20
-11.19
-8.96
-6.71
-4.77
-3.48
-3.08
-3.55
-4.63
-5.81
-6.57
-6.60
-6.01
-5.13
-4.40
-4.18
-4.49
-5.09
-5.62
-5.83
-5.63
-5.09
-4.26
-3.13
-1.55
0.54
3.19
6.24
9.33
12.07
14.09
15.26
15.63
15.45
14.94
14.28
13.54
12.74
11.82
10.79
9.70
8.64
7.65
6.81
6.10
5.47
4.91
4.30
3.57
2.62
1.49
0.21
-1.09
-2.39
-3.70
-5.07
-6.59
-8.22
-9.89
-11.45
-12.72
-13.49
-13.64
-13.10
-11.84
-9.94
-7.56
-4.89
-2.18
0.34
2.54
4.24
5.37
5.92
5.91
5.53
5.03
4.68
4.65
5.00
5.57
6.17
6.62
6.79
6.76
6.59
6.30
5.90
5.32
4.54
3.68
2.91
2.33
2.02
1.89
1.76
1.52
1.16
0.77
0.52
0.54
0.85
1.38
1.90
2.18
2.06
1.48
0.51
-0.84
-2.50
-4.49
-6.76
-9.23
-11.67
-13.80
-15.45
-16.59
-17.35
-17.89
-18.34
-18.58
-18.42
-17.62
-16.07
-13.83
-11.19
-8.44
-5.89
-3.76
-2.06
-0.76
0.28
1.21
2.08
2.87
3.60
4.31
5.07
5.96
6.97
8.00
8.85
9.34
9.35
8.96
8.33
7.66
7.11
6.67
6.34
6.02
5.64
5.16
4.58
3.97
3.38
2.90
2.51
2.19
1.83
1.36
0.70
-0.12
-1.19
-2.57
-4.30
-6.43
-8.85
-11.30
-13.41
-14.86
-15.48
-15.31
-14.48
-13.17
-11.48
-9.48
-7.23
-4.83
-2.47
-0.35
1.37
2.65
3.57
4.26
4.87
5.48
6.15
6.90
7.73
8.60
9.46
10.19
10.62
10.65
10.24
9.53
8.71
7.92
7.23
6.60
5.96
5.23
4.44
3.58
2.71
1.80
0.91
0.11
-0.49
-0.70
-0.50
0.02
0.65
1.18
1.44
1.45
1.30
1.08
0.90
0.74
0.54
0.20
-0.36
-1.21
-2.38
-3.88
-5.69
-7.67
-9.67
-11.51
-13.00
-14.00
-14.42
-14.21
-13.36
-11.94
-10.06
-7.93
-5.81
-4.00
-2.72
-2.07
-1.98
-2.18
-2.32
-2.10
-1.37
-0.17
1.41
3.20
5.06
6.89
8.51
9.72
10.32
10.22
9.54
8.56
7.62
6.96
6.61
6.34
5.87
4.97
3.68
2.13
0.65
-0.46
-1.06
-1.13
-0.77
-0.15
0.57
1.29
1.88
2.27
2.41
2.20
1.60
0.61
-0.77
-2.38
-4.08
-5.69
-7.07
-8.22
-9.19
-10.12
-11.09
-12.08
-13.00
-13.73
-14.14
-14.18
-13.77
-12.88
-11.47
-9.51
-7.09
-4.37
-1.60
0.95
3.05
4.52
5.32
5.52
5.22
4.55
3.67
2.71
1.78
0.98
0.34
-0.13
-0.44
-0.70
-0.99
-1.42
-1.98
-2.61
-3.20
-3.58
-3.64
-3.34
-2.74
-1.91
-0.96
0.06
1.10
2.09
2.97
3.63
4.04
4.21
4.26
4.26
4.26
4.15
3.81
3.08
1.86
0.20
-1.73
-3.67
-5.47
-6.94
-7.98
-8.50
-8.43
-7.73
-6.40
-4.50
-2.15
0.46
3.09
5.50
7.45
8.77
9.36
9.30
8.76
7.97
7.19
6.64
6.41
6.55
6.98
7.58
8.19
8.65
8.81
8.63
8.13
7.36
6.40
5.36
4.28
3.17
2.04
0.93
-0.09
-0.93
-1.49
-1.73
-1.73
-1.58
-1.43
-1.41
-1.49
-1.63
-1.72
-1.71
-1.61
-1.52
-1.57
-1.90
-2.63
-3.74
-5.14
-6.67
-8.12
-9.28
-10.07
-10.53
-10.75
-10.87
-10.92
-10.83
-10.50
-9.76
-8.56
-6.93
-5.02
-2.99
-1.00
0.81
2.38
3.62
4.55
5.13
5.43
5.52
5.54
5.62
5.89
6.36
7.00
7.76
8.49
9.14
9.59
9.82
9.79
9.51
9.02
8.35
7.61
6.87
6.17
5.49
4.79
4.02
3.13
2.15
1.10
0.07
-0.88
-1.71
-2.44
-3.13
-3.79
-4.47
-5.17
-5.88
-6.70
-7.75
-9.10
-10.74
-12.52
-14.11
-15.23
-15.61
-15.24
-14.20
-12.69
-10.88
-8.87
-6.76
-4.57
-2.43
-0.39
1.47
3.06
4.37
5.40
6.18
6.74
7.17
7.50
7.85
8.33
8.99
9.84
10.79
11.73
12.47
12.94
13.05
12.90
12.60
12.23
11.83
11.36
10.74
9.94
9.00
8.02
7.13
6.40
5.76
5.15
4.42
3.49
2.33
0.93
-0.65
-2.37
-4.11
-5.74
-7.05
-7.91
-8.29
-8.31
-8.18
-8.10
-8.17
-8.38
-8.62
-8.80
-8.91
-9.01
-9.19
-9.49
-9.87
-10.24
-10.51
-10.63
-10.59
-10.43
-10.19
-9.97
-9.81
-9.74
-9.74
-9.72
-9.53
-9.01
-8.03
-6.54
-4.63
-2.47
-0.32
1.54
2.86
3.50
3.46
2.85
1.91
0.85
-0.17
-1.12
-1.95
-2.61
-2.97
-2.92
-2.37
-1.33
0.04
1.52
2.85
3.85
4.46
4.72
4.68
4.38
3.75
2.69
1.10
-0.97
-3.27
-5.44
-7.06
-7.86
-7.84
-7.22
-6.37
-5.53
-4.82
-4.14
-3.28
-2.10
-0.58
1.03
2.49
3.60
4.41
5.04
5.70
6.50
7.36
8.08
8.45
8.44
8.24
8.15
8.37
8.95
9.65
10.15
10.17
9.65
8.74
7.71
6.82
6.22
5.92
5.79
5.62
5.27
4.66
3.79
2.78
1.74
0.83
0.12
-0.35
-0.63
-0.79
-0.93
-1.19
-1.70
-2.52
-3.68
-5.13
-6.70
-8.21
-9.43
-10.29
-10.74
-10.90
-10.83
-10.57
-10.03
-9.10
-7.69
-5.82
-3.64
-1.41
0.67
2.43
3.82
4.77
5.23
5.20
4.78
4.22
3.82
3.91
4.65
5.96
7.61
9.28
10.69
11.70
12.32
12.56
12.50
12.11
11.32
10.10
8.55
6.82
5.16
3.78
2.76
2.17
1.91
1.87
1.93
2.01
2.02
1.92
1.70
1.35
0.93
0.48
-0.03
-0.58
-1.20
-1.92
-2.78
-3.80
-5.02
-6.43
-7.97
-9.53
-10.89
-11.84
-12.17
-11.76
-10.54
-8.59
-6.02
-3.02
0.13
3.04
5.19
6.19
5.81
4.23
1.95
-0.38
-2.20
-3.28
-3.66
-3.61
-3.36
-2.99
-2.52
-1.91
-1.21
-0.48
0.18
0.82
1.48
2.24
3.08
3.95
4.71
5.25
5.57
5.64
5.52
5.16
4.60
3.85
2.96
1.98
0.88
-0.36
-1.77
-3.30
-4.87
-6.35
-7.59
-8.61
-9.38
-9.98
-10.48
-10.91
-11.26
-11.56
-11.83
-12.09
-12.34
-12.44
-12.25
-11.58
-10.33
-8.44
-6.06
-3.42
-0.82
1.38
3.05
4.08
4.53
4.44
3.95
3.20
2.43
1.94
2.00
2.77
4.17
5.92
7.65
9.04
9.95
10.36
10.36
10.00
9.35
8.43
7.34
6.19
5.08
4.11
3.26
2.48
1.75
1.12
0.67
0.52
0.73
1.15
1.60
1.76
1.47
0.69
-0.42
-1.65
-2.84
-3.94
-5.11
-6.41
-7.86
-9.16
-9.89
-9.66
-8.30
-6.00
-3.21
-0.51
1.74
3.32
4.30
4.78
4.82
4.44
3.68
2.74
1.90
1.55
1.88
2.88
4.27
5.69
6.90
7.78
8.42
8.87
9.19
9.29
9.07
8.46
7.47
6.26
4.92
3.55
2.20
0.95
-0.15
-1.04
-1.66
-2.07
-2.33
-2.54
-2.72
-2.91
-3.04
-3.07
-3.05
-3.00
-3.03
-3.30
-3.98
-5.10
-6.60
-8.26
-9.74
-10.79
-11.26
-11.22
-10.84
-10.34
-9.83
-9.26
-8.53
-7.57
-6.38
-5.01
-3.54
-2.02
-0.44
1.16
2.73
4.13
5.25
6.00
6.45
6.73
7.05
7.54
8.25
9.06
9.79
10.22
10.29
10.03
9.63
9.35
9.35
9.66
10.14
10.61
10.82
10.62
9.88
8.59
6.81
4.63
2.26
-0.10
-2.24
-4.03
-5.36
-6.23
-6.61
-6.52
-6.04
-5.33
-4.58
-3.97
-3.61
-3.56
-3.77
-4.15
-4.62
-5.17
-5.84
-6.67
-7.66
-8.77
-9.89
-10.91
-11.69
-12.16
-12.25
-11.98
-11.37
-10.48
-9.36
-8.07
-6.64
-5.06
-3.41
-1.74
-0.11
1.33
2.48
3.31
3.79
4.02
4.13
4.26
4.59
5.22
6.12
7.18
8.24
9.11
9.72
10.01
10.03
9.79
9.30
8.53
7.47
6.20
4.85
3.63
2.67
2.03
1.65
1.38
1.02
0.42
-0.48
-1.67
-2.99
-4.35
-5.70
-7.06
-8.46
-9.90
-11.34
-12.73
-14.03
-15.20
-16.22
-16.97
-17.39
-17.39
-17.02
-16.40
-15.65
-14.82
-13.86
-12.60
-10.88
-8.65
-5.96
-3.02
-0.07
2.65
4.99
6.86
8.27
9.27
9.94
10.30
10.43
10.35
10.19
10.10
10.22
10.57
11.07
11.52
11.70
11.53
11.02
10.34
9.65
9.15
8.88
8.88
9.04
9.19
9.16
8.77
7.99
6.83
5.40
3.83
2.24
0.67
-0.83
-2.22
-3.48
-4.60
-5.64
-6.66
-7.76
-8.93
-10.15
-11.32
-12.30
-13.05
-13.57
-13.86
-14.01
-13.95
-13.60
-12.84
-11.55
-9.74
-7.51
-5.06
-2.60
-0.37
1.57
3.08
4.17
4.85
5.25
5.47
5.70
6.05
6.48
6.94
7.28
7.47
7.49
7.51
7.62
7.91
8.44
9.11
9.89
10.61
11.13
11.29
10.95
10.08
8.79
7.32
5.88
4.68
3.71
2.90
2.14
1.35
0.54
-0.24
-0.98
-1.74
-2.57
-3.51
-4.51
-5.46
-6.28
-6.93
-7.52
-8.24
-9.22
-10.48
-11.84
-13.10
-14.05
-14.66
-14.97
-15.07
-14.96
-14.50
-13.47
-11.69
-9.22
-6.28
-3.30
-0.66
1.42
2.91
3.88
4.44
4.70
4.77
4.79
4.96
5.46
6.39
7.65
9.02
10.19
10.98
11.33
11.34
11.21
11.08
11.01
10.94
10.85
10.70
10.49
10.26
10.00
9.74
9.44
9.08
8.69
8.25
7.75
7.10
6.23
5.02
3.43
1.45
-0.79
-3.08
-5.16
-6.77
-7.82
-8.26
-8.30
-8.20
-8.25
-8.60
-9.28
-10.18
-11.12
-11.97
-12.63
-13.08
-13.26
-13.16
-12.69
-11.85
-10.62
-9.04
-7.13
-4.97
-2.71
-0.53
1.34
2.75
3.67
4.17
4.48
4.77
5.16
5.61
6.05
6.42
6.68
6.84
6.90
6.87
6.68
6.32
5.85
5.39
5.08
5.02
5.24
5.64
6.08
6.33
6.24
5.68
4.65
3.23
1.54
-0.18
-1.81
-3.20
-4.36
-5.32
-6.14
-6.85
-7.42
-7.79
-7.94
-7.98
-8.08
-8.46
-9.23
-10.41
-11.85
-13.35
-14.74
-15.90
-16.70
-16.99
-16.60
-15.34
-13.11
-10.04
-6.44
-2.71
0.75
3.71
6.07
7.89
9.25
10.26
10.95
11.36
11.52
11.49
11.41
11.37
11.43
11.56
11.71
11.74
11.53
11.00
10.19
9.17
8.15
7.30
6.75
6.53
6.55
6.64
6.63
6.36
5.79
4.88
3.64
2.06
0.18
-1.87
-3.88
-5.58
-6.78
-7.43
-7.63
-7.64
-7.67
-7.87
-8.20
-8.57
-8.93
-9.29
-9.65
-10.04
-10.37
-10.54
-10.39
-9.79
-8.68
-7.09
-5.14
-2.99
-0.89
0.97
2.46
3.57
4.44
5.22
6.09
7.13
8.26
9.37
10.35
11.10
11.54
11.69
11.55
11.16
10.59
9.89
9.13
8.39
7.72
7.10
6.57
6.11
5.75
5.50
5.39
5.45
5.64
5.87
5.98
5.83
5.29
4.36
3.12
1.68
0.23
-1.11
-2.30
-3.33
-4.27
-5.23
-6.20
-7.17
-8.10
-8.91
-9.59
-10.16
-10.70
-11.31
-12.12
-13.16
-14.33
-15.41
-16.06
-15.96
-14.87
-12.75
-9.81
-6.50
-3.30
-0.65
1.22
2.29
2.72
2.83
2.96
3.40
4.24
5.48
6.88
8.19
9.22
9.86
10.14
10.19
10.14
10.15
10.31
10.64
11.13
11.75
12.36
12.79
12.83
12.35
11.34
9.95
8.41
6.96
5.75
4.72
3.73
2.61
1.23
-0.33
-1.88
-3.24
-4.28
-5.00
-5.50
-5.81
-5.94
-5.89
-5.72
-5.53
-5.57
-6.00
-6.90
-8.20
-9.72
-11.27
-12.80
-14.29
-15.74
-17.07
-18.02
-18.31
-17.70
-16.12
-13.66
-10.55
-7.01
-3.35
0.17
3.26
5.68
7.24
7.98
8.08
7.82
7.47
7.21
7.02
6.88
6.74
6.54
6.30
6.02
5.70
5.38
5.18
5.15
5.34
5.70
6.08
6.34
6.29
5.80
4.87
3.61
2.17
0.75
-0.53
-1.62
-2.54
-3.36
-4.11
-4.80
-5.37
-5.80
-6.12
-6.37
-6.72
-7.22
-7.86
-8.61
-9.32
-10.02
-10.69
-11.36
-12.03
-12.71
-13.28
-13.58
-13.41
-12.60
-11.17
-9.19
-6.87
-4.51
-2.44
-0.80
0.39
1.26
2.03
2.86
3.89
5.10
6.44
7.76
8.98
9.89
10.32
10.12
9.26
7.90
6.30
4.74
3.51
2.75
2.44
2.49
2.85
3.49
4.45
5.69
7.10
8.54
9.79
10.68
11.10
11.00
10.40
9.31
7.80
5.97
3.93
1.84
-0.12
-1.82
-3.15
-4.16
-4.89
-5.48
-6.01
-6.62
-7.35
-8.15
-8.89
-9.35
-9.32
-8.62
-7.20
-5.14
-2.67
-0.08
2.35
4.40
5.95
6.92
7.36
7.33
6.96
6.42
5.88
5.51
5.41
5.60
5.99
6.41
6.75
6.90
6.87
6.68
6.40
6.06
5.75
5.48
5.31
5.22
5.16
5.04
4.72
4.17
3.38
2.45
1.54
0.73
0.06
-0.49
-1.02
-1.58
-2.21
-2.92
-3.68
-4.43
-5.13
-5.80
-6.47
-7.26
-8.22
-9.39
-10.68
-12.04
-13.34
-14.49
-15.47
-16.31
-17.03
-17.67
-18.25
-18.64
-18.68
-18.11
-16.74
-14.48
-11.41
-7.80
-4.02
-0.49
2.49
4.72
6.19
7.03
7.48
7.83
8.35
9.20
10.41
11.93
13.60
15.23
16.65
17.69
18.24
18.29
17.88
17.15
16.35
15.66
15.14
14.80
14.50
14.04
13.19
11.79
9.79
7.25
4.35
1.33
-1.52
-3.98
-5.88
-7.24
-8.07
-8.50
-8.63
-8.54
-8.31
-7.96
-7.55
-7.14
-6.81
-6.66
-6.81
-7.36
-8.31
-9.61
-11.09
-12.57
-13.94
-15.18
-16.40
-17.76
-19.33
-20.88
-22.08
-22.46
-21.70
-19.67
-16.56
-12.74
-8.61
-4.49
-0.54
3.09
6.29
8.89
10.75
11.75
11.98
11.62
10.99
10.33
9.83
9.52
9.37
9.28
9.23
9.29
9.51
9.93
10.45
10.89
11.06
10.88
10.35
9.55
8.60
7.65
6.74
6.04
5.60
5.51
5.68
5.90
5.80
5.05
3.49
1.14
-1.65
-4.50
-6.97
-8.88
-10.21
-11.23
-12.19
-13.29
-14.58
-15.94
-17.25
-18.37
-19.24
-19.87
-20.18
-20.07
-19.36
-17.89
-15.58
-12.54
-9.03
-5.36
-1.95
1.03
3.49
5.47
7.10
8.47
9.51
10.14
10.33
10.11
9.73
9.48
9.61
10.23
11.27
12.51
13.71
14.70
15.38
15.65
15.48
14.85
13.84
12.60
11.35
10.27
9.49
8.99
8.70
8.49
8.15
7.55
6.53
5.10
3.31
1.34
-0.57
-2.20
-3.37
-4.03
-4.29
-4.40
-4.62
-5.15
-6.05
-7.23
-8.52
-9.71
-10.73
-11.55
-12.28
-13.05
-13.90
-14.84
-15.79
-16.59
-16.96
-16.65
-15.46
-13.39
-10.60
-7.39
-4.08
-0.94
1.86
4.28
6.24
7.73
8.70
9.25
9.55
9.86
10.37
11.11
11.99
12.82
13.43
13.71
13.63
13.21
12.48
11.49
10.36
9.19
8.15
7.38
6.88
6.56
6.26
5.83
5.18
4.29
3.19
1.93
0.63
-0.59
-1.67
-2.64
-3.59
-4.73
-6.26
-8.28
-10.66
-13.13
-15.36
-17.12
-18.42
-19.39
-20.19
-20.83
-21.17
-20.90
-19.71
-17.43
-14.06
-9.96
-5.58
-1.47
2.00
4.61
6.37
7.46
8.09
8.44
8.65
8.82
9.05
9.41
9.94
10.61
11.29
11.84
12.17
12.30
12.31
12.22
12.05
11.72
11.13
10.16
8.85
7.33
5.80
4.42
3.33
2.56
2.07
1.76
1.49
1.20
0.86
0.53
0.29
0.14
0.06
-0.08
-0.42
-1.10
-2.12
-3.44
-4.92
-6.42
-7.89
-9.25
-10.47
-11.48
-12.18
-12.53
-12.58
-12.52
-12.47
-12.54
-12.55
-12.18
-11.02
-8.86
-5.79
-2.16
1.48
4.68
7.14
8.77
9.62
9.84
9.55
8.88
8.04
7.21
6.65
6.52
6.86
7.50
8.20
8.69
8.77
8.45
7.82
7.09
6.42
5.90
5.53
5.21
4.97
4.82
4.77
4.78
4.77
4.62
4.26
3.71
3.13
2.66
2.38
2.16
1.80
1.11
-0.02
-1.52
-3.25
-5.02
-6.72
-8.23
-9.42
-10.30
-10.94
-11.55
-12.40
-13.69
-15.41
-17.29
-18.83
-19.50
-18.95
-17.13
-14.22
-10.67
-6.96
-3.45
-0.40
2.08
4.00
5.40
6.34
6.92
7.13
6.99
6.55
5.86
5.06
4.28
3.68
3.36
3.32
3.49
3.81
4.20
4.54
4.74
4.72
4.47
4.00
3.37
2.63
1.82
0.96
0.03
-0.94
-1.95
-2.95
-3.89
-4.74
-5.47
-6.11
-6.68
-7.23
-7.75
-8.21
-8.61
-8.98
-9.41
-9.94
-10.53
-11.01
-11.07
-10.40
-8.81
-6.37
-3.36
-0.22
2.62
4.93
6.65
7.89
8.85
9.67
10.43
11.19
11.93
12.63
13.28
13.78
14.06
14.00
13.56
12.80
11.82
10.73
9.57
8.38
7.15
5.98
4.97
4.26
3.93
3.89
4.00
4.10
4.07
3.91
3.63
3.22
2.60
1.73
0.54
-0.94
-2.62
-4.39
-6.11
-7.75
-9.32
-10.81
-12.18
-13.35
-14.19
-14.67
-14.88
-14.99
-15.21
-15.61
-16.08
-16.36
-16.07
-14.93
-12.88
-10.11
-6.96
-3.80
-0.90
1.57
3.54
5.07
6.20
7.03
7.68
8.24
8.85
9.54
10.31
11.01
11.57
11.88
11.90
11.68
11.23
10.62
9.95
9.24
8.48
7.67
6.78
5.80
4.89
4.19
3.83
3.78
3.83
3.66
3.08
2.11
0.99
0.08
-0.44
-0.56
-0.51
-0.52
-0.71
-0.99
-1.27
-1.47
-1.68
-2.12
-2.91
-4.06
-5.44
-6.87
-8.24
-9.68
-11.35
-13.39
-15.73
-18.04
-19.78
-20.44
-19.74
-17.63
-14.36
-10.30
-5.86
-1.43
2.65
6.12
8.79
10.63
11.75
12.36
12.57
12.44
11.93
11.08
9.98
8.79
7.72
6.85
6.20
5.77
5.52
5.50
5.78
6.34
7.09
7.86
8.50
8.93
9.11
9.12
8.99
8.78
8.49
8.13
7.67
7.11
6.46
5.76
5.11
4.53
3.96
3.26
2.27
0.88
-0.83
-2.69
-4.47
-5.98
-7.26
-8.42
-9.71
-11.23
-12.99
-14.78
-16.34
-17.50
-18.15
-18.33
-18.13
-17.56
-16.52
-14.86
-12.52
-9.55
-6.18
-2.79
0.22
2.55
4.13
5.06
5.54
5.78
5.97
6.23
6.59
7.05
7.58
8.15
8.67
9.09
9.31
9.32
9.08
8.60
7.91
7.10
6.25
5.43
4.68
4.05
3.58
3.33
3.36
3.71
4.28
4.89
5.25
5.14
4.52
3.45
2.11
0.64
-0.89
-2.49
-4.13
-5.82
-7.44
-8.94
-10.29
-11.51
-12.64
-13.70
-14.65
-15.39
-15.90
-16.18
-16.31
-16.31
-16.10
-15.50
-14.27
-12.29
-9.59
-6.45
-3.29
-0.55
1.50
2.77
3.41
3.70
3.96
4.39
5.01
5.71
6.31
6.73
7.02
7.30
7.71
8.30
8.98
9.61
10.04
10.24
10.29
10.32
10.43
10.65
10.88
10.92
10.59
9.74
8.41
6.70
4.77
2.79
0.91
-0.82
-2.35
-3.59
-4.52
-5.06
-5.26
-5.24
-5.21
-5.34
-5.78
-6.57
-7.64
-8.90
-10.21
-11.45
-12.54
-13.35
-13.73
-13.58
-12.82
-11.44
-9.51
-7.15
-4.55
-1.96
0.40
2.35
3.82
4.89
5.71
6.46
7.30
8.26
9.32
10.37
11.28
11.92
12.23
12.23
11.95
11.51
10.94
10.27
9.47
8.49
7.36
6.19
5.15
4.25
3.51
2.87
2.27
1.65
1.05
0.49
0.03
-0.32
-0.67
-1.05
-1.53
-2.16
-2.97
-3.95
-5.10
-6.32
-7.56
-8.76
-9.92
-11.03
-12.14
-13.27
-14.40
-15.49
-16.43
-17.11
-17.50
-17.52
-17.11
-16.22
-14.72
-12.55
-9.80
-6.67
-3.46
-0.46
2.12
4.19
5.74
6.83
7.62
8.20
8.70
9.23
9.84
10.48
11.05
11.40
11.43
11.21
10.88
10.65
10.66
10.93
11.32
11.69
11.88
11.85
11.67
11.43
11.20
10.95
10.53
9.76
8.48
6.67
4.51
2.32
0.40
-1.05
-1.99
-2.59
-3.01
-3.41
-3.85
-4.31
-4.74
-5.19
-5.74
-6.47
-7.35
-8.38
-9.47
-10.58
-11.70
-12.76
-13.71
-14.37
-14.54
-14.02
-12.68
-10.56
-7.79
-4.63
-1.41
1.50
3.78
5.21
5.77
5.65
5.20
4.81
4.69
4.95
5.44
6.03
6.60
7.09
7.54
7.93
8.22
8.25
7.95
7.32
6.50
5.68
5.04
4.62
4.34
4.08
3.69
3.18
2.67
2.33
2.29
2.47
2.72
2.78
2.51
1.90
1.04
0.04
-0.99
-2.06
-3.18
-4.36
-5.63
-6.91
-8.16
-9.39
-10.56
-11.69
-12.75
-13.74
-14.61
-15.34
-15.87
-16.09
-15.88
-15.05
-13.48
-11.21
-8.43
-5.43
-2.57
-0.12
1.84
3.29
4.40
5.24
5.83
6.15
6.17
5.97
5.68
5.49
5.50
5.75
6.15
6.54
6.77
6.76
6.51
6.10
5.66
5.29
5.02
4.81
4.55
4.15
3.55
2.83
2.10
1.54
1.17
0.95
0.77
0.48
0.05
-0.52
-1.16
-1.84
-2.58
-3.47
-4.63
-6.07
-7.76
-9.49
-11.09
-12.41
-13.40
-14.07
-14.45
-14.51
-14.17
-13.37
-11.99
-10.03
-7.52
-4.60
-1.46
1.69
4.60
7.12
9.13
10.64
11.66
12.27
12.47
12.31
11.86
11.31
10.89
10.77
11.00
11.45
11.92
12.19
12.10
11.66
10.96
10.10
9.15
8.15
7.13
6.18
5.38
4.76
4.31
3.92
3.45
2.82
2.02
1.07
0.09
-0.85
-1.75
-2.57
-3.36
-4.05
-4.65
-5.19
-5.76
-6.47
-7.38
-8.47
-9.63
-10.78
-11.74
-12.46
-12.92
-13.18
-13.35
-13.54
-13.81
-14.09
-14.26
-14.06
-13.25
-11.71
-9.53
-6.92
-4.18
-1.62
0.63
2.43
3.86
4.94
5.78
6.43
7.04
7.72
8.58
9.70
11.05
12.56
14.06
15.37
16.28
16.63
16.41
15.67
14.64
13.50
12.32
11.09
9.71
8.10
6.33
4.61
3.13
2.14
1.60
1.37
1.26
1.12
0.90
0.57
0.15
-0.45
-1.25
-2.33
-3.61
-4.96
-6.17
-7.05
-7.55
-7.76
-7.94
-8.30
-9.03
-10.12
-11.32
-12.41
-13.16
-13.51
-13.56
-13.44
-13.23
-12.91
-12.37
-11.45
-10.08
-8.12
-5.66
-2.82
0.10
2.75
4.84
6.14
6.67
6.52
6.00
5.36
4.84
4.60
4.68
5.07
5.66
6.33
6.91
7.31
7.50
7.49
7.34
7.06
6.69
6.36
6.17
6.23
6.50
6.81
6.95
6.79
6.31
5.67
5.09
4.69
4.41
4.07
3.43
2.33
0.87
-0.77
-2.38
-3.86
-5.29
-6.85
-8.71
-10.85
-13.11
-15.16
-16.77
-17.89
-18.68
-19.37
-20.03
-20.56
-20.57
-19.65
-17.60
-14.49
-10.68
-6.72
-3.10
-0.12
2.13
3.69
4.67
5.13
5.11
4.67
4.01
3.40
3.13
3.45
4.37
5.62
6.89
7.81
8.24
8.21
7.92
7.50
7.07
6.64
6.18
5.76
5.51
5.56
5.92
6.45
6.86
6.94
6.56
5.75
4.66
3.48
2.30
1.14
-0.07
-1.34
-2.63
-3.88
-5.02
-6.01
-6.99
-8.00
-9.05
-10.06
-10.89
-11.41
-11.57
-11.42
-10.98
-10.34
-9.46
-8.27
-6.70
-4.79
-2.71
-0.72
0.91
2.07
2.78
3.24
3.71
4.38
5.30
6.40
7.52
8.51
9.32
9.91
10.32
10.53
10.49
10.22
9.78
9.34
8.99
8.85
8.84
8.89
8.86
8.63
8.19
7.53
6.65
5.59
4.41
3.15
1.90
0.73
-0.33
-1.21
-1.93
-2.43
-2.66
-2.57
-2.26
-1.87
-1.68
-1.98
-2.88
-4.44
-6.51
-8.89
-11.33
-13.65
-15.72
-17.45
-18.79
-19.56
-19.75
-19.28
-18.16
-16.45
-14.23
-11.57
-8.59
-5.41
-2.14
1.01
3.83
6.19
8.02
9.38
10.43
11.29
11.96
12.41
12.57
12.46
12.18
11.86
11.62
11.40
11.08
10.50
9.63
8.56
7.49
6.64
6.13
5.95
6.02
6.19
6.38
6.54
6.65
6.70
6.66
6.48
6.03
5.22
3.97
2.33
0.43
-1.49
-3.19
-4.50
-5.40
-5.99
-6.45
-6.95
-7.57
-8.31
-9.11
-9.97
-10.89
-11.87
-12.91
-13.87
-14.59
-14.91
-14.74
-14.13
-13.18
-12.05
-10.83
-9.49
-7.87
-5.89
-3.55
-1.03
1.36
3.32
4.70
5.52
5.92
6.19
6.45
6.70
6.87
6.82
6.54
6.11
5.68
5.37
5.22
5.13
5.04
4.92
4.82
4.82
4.97
5.21
5.42
5.49
5.33
4.94
4.38
3.71
2.99
2.24
1.43
0.56
-0.38
-1.35
-2.28
-3.08
-3.79
-4.42
-5.07
-5.83
-6.78
-7.91
-9.20
-10.54
-11.84
-13.04
-14.10
-15.05
-15.85
-16.44
-16.64
-16.29
-15.18
-13.22
-10.47
-7.14
-3.61
-0.18
2.89
5.49
7.58
9.19
10.32
10.96
11.14
10.94
10.53
10.11
9.88
9.89
10.11
10.41
10.70
10.93
11.06
11.06
10.90
10.57
10.10
9.50
8.79
7.96
7.06
6.07
5.05
4.06
3.16
2.41
1.77
1.17
0.49
-0.34
-1.40
-2.70
-4.15
-5.63
-7.05
-8.35
-9.53
-10.65
-11.74
-12.76
-13.66
-14.38
-14.94
-15.42
-15.87
-16.22
-16.34
-15.95
-14.81
-12.81
-9.98
-6.56
-2.98
0.34
2.99
4.74
5.56
5.71
5.58
5.55
5.88
6.54
7.39
8.19
8.73
8.97
8.95
8.81
8.68
8.67
8.82
9.13
9.55
10.02
10.43
10.69
10.75
10.56
10.09
9.32
8.27
7.02
5.73
4.61
3.80
3.36
3.17
3.03
2.69
2.04
1.13
0.13
-0.73
-1.38
-1.83
-2.29
-2.94
-3.94
-5.31
-6.97
-8.76
-10.49
-12.04
-13.32
-14.35
-15.16
-15.83
-16.39
-16.83
-17.04
-16.89
-16.21
-14.83
-12.67
-9.77
-6.32
-2.68
0.71
3.51
5.62
7.15
8.39
9.68
11.23
13.04
14.93
16.63
17.87
18.50
18.50
17.92
16.82
15.30
13.50
11.55
9.65
7.98
6.67
5.79
5.25
4.89
4.54
4.09
3.53
2.96
2.49
2.20
2.07
1.99
1.73
1.15
0.21
-1.01
-2.32
-3.57
-4.59
-5.37
-5.95
-6.44
-6.97
-7.64
-8.51
-9.61
-10.93
-12.35
-13.72
-14.85
-15.62
-15.99
-16.00
-15.69
-15.07
-14.05
-12.51
-10.45
-7.94
-5.20
-2.48
-0.00
2.14
3.94
5.43
6.62
7.47
7.96
8.04
7.79
7.34
6.89
6.64
6.69
6.97
7.32
7.53
7.45
7.08
6.50
5.87
5.32
4.94
4.74
4.72
4.86
5.12
5.45
5.71
5.77
5.46
4.70
3.48
1.85
-0.02
-1.97
-3.73
-5.16
-6.18
-6.89
-7.50
-8.23
-9.23
-10.46
-11.79
-13.01
-13.99
-14.68
-15.13
-15.42
-15.53
-15.33
-14.57
-13.10
-10.89
-8.15
-5.23
-2.50
-0.18
1.70
3.20
4.46
5.49
6.25
6.70
6.84
6.87
7.03
7.50
8.29
9.31
10.35
11.23
11.82
12.05
11.99
11.77
11.52
11.35
11.33
11.40
11.43
11.19
10.52
9.36
7.78
5.95
4.01
2.02
-0.12
-2.43
-4.90
-7.34
-9.48
-11.11
-12.18
-12.81
-13.24
-13.76
-14.43
-15.27
-16.13
-16.88
-17.41
-17.61
-17.33
-16.42
-14.75
-12.24
-9.01
-5.37
-1.67
1.69
4.45
6.49
7.87
8.69
9.12
9.33
9.48
9.71
10.12
10.77
11.60
12.48
13.15
13.49
13.33
12.72
11.76
10.64
9.53
8.53
7.64
6.81
6.03
5.30
4.67
4.21
3.92
3.77
3.67
3.48
3.13
2.63
2.01
1.31
0.50
-0.52
-1.85
-3.53
-5.49
-7.49
-9.23
-10.48
-11.14
-11.30
-11.19
-11.06
-11.14
-11.50
-12.15
-12.94
-13.70
-14.19
-14.12
-13.33
-11.77
-9.54
-6.92
-4.23
-1.76
0.35
2.12
3.69
5.14
6.55
7.84
8.88
9.59
9.97
10.14
10.34
10.72
11.28
11.93
12.46
12.67
12.48
11.97
11.30
10.64
10.13
9.74
9.36
8.84
8.05
7.01
5.81
4.62
3.56
2.74
2.14
1.71
1.41
1.24
1.23
1.39
1.68
1.94
2.00
1.69
0.93
-0.23
-1.67
-3.22
-4.79
-6.28
-7.64
-8.79
-9.64
-10.10
-10.16
-9.87
-9.34
-8.64
-7.80
-6.78
-5.50
-3.96
-2.26
-0.60
0.82
1.83
2.44
2.68
2.70
2.63
2.60
2.71
3.04
3.63
4.47
5.47
6.50
7.38
8.00
8.33
8.40
8.25
7.93
7.50
6.95
6.32
5.65
4.98
4.33
3.72
3.18
2.69
2.25
1.84
1.38
0.84
0.16
-0.69
-1.67
-2.73
-3.81
-4.88
-5.88
-6.80
-7.58
-8.20
-8.70
-9.11
-9.47
-9.86
-10.32
-10.97
-11.81
-12.73
-13.55
-13.99
-13.80
-12.82
-11.06
-8.68
-5.96
-3.19
-0.62
1.52
3.06
3.88
4.05
3.69
3.13
2.57
2.13
1.83
1.63
1.48
1.40
1.45
1.66
2.05
2.50
2.91
3.21
3.36
3.39
3.27
3.04
2.67
2.20
1.62
1.00
0.38
-0.19
-0.62
-0.91
-1.05
-1.13
-1.18
-1.28
-1.44
-1.63
-1.88
-2.23
-2.79
-3.63
-4.75
-6.02
-7.26
-8.32
-9.11
-9.66
-10.00
-10.11
-9.88
-9.18
-7.86
-5.94
-3.60
-1.13
1.11
2.89
4.10
4.80
5.07
5.05
4.83
4.51
4.18
3.94
3.94
4.21
4.74
5.38
5.98
6.46
6.83
7.22
7.75
8.45
9.19
9.71
9.77
9.23
8.15
6.73
5.28
4.01
3.02
2.23
1.51
0.80
0.10
-0.53
-1.01
-1.29
-1.40
-1.40
-1.42
-1.51
-1.69
-1.97
-2.37
-2.92
-3.71
-4.79
-6.17
-7.80
-9.58
-11.34
-12.98
-14.40
-15.49
-16.15
-16.23
-15.57
-14.09
-11.84
-9.06
-6.10
-3.33
-1.07
0.61
1.77
2.62
3.33
4.00
4.61
5.11
5.46
5.64
5.76
5.93
6.24
6.73
7.40
8.16
8.96
9.69
10.20
10.43
10.31
9.88
9.23
8.46
7.69
7.03
6.47
5.95
5.37
4.65
3.79
2.84
1.90
1.04
0.29
-0.44
-1.22
-2.11
-3.03
-3.82
-4.31
-4.41
-4.24
-4.03
-4.09
-4.66
-5.76
-7.24
-8.81
-10.10
-10.87
-11.08
-10.78
-10.19
-9.45
-8.66
-7.84
-6.93
-5.82
-4.47
-2.94
-1.37
0.09
1.28
2.09
2.49
2.48
2.15
1.63
1.11
0.78
0.82
1.28
2.14
3.31
4.71
6.22
7.78
9.30
10.61
11.55
11.95
11.80
11.18
10.31
9.40
8.55
7.78
6.97
6.08
5.05
4.00
3.07
2.41
2.04
1.86
1.71
1.42
0.98
0.45
-0.02
-0.31
-0.35
-0.23
-0.12
-0.22
-0.71
-1.64
-3.05
-4.88
-6.97
-9.16
-11.26
-13.09
-14.47
-15.34
-15.69
-15.59
-15.11
-14.29
-13.14
-11.64
-9.78
-7.63
-5.29
-2.97
-0.83
1.02
2.55
3.75
4.65
5.28
5.60
5.56
5.13
4.41
3.58
2.88
2.52
2.57
2.96
3.51
4.04
4.47
4.76
4.90
4.89
4.61
3.99
2.99
1.65
0.12
-1.38
-2.64
-3.54
-4.05
-4.29
-4.37
-4.38
-4.38
-4.35
-4.20
-3.91
-3.58
-3.38
-3.52
-4.10
-5.04
-6.19
-7.29
-8.18
-8.84
-9.40
-10.00
-10.73
-11.49
-12.07
-12.25
-11.85
-10.84
-9.27
-7.26
-5.00
-2.72
-0.62
1.16
2.56
3.66
4.54
5.30
5.96
6.51
6.95
7.32
7.75
8.31
8.99
9.63
9.97
9.90
9.44
8.81
8.28
7.97
7.87
7.84
7.76
7.56
7.32
7.08
6.86
6.52
5.87
4.82
3.37
1.71
0.06
-1.39
-2.56
-3.42
-4.06
-4.54
-4.91
-5.25
-5.58
-5.93
-6.30
-6.67
-7.03
-7.33
-7.63
-7.99
-8.53
-9.28
-10.09
-10.76
-10.99
-10.50
-9.17
-7.14
-4.71
-2.32
-0.33
1.11
2.02
2.57
3.00
3.47
4.08
4.83
5.69
6.66
7.68
8.68
9.58
10.22
10.53
10.51
10.24
9.91
9.63
9.48
9.36
9.10
8.54
7.62
6.39
5.02
3.70
2.52
1.52
0.68
-0.06
-0.66
-1.10
-1.41
-1.59
-1.76
-1.98
-2.25
-2.49
-2.66
-2.77
-2.88
-3.15
-3.69
-4.53
-5.60
-6.77
-7.83
-8.74
-9.52
-10.33
-11.28
-12.36
-13.38
-14.01
-13.90
-12.79
-10.71
-7.85
-4.56
-1.22
1.94
4.75
7.08
8.82
9.84
10.15
9.87
9.30
8.76
8.55
8.73
9.21
9.79
10.25
10.46
10.37
10.01
9.45
8.79
8.13
7.57
7.13
6.78
6.43
5.98
5.42
4.78
4.13
3.55
3.03
2.53
2.01
1.48
1.00
0.63
0.39
0.23
0.05
-0.29
-0.88
-1.70
-2.64
-3.58
-4.40
-5.04
-5.60
-6.18
-6.95
-7.95
-9.09
-10.25
-11.29
-12.19
-12.96
-13.65
-14.23
-14.51
-14.22
-13.15
-11.21
-8.53
-5.46
-2.38
0.30
2.33
3.66
4.39
4.69
4.77
4.82
4.90
5.02
5.15
5.27
5.43
5.66
5.97
6.33
6.73
7.14
7.56
7.93
8.23
8.39
8.33
7.96
7.30
6.39
5.35
4.29
3.25
2.29
1.43
0.66
-0.06
-0.79
-1.61
-2.57
-3.68
-4.91
-6.14
-7.23
-8.13
-8.85
-9.49
-10.18
-10.93
-11.69
-12.28
-12.61
-12.68
-12.60
-12.52
-12.53
-12.55
-12.41
-11.85
-10.68
-8.84
-6.42
-3.66
-0.79
1.88
4.13
5.81
6.88
7.38
7.46
7.31
7.08
6.97
7.10
7.55
8.34
9.38
10.46
11.38
11.92
12.00
11.69
11.15
10.58
10.07
9.64
9.20
8.69
8.07
7.34
6.55
5.72
4.82
3.80
2.62
1.30
-0.10
-1.44
-2.60
-3.47
-4.08
-4.46
-4.70
-4.89
-5.10
-5.31
-5.48
-5.55
-5.52
-5.49
-5.66
-6.18
-7.16
-8.53
-10.08
-11.50
-12.50
-12.83
-12.42
-11.24
-9.34
-6.96
-4.37
-1.92
0.07
1.48
2.38
3.02
3.69
4.62
5.79
7.02
8.07
8.75
9.01
8.95
8.75
8.57
8.53
8.62
8.82
9.06
9.18
9.09
8.74
8.17
7.51
6.92
6.44
6.01
5.42
4.47
3.05
1.31
-0.47
-1.93
-2.78
-3.00
-2.77
-2.39
-2.17
-2.26
-2.55
-2.79
-2.68
-2.04
-0.92
0.40
1.54
2.11
1.90
0.92
-0.67
-2.64
-4.73
-6.76
-8.60
-10.14
-11.35
-12.25
-12.85
-13.25
-13.48
-13.43
-13.01
-12.06
-10.48
-8.33
-5.80
-3.15
-0.74
1.21
2.60
3.45
3.90
4.14
4.37
4.77
5.47
6.49
7.79
9.25
10.64
11.75
12.42
12.59
12.38
11.94
11.49
11.12
10.89
10.69
10.41
9.93
9.20
8.26
7.21
6.17
5.23
4.45
3.82
3.34
3.00
2.77
2.54
2.20
1.66
0.94
0.18
-0.46
-0.86
-1.04
-1.18
-1.51
-2.21
-3.26
-4.50
-5.71
-6.76
-7.65
-8.47
-9.34
-10.33
-11.42
-12.59
-13.83
-15.07
-16.26
-17.18
-17.56
-17.12
-15.60
-12.96
-9.40
-5.37
-1.47
1.76
3.97
5.13
5.47
5.37
5.21
5.16
5.26
5.48
5.79
6.17
6.66
7.24
7.87
8.47
8.95
9.25
9.34
9.20
8.81
8.14
7.18
6.01
4.71
3.39
2.18
1.15
0.25
-0.59
-1.48
-2.43
-3.43
-4.39
-5.20
-5.81
-6.27
-6.72
-7.27
-8.01
-9.00
-10.18
-11.50
-12.86
-14.14
-15.17
-15.88
-16.24
-16.35
-16.33
-16.28
-16.17
-15.84
-14.99
-13.34
-10.82
-7.62
-4.14
-0.86
1.85
3.84
5.16
6.00
6.59
7.04
7.40
7.69
7.92
8.16
8.48
8.96
9.57
10.29
11.03
11.73
12.31
12.71
12.89
12.82
12.53
12.04
11.41
10.64
9.75
8.69
7.42
5.95
4.32
2.61
0.97
-0.47
-1.59
-2.35
-2.81
-3.07
-3.24
-3.40
-3.60
-3.91
-4.36
-5.01
-5.91
-7.11
-8.57
-10.20
-11.87
-13.37
-14.57
-15.29
-15.40
-14.79
-13.42
-11.29
-8.44
-5.05
-1.39
2.13
5.10
7.18
8.31
8.54
8.19
7.64
7.19
7.04
7.12
7.34
7.57
7.80
8.06
8.41
8.89
9.45
9.97
10.30
10.36
10.15
9.73
9.19
8.59
7.94
7.19
6.30
5.25
4.12
3.01
2.07
1.37
0.88
0.51
0.16
-0.25
-0.72
-1.21
-1.75
-2.38
-3.20
-4.29
-5.64
-7.10
-8.46
-9.48
-10.09
-10.36
-10.44
-10.54
-10.83
-11.40
-12.24
-13.20
-14.10
-14.69
-14.71
-13.97
-12.36
-10.00
-7.13
-4.16
-1.40
0.89
2.56
3.62
4.16
4.35
4.40
4.53
4.86
5.48
6.38
7.44
8.52
9.49
10.31
11.05
11.87
12.80
13.83
14.81
15.46
15.55
15.03
13.92
12.42
10.75
9.05
7.39
5.78
4.24
2.87
1.75
0.91
0.31
-0.17
-0.65
-1.16
-1.64
-2.05
-2.37
-2.67
-3.08
-3.72
-4.64
-5.87
-7.34
-8.93
-10.51
-11.97
-13.22
-14.28
-15.17
-15.90
-16.43
-16.54
-15.99
-14.59
-12.40
-9.61
-6.57
-3.61
-0.91
1.40
3.29
4.77
5.84
6.54
6.95
7.18
7.35
7.54
7.69
7.73
7.62
7.34
7.02
6.84
6.91
7.24
7.77
8.26
8.50
8.30
7.64
6.69
5.68
4.87
4.40
4.25
4.21
4.04
3.52
2.60
1.42
0.16
-1.06
-2.21
-3.37
-4.62
-5.92
-7.19
-8.37
-9.49
-10.63
-11.94
-13.40
-14.88
-16.20
-17.22
-17.94
-18.46
-18.77
-18.73
-18.00
-16.20
-13.08
-8.60
-3.02
3.26
9.73
15.85
21.09
25.03
27.43
28.23
27.65
26.00
23.64
20.85
17.88
14.96
12.34
10.30
8.96
8.32
8.23
8.52
9.05
9.93
11.34
13.59
16.81
20.73
24.67
27.51
28.13
25.69
20.07
11.90
2.27
-7.66
-17.07
-25.66
-33.33
-39.95
-44.94
-47.50
-46.85
-42.80
-35.97
-27.72
-19.60
-12.93
-8.29
-5.54
-4.21
-3.83
-4.20
-5.36
-7.27
-9.57
-11.61
-12.60
-11.97
-9.58
-5.82
-1.44
2.75
6.12
8.32
9.40
9.57
9.15
8.45
7.66
6.90
6.29
6.00
6.21
7.10
8.70
10.88
13.38
15.84
17.87
19.08
19.20
18.01
15.53
12.04
8.00
4.04
0.82
-1.17
-1.67
-0.79
0.99
3.03
4.63
5.25
4.73
3.25
1.25
-0.89
-2.93
-4.90
-6.93
-9.18
-11.70
-14.37
-17.12
-19.86
-22.56
-25.21
-27.72
-29.90
-31.43
-32.03
-31.44
-29.64
-26.70
-22.77
-18.01
-12.63
-6.82
-0.87
4.77
9.70
13.48
15.93
17.07
17.13
16.37
15.08
13.51
11.90
10.51
9.52
9.10
9.20
9.72
10.44
11.18
11.85
12.47
13.13
13.84
14.58
15.18
15.49
15.41
14.88
13.95
12.65
11.07
9.29
7.37
5.37
3.41
1.55
-0.17
-1.76
-3.28
-4.79
-6.32
-7.90
-9.58
-11.40
-13.39
-15.53
-17.72
-19.89
-21.92
-23.69
-25.08
-25.91
-25.97
-25.07
-23.13
-20.15
-16.33
-11.92
-7.23
-2.58
1.73
5.45
8.44
10.63
12.11
12.98
13.33
13.26
12.80
12.05
11.12
10.15
9.28
8.65
8.27
8.21
8.44
8.84
9.23
9.39
9.14
8.42
7.36
6.14
4.93
3.89
2.94
2.04
1.06
-0.00
-1.08
-2.03
-2.74
-3.28
-3.71
-4.30
-5.25
-6.72
-8.79
-11.35
-14.25
-17.17
-19.75
-21.54
-22.20
-21.48
-19.41
-16.20
-12.20
-7.76
-3.13
1.51
6.13
10.54
14.57
17.94
20.42
21.97
22.63
22.62
22.11
21.26
20.09
18.61
16.88
14.94
13.04
11.33
10.04
9.25
8.94
9.00
9.32
9.74
10.04
10.13
9.86
9.29
8.45
7.49
6.49
5.45
4.30
2.94
1.40
-0.18
-1.59
-2.71
-3.53
-4.20
-4.91
-5.82
-6.93
-8.13
-9.32
-10.40
-11.36
-12.28
-13.18
-14.10
-15.02
-15.88
-16.59
-17.07
-17.23
-16.93
-16.15
-14.86
-13.15
-11.17
-9.07
-6.97
-4.90
-2.85
-0.73
1.49
3.76
5.97
8.00
9.81
11.34
12.64
13.63
14.26
14.41
14.10
13.37
12.37
11.30
10.27
9.36
8.57
7.87
7.19
6.53
5.87
5.24
4.74
4.38
4.16
4.00
3.66
3.00
1.93
0.50
-1.06
-2.52
-3.72
-4.63
-5.39
-6.23
-7.32
-8.68
-10.27
-11.91
-13.44
-14.79
-15.96
-16.99
-17.93
-18.74
-19.41
-19.87
-20.12
-20.14
-19.85
-19.15
-17.89
-15.94
-13.28
-10.11
-6.76
-3.66
-1.13
0.72
2.02
3.00
4.00
5.22
6.70
8.36
10.03
11.58
12.93
14.04
14.87
15.39
15.54
15.32
14.75
13.93
12.93
11.90
10.87
9.91
8.99
8.05
7.11
6.23
5.52
5.04
4.81
4.76
4.77
4.75
4.61
4.38
4.13
3.90
3.69
3.44
3.08
2.53
1.74
0.69
-0.64
-2.24
-4.09
-6.12
-8.24
-10.32
-12.25
-13.89
-15.24
-16.34
-17.28
-18.06
-18.57
-18.63
-18.02
-16.60
-14.37
-11.49
-8.23
-4.85
-1.61
1.37
3.92
6.00
7.57
8.70
9.51
10.16
10.80
11.51
12.36
13.27
14.15
14.83
15.18
15.18
14.92
14.54
14.13
13.69
13.08
12.13
10.72
8.92
6.94
5.07
3.50
2.24
1.20
0.19
-0.91
-2.10
-3.30
-4.43
-5.49
-6.53
-7.64
-8.88
-10.18
-11.42
-12.43
-13.14
-13.52
-13.74
-13.89
-14.13
-14.53
-15.03
-15.54
-15.87
-15.90
-15.54
-14.72
-13.35
-11.40
-8.87
-5.87
-2.62
0.56
3.39
5.69
7.45
8.77
9.76
10.46
10.87
11.01
10.94
10.80
10.78
10.96
11.33
11.73
11.96
11.89
11.50
10.90
10.24
9.60
9.03
8.48
7.93
7.42
7.07
6.91
6.98
7.13
7.17
6.91
6.29
5.31
4.12
2.82
1.47
0.06
-1.43
-3.04
-4.77
-6.59
-8.38
-10.11
-11.70
-13.16
-14.53
-15.90
-17.31
-18.77
-20.23
-21.48
-22.26
-22.35
-21.54
-19.73
-16.99
-13.54
-9.70
-5.98
-2.79
-0.37
1.22
2.15
2.71
3.17
3.69
4.32
5.09
6.02
7.16
8.53
10.09
11.67
13.09
14.22
14.98
15.39
15.48
15.22
14.54
13.43
11.95
10.21
8.41
6.78
5.43
4.42
3.75
3.35
3.17
3.15
3.12
2.93
2.47
1.68
0.66
-0.50
-1.62
-2.65
-3.61
-4.66
-5.99
-7.66
-9.65
-11.74
-13.67
-15.25
-16.43
-17.28
-17.93
-18.53
-19.17
-19.87
-20.54
-20.98
-21.05
-20.56
-19.35
-17.34
-14.57
-11.23
-7.62
-4.06
-0.87
1.78
3.85
5.41
6.62
7.61
8.46
9.26
10.08
11.00
12.05
13.22
14.45
15.60
16.57
17.28
17.76
18.05
18.18
18.08
17.70
17.04
16.13
15.11
14.11
13.18
12.34
11.51
10.58
9.50
8.29
6.99
5.56
3.95
2.02
-0.27
-2.83
-5.35
-7.52
-8.96
-9.55
-9.35
-8.66
-7.92
-7.56
-7.88
-8.89
-10.47
-12.29
-14.06
-15.56
-16.72
-17.60
-18.31
-18.95
-19.48
-19.75
-19.54
-18.68
-17.05
-14.61
-11.46
-7.82
-3.98
-0.28
2.99
5.65
7.63
9.04
10.06
10.81
11.34
11.62
11.64
11.48
11.33
11.39
11.77
12.39
12.97
13.25
13.06
12.47
11.64
10.84
10.24
9.91
9.80
9.83
9.91
9.96
9.93
9.71
9.27
8.54
7.55
6.30
4.86
3.35
1.84
0.47
-0.72
-1.70
-2.52
-3.25
-4.02
-4.89
-5.86
-6.91
-8.07
-9.36
-10.79
-12.41
-14.10
-15.76
-17.29
-18.61
-19.68
-20.43
-20.71
-20.31
-19.03
-16.78
-13.67
-10.01
-6.15
-2.46
0.81
3.61
5.90
7.72
9.09
9.98
10.38
10.35
9.98
9.41
8.77
8.18
7.72
7.46
7.33
7.28
7.15
6.81
6.21
5.42
4.57
3.87
3.46
3.36
3.53
3.88
4.34
4.81
5.22
5.42
5.26
4.72
3.79
2.63
1.42
0.27
-0.82
-1.88
-3.00
-4.25
-5.61
-6.99
-8.34
-9.65
-11.05
-12.63
-14.49
-16.50
-18.42
-19.79
-20.17
-19.23
-16.91
-13.46
-9.32
-4.99
-0.85
2.84
5.97
8.47
10.29
11.44
11.93
11.90
11.61
11.37
11.41
11.85
12.58
13.37
14.01
14.36
14.40
14.16
13.73
13.14
12.40
11.50
10.42
9.17
7.84
6.53
5.38
4.47
3.89
3.66
3.66
3.75
3.73
3.43
2.78
1.78
0.49
-0.96
-2.43
-3.82
-5.07
-6.16
-7.17
-8.12
-9.06
-9.99
-10.88
-11.72
-12.51
-13.32
-14.19
-15.21
-16.43
-17.81
-19.24
-20.53
-21.39
-21.47
-20.45
-18.14
-14.64
-10.35
-5.85
-1.73
1.64
4.14
5.93
7.35
8.73
10.22
11.83
13.46
14.98
16.37
17.59
18.66
19.55
20.21
20.60
20.67
20.37
19.64
18.46
16.84
14.85
12.68
10.56
8.76
7.49
6.81
6.62
6.73
6.91
6.94
6.69
6.07
5.11
3.87
2.51
1.15
-0.04
-0.97
-1.61
-2.07
-2.46
-2.93
-3.54
-4.28
-5.16
-6.18
-7.38
-8.84
-10.58
-12.56
-14.70
-16.82
-18.77
-20.37
-21.58
-22.47
-23.13
-23.72
-24.26
-24.59
-24.44
-23.42
-21.24
-17.84
-13.46
-8.50
-3.49
1.06
4.82
7.66
9.64
10.91
11.63
11.91
11.86
11.59
11.24
10.97
10.91
11.06
11.26
11.35
11.20
10.89
10.62
10.61
10.95
11.51
12.04
12.21
11.88
11.10
10.03
8.91
7.88
6.99
6.11
5.18
4.11
3.02
2.05
1.30
0.86
0.66
0.63
0.55
0.38
0.12
-0.17
-0.46
-0.81
-1.33
-2.10
-3.11
-4.30
-5.57
-6.84
-8.13
-9.53
-11.06
-12.70
-14.40
-15.97
-17.28
-18.21
-18.65
-18.51
-17.70
-16.12
-13.78
-10.83
-7.47
-3.99
-0.64
2.31
4.68
6.39
7.45
7.92
7.89
7.60
7.20
6.86
6.70
6.75
6.97
7.29
7.62
7.88
8.11
8.27
8.37
8.34
8.07
7.47
6.50
5.25
3.89
2.65
1.69
1.11
0.86
0.78
0.65
0.26
-0.46
-1.44
-2.51
-3.53
-4.37
-5.01
-5.55
-6.02
-6.44
-6.77
-7.01
-7.21
-7.54
-8.18
-9.20
-10.57
-12.16
-13.76
-15.20
-16.31
-16.93
-16.89
-15.99
-14.10
-11.24
-7.63
-3.59
0.42
4.05
7.05
9.35
10.95
11.99
12.57
12.80
12.77
12.56
12.23
11.93
11.71
11.56
11.45
11.27
10.97
10.56
10.13
9.73
9.42
9.15
8.76
8.12
7.20
6.07
4.90
3.82
2.92
2.27
1.83
1.60
1.51
1.45
1.27
0.79
-0.09
-1.36
-2.81
-4.21
-5.35
-6.11
-6.59
-6.97
-7.46
-8.20
-9.24
-10.52
-11.96
-13.45
-14.82
-15.96
-16.76
-17.15
-17.21
-17.02
-16.66
-16.16
-15.38
-14.15
-12.36
-10.01
-7.23
-4.31
-1.50
0.99
3.05
4.73
6.09
7.22
8.17
8.96
9.60
10.08
10.36
10.40
10.20
9.78
9.21
8.61
8.12
7.89
7.98
8.42
9.12
9.95
10.74
11.35
11.67
11.65
11.27
10.57
9.66
8.61
7.54
6.45
5.30
4.10
2.82
1.57
0.43
-0.47
-1.15
-1.69
-2.27
-2.97
-3.74
-4.52
-5.26
-5.97
-6.76
-7.70
-8.82
-9.97
-11.00
-11.79
-12.38
-12.93
-13.70
-14.83
-16.34
-18.05
-19.64
-20.77
-21.15
-20.54
-18.88
-16.27
-12.94
-9.21
-5.40
-1.80
1.38
4.00
6.05
7.57
8.64
9.36
9.81
10.06
10.14
10.07
9.86
9.63
9.50
9.58
9.93
10.50
11.17
11.80
12.29
12.60
12.74
12.71
12.51
12.10
11.43
10.54
9.51
8.45
7.49
6.69
6.00
5.39
4.76
4.07
3.30
2.42
1.45
0.36
-0.86
-2.20
-3.59
-4.90
-5.99
-6.79
-7.29
-7.65
-8.03
-8.64
-9.58
-10.78
-12.06
-13.23
-14.21
-15.02
-15.80
-16.62
-17.49
-18.26
-18.75
-18.72
-18.04
-16.63
-14.51
-11.76
-8.58
-5.28
-2.14
0.61
2.83
4.57
5.91
6.92
7.61
7.98
8.06
7.99
7.97
8.13
8.49
8.95
9.35
9.55
9.53
9.33
9.05
8.77
8.51
8.27
8.04
7.81
7.61
7.46
7.41
7.42
7.39
7.18
6.66
5.77
4.59
3.34
2.21
1.35
0.75
0.30
-0.12
-0.58
-1.08
-1.64
-2.31
-3.24
-4.51
-6.17
-8.06
-9.91
-11.48
-12.70
-13.58
-14.32
-15.00
-15.56
-15.80
-15.44
-14.18
-11.94
-8.87
-5.24
-1.57
1.63
3.97
5.29
5.65
5.37
4.84
4.40
4.25
4.36
4.63
4.92
5.14
5.29
5.36
5.34
5.20
4.96
4.62
4.24
3.86
3.54
3.27
3.10
3.00
2.98
2.95
2.82
2.57
2.17
1.63
0.96
0.10
-0.98
-2.30
-3.78
-5.24
-6.49
-7.44
-8.15
-8.75
-9.40
-10.13
-10.94
-11.70
-12.34
-12.81
-13.09
-13.12
-12.78
-11.88
-10.29
-7.99
-5.16
-2.14
0.64
2.87
4.41
5.33
5.91
6.43
7.11
8.01
9.01
9.95
10.74
11.41
12.06
12.75
13.46
14.11
14.57
14.74
14.58
14.14
13.42
12.38
11.05
9.45
7.75
6.12
4.68
3.42
2.30
1.19
0.11
-0.88
-1.69
-2.24
-2.48
-2.51
-2.45
-2.43
-2.58
-3.00
-3.73
-4.84
-6.38
-8.36
-10.68
-13.15
-15.50
-17.51
-19.05
-20.13
-20.91
-21.50
-21.86
-21.78
-20.94
-19.11
-16.24
-12.62
-8.60
-4.72
-1.31
1.41
3.46
4.98
6.14
7.10
7.93
8.73
9.57
10.50
11.53
12.61
13.65
14.51
15.15
15.51
15.60
15.47
15.16
14.79
14.42
14.15
13.95
13.78
13.47
12.88
11.94
10.74
9.45
8.22
7.17
6.26
5.42
4.55
3.61
2.64
1.72
0.87
0.04
-0.85
-1.86
-2.98
-4.20
-5.48
-6.77
-8.16
-9.74
-11.53
-13.53
-15.54
-17.35
-18.85
-20.04
-20.99
-21.91
-22.87
-23.76
-24.28
-24.08
-22.81
-20.36
-16.85
-12.57
-7.98
-3.52
0.41
3.53
5.69
6.82
6.99
6.32
5.02
3.35
1.67
0.29
-0.50
-0.59
-0.03
0.99
2.28
3.67
5.11
6.62
8.20
9.79
11.28
12.52
13.39
13.84
13.91
13.67
13.27
12.77
12.23
11.70
11.12
10.45
9.64
8.71
7.67
6.57
5.42
4.21
2.88
1.37
-0.36
-2.29
-4.39
-6.56
-8.70
-10.68
-12.42
-13.84
-14.95
-15.80
-16.53
-17.37
-18.48
-19.91
-21.47
-22.88
-23.68
-23.49
-22.05
-19.37
-15.67
-11.37
-6.92
-2.73
0.88
3.74
5.87
7.35
8.33
8.98
9.42
9.82
10.30
11.00
11.92
13.07
14.30
15.43
16.30
16.95
17.46
17.99
18.61
19.25
19.80
19.99
19.67
18.74
17.29
15.53
13.72
12.11
10.76
9.65
8.55
7.26
5.62
3.60
1.32
-1.07
-3.41
-5.62
-7.70
-9.75
-11.83
-13.97
-16.17
-18.41
-20.64
-22.73
-24.60
-26.19
-27.45
-28.32
-28.70
-28.43
-27.34
-25.31
-22.30
-18.41
-13.87
-9.04
-4.29
0.06
3.70
6.53
8.51
9.72
10.34
10.53
10.46
10.24
10.05
9.98
10.20
10.74
11.52
12.44
13.44
14.51
15.69
16.99
18.36
19.62
20.54
20.96
20.82
20.24
19.38
18.38
17.32
16.11
14.66
12.87
10.75
8.36
5.89
3.48
1.21
-0.98
-3.19
-5.53
-8.01
-10.49
-12.79
-14.75
-16.36
-17.71
-19.00
-20.34
-21.80
-23.35
-24.86
-26.16
-27.00
-27.16
-26.37
-24.46
-21.42
-17.40
-12.71
-7.70
-2.74
1.89
5.88
9.02
11.17
12.30
12.57
12.27
11.75
11.27
10.98
10.90
10.99
11.22
11.63
12.24
13.08
14.13
15.30
16.43
17.40
18.12
