1721237304.00
64.000000
-0.00
-0.00
-0.00
-0.00
-0.00
-0.00
-0.00
-0.00
-0.00
-0.00
0.00
0.01
0.01
-0.00
-0.03
-0.05
-0.05
0.00
0.13
0.36
0.66
1.01
1.37
1.72
2.06
2.40
2.79
3.24
3.80
4.42
5.06
5.66
6.20
6.68
7.15
7.68
8.31
9.14
10.09
11.04
11.88
12.56
13.14
13.76
14.65
15.96
17.91
20.32
22.90
25.38
27.58
29.57
31.68
34.32
37.81
42.54
48.15
54.10
59.83
64.97
69.58
74.14
79.34
85.71
93.76
103.00
112.62
121.73
129.77
136.75
143.30
150.75
157.77
166.64
177.95
191.79
206.97
220.57
228.25
225.36
208.53
176.87
132.76
80.05
23.07
-34.94
-92.44
-149.16
-205.23
-260.37
-313.74
-363.87
-409.83
-450.91
-486.50
-515.74
-537.23
-549.22
-549.96
-538.37
-514.21
-478.67
-433.88
-382.45
-327.02
-269.84
-212.63
-156.66
-102.95
-52.37
-5.90
35.58
71.43
101.35
125.50
144.38
158.69
169.15
176.37
180.75
182.57
182.07
179.51
175.23
169.65
163.18
156.15
148.81
141.30
133.69
126.02
118.33
110.69
103.16
95.80
88.68
81.83
75.25
68.95
62.95
57.25
51.86
46.78
42.03
37.59
33.45
29.61
26.07
22.81
19.83
17.11
14.67
12.48
10.54
8.83
7.35
6.07
4.97
4.05
3.27
2.62
2.09
1.65
1.30
1.01
0.79
0.61
0.48
0.37
0.29
0.24
0.20
0.18
0.16
0.17
0.18
0.19
0.22
0.25
0.28
0.32
0.36
0.41
0.46
0.52
0.57
0.63
0.70
0.77
0.85
0.93
1.01
1.10
1.20
1.31
1.43
1.56
1.70
1.85
2.03
2.22
2.43
2.66
2.92
3.21
3.52
3.88
4.27
4.70
5.18
5.70
6.27
6.88
7.55
8.27
9.04
9.86
10.73
11.64
12.60
13.61
14.65
15.76
16.93
18.16
19.44
20.77
22.11
23.43
24.66
25.71
26.48
26.83
26.65
25.83
24.35
22.23
19.56
16.45
12.97
9.24
5.30
1.19
-3.07
-7.42
-11.76
-15.93
-19.77
-23.16
-26.01
-28.35
-30.22
-31.69
-32.76
-33.32
-33.19
-32.18
-30.22
-27.39
-24.02
-20.52
-17.25
-14.34
-11.59
-8.58
-4.87
-0.27
4.97
10.07
13.97
15.77
15.08
12.21
8.07
3.77
0.18
-2.45
-4.72
-7.58
-11.79
-17.34
-23.22
-27.63
-28.80
-25.61
-18.08
-7.86
2.53
10.37
13.45
10.63
2.48
-8.56
-18.23
-21.70
-15.97
-1.44
17.33
32.63
36.38
23.10
-7.95
-52.70
-100.80
-140.45
-161.02
-155.66
-122.62
-65.23
8.75
88.41
161.35
215.99
243.58
240.53
208.74
154.77
88.05
18.81
-43.25
-89.40
-112.28
-107.21
-73.80
-17.71
49.63
113.61
160.70
182.59
178.14
152.19
111.84
63.11
9.81
-44.96
-96.49
-137.62
-160.86
-162.30
-144.75
-117.92
-94.33
-83.27
-86.26
-96.81
-104.30
-99.65
-79.20
-44.95
-2.55
41.83
83.64
119.88
147.96
164.78
167.17
153.66
126.38
90.13
51.10
15.70
-10.94
-26.11
-30.10
-26.72
-21.62
-19.66
-25.27
-41.14
-66.30
-96.35
-124.86
-145.94
-156.53
-155.42
-140.44
-110.96
-68.39
-15.24
43.82
101.75
148.93
175.82
178.13
161.05
133.62
104.61
81.20
67.02
62.07
70.77
93.60
113.29
124.50
132.33
138.25
142.27
143.88
143.02
135.94
118.95
91.67
59.45
26.75
-5.33
-36.84
-67.97
-98.47
-133.49
-178.34
-234.84
-299.14
-367.38
-438.03
-510.01
-581.74
-615.65
-589.61
-507.94
-397.97
-288.22
-195.74
-125.79
-76.30
-42.34
-18.70
-5.96
-3.16
-4.35
0.78
20.03
53.18
92.12
125.28
143.95
142.85
125.78
103.53
87.86
84.24
89.78
97.15
100.44
98.65
92.43
84.04
75.35
66.78
57.44
46.07
33.17
21.31
13.84
11.84
14.66
20.25
25.89
30.13
32.12
32.30
32.03
32.92
35.35
38.54
40.92
40.88
37.41
30.33
20.57
9.75
-0.29
-8.31
-13.93
-17.63
-20.36
-23.11
-26.57
-31.03
-36.57
-43.06
-50.56
-59.34
-69.83
-82.40
-97.18
-114.06
-132.59
-152.14
-171.79
-190.58
-207.60
-221.98
-232.94
-239.71
-241.55
-237.48
-227.52
-211.41
-189.01
-160.54
-126.70
-88.75
-48.45
-7.80
31.27
67.18
99.08
126.58
149.55
167.87
181.28
189.41
192.11
189.80
183.70
175.91
168.84
164.62
164.42
168.11
174.57
182.28
190.01
197.48
205.52
215.48
228.76
246.29
268.35
294.49
323.32
352.36
378.03
396.18
403.05
396.42
376.54
346.17
309.53
270.81
232.92
197.29
164.61
135.60
111.17
91.59
75.40
59.13
38.49
10.74
-23.31
-59.09
-89.81
-109.79
-117.34
-115.35
-110.17
-108.83
-116.60
-135.59
-164.39
-198.05
-228.74
-247.30
-246.43
-224.59
-188.57
-152.73
-134.04
-144.57
-185.55
-246.01
-307.40
-351.60
-368.16
-357.23
-327.03
-288.10
-247.84
-208.47
-168.26
-124.85
-78.15
-31.42
10.39
43.48
66.99
83.05
94.44
101.98
103.66
96.12
78.05
52.82
28.47
14.65
18.27
40.38
76.12
117.73
158.37
194.48
225.38
251.06
270.07
279.26
275.43
257.37
226.53
186.02
139.01
87.57
33.31
-20.81
-68.63
-101.05
-108.79
-86.73
-37.62
27.22
91.10
137.80
156.82
145.68
108.79
53.99
-10.39
-76.60
-137.03
-183.39
-207.33
-202.44
-166.86
-104.92
-26.97
53.00
120.92
166.01
182.98
172.59
140.39
94.13
41.01
-14.22
-69.34
-123.18
-173.69
-216.94
-247.96
-263.02
-261.49
-246.34
-222.59
-195.01
-166.14
-136.13
-103.67
-67.68
-28.28
13.26
55.27
96.32
135.34
171.23
202.30
226.31
241.02
245.02
238.46
222.98
201.19
175.93
149.82
124.96
103.02
85.14
71.62
61.39
52.00
39.95
21.82
-4.38
-38.58
-78.93
-123.22
-170.22
-219.74
-271.38
-322.63
-367.85
-399.15
-409.16
-394.18
-355.78
-299.90
-233.99
-164.32
-95.21
-30.41
25.10
64.68
82.34
76.48
52.59
22.73
1.46
0.01
21.98
62.52
110.87
155.30
187.12
202.57
202.17
188.51
164.40
132.11
94.05
53.51
14.86
-17.35
-40.23
-54.00
-62.33
-71.07
-85.53
-107.71
-134.88
-160.19
-175.26
-173.51
-152.62
-114.88
-65.66
-10.69
46.14
103.64
162.41
222.89
283.35
339.08
383.29
409.43
413.70
396.58
362.76
319.48
274.12
232.07
195.86
165.67
140.67
120.26
104.56
94.05
88.69
87.31
87.66
87.08
83.43
75.60
63.69
48.66
31.78
13.97
-4.22
-22.65
-41.25
-59.74
-77.82
-95.98
-115.94
-140.40
-171.54
-209.42
-250.30
-286.60
-308.78
-308.66
-282.41
-231.35
-161.10
-79.52
4.59
82.53
146.36
189.98
210.38
208.37
189.29
161.56
134.49
114.26
102.83
98.45
97.86
97.85
95.14
88.28
77.55
66.14
56.01
47.91
41.07
34.23
25.92
12.11
-9.72
-39.63
-72.11
-103.82
-133.40
-161.81
-190.28
-220.59
-259.39
-312.40
-382.05
-460.95
-542.17
-617.87
-680.82
-723.82
-743.09
-745.66
-741.59
-739.50
-736.92
-733.21
-727.98
-722.61
-717.49
-678.01
-586.45
-445.01
-314.60
-213.25
-142.36
-85.07
-35.02
11.08
54.68
90.90
116.42
131.63
146.96
167.48
194.02
222.87
250.49
273.68
285.71
282.40
263.68
238.65
213.47
191.99
174.85
162.56
154.99
148.73
140.96
130.77
122.70
119.56
122.80
131.93
146.20
164.14
182.35
197.73
208.48
216.17
222.30
228.45
236.04
247.13
264.03
287.83
317.43
348.61
374.64
387.08
379.62
351.39
308.48
261.84
222.79
198.51
189.59
190.98
195.05
194.97
186.60
168.65
141.78
108.02
70.80
35.09
6.72
-9.39
-11.27
-0.91
16.37
34.21
47.84
55.67
59.23
61.51
65.08
70.72
77.18
82.07
82.87
77.85
66.43
49.12
27.23
2.50
-23.11
-47.72
-69.74
-87.93
-101.45
-109.85
-113.08
-111.61
-106.36
-98.83
-90.68
-83.35
-77.60
-73.23
-69.28
-64.68
-59.04
-53.15
-48.87
-48.21
-52.07
-59.46
-67.48
-72.52
-71.95
-65.54
-55.68
-46.27
-40.81
-40.74
-44.80
-49.84
-52.32
-50.01
-42.95
-33.26
-24.22
-18.98
-19.35
-25.18
-34.38
-43.62
-49.48
-49.67
-43.79
-33.24
-20.36
-7.30
4.88
16.28
27.48
38.74
49.53
58.75
65.29
68.67
69.17
67.69
65.37
63.38
62.69
63.86
66.63
69.41
69.25
62.45
45.86
18.58
-16.79
-54.14
-85.22
-101.91
-99.00
-75.88
-36.94
9.62
54.13
87.78
104.55
102.05
81.44
46.73
3.87
-40.19
-78.73
-106.20
-119.21
-117.04
-101.53
-76.53
-46.91
-17.38
8.44
28.65
43.12
52.86
59.05
62.28
62.16
57.73
48.40
34.58
17.73
-0.10
-17.24
-32.74
-46.20
-57.14
-64.65
-67.53
-64.89
-56.90
-44.77
-30.21
-14.60
1.54
18.33
35.68
52.60
67.11
76.94
80.66
78.56
72.70
66.20
61.83
61.04
63.34
66.80
68.96
67.96
63.19
55.44
46.36
37.65
30.49
25.12
21.01
17.18
12.84
7.53
1.22
-5.92
-13.81
-22.56
-32.29
-42.75
-53.07
-61.72
-66.99
-67.68
-63.74
-56.57
-48.59
-42.45
-40.05
-41.91
-47.03
-53.46
-59.12
-62.63
-63.53
-62.18
-59.23
-55.14
-50.15
-44.41
-38.50
-33.42
-30.43
-30.37
-33.15
-37.42
-40.94
-41.36
-37.11
-27.96
-15.12
-0.68
13.18
24.82
33.59
39.64
43.57
45.85
46.50
45.18
41.50
35.50
27.80
19.46
11.52
4.50
-1.90
-8.56
-16.31
-25.38
-34.97
-43.52
-49.29
-51.06
-48.53
-42.33
-33.68
-23.96
-14.35
-5.75
1.35
6.85
10.94
14.03
16.46
18.41
19.91
20.97
21.75
22.50
23.40
24.27
24.57
23.62
21.11
17.41
13.51
10.61
9.46
9.94
11.15
11.82
11.02
8.61
5.32
2.27
0.25
-0.73
-1.61
-3.78
-8.35
-15.48
-24.21
-33.04
-40.61
-46.27
-50.16
-52.80
-54.58
-55.47
-55.19
-53.55
-50.60
-46.58
-41.67
-35.79
-28.80
-20.80
-12.41
-4.68
1.38
5.31
7.33
8.19
8.62
9.05
9.68
10.70
12.61
15.97
20.99
27.02
32.59
35.97
36.06
33.04
28.34
24.02
21.67
21.68
23.16
24.59
24.53
22.37
18.32
13.07
7.23
1.10
-5.20
-11.27
-16.15
-18.47
-17.00
-11.49
-3.12
5.86
12.91
16.53
16.89
15.74
15.41
17.60
22.42
28.41
33.28
35.13
33.36
29.00
24.12
20.80
20.28
22.37
25.75
28.62
29.54
28.12
25.20
22.48
21.67
23.66
27.91
32.47
34.66
32.24
24.52
12.81
-0.01
-10.72
-17.27
-19.69
-19.95
-20.80
-24.14
-29.93
-36.27
-40.42
-40.35
-35.87
-28.66
-21.38
-16.39
-14.83
-16.50
-20.40
-25.49
-31.08
-36.88
-42.54
-47.40
-50.45
-50.67
-47.51
-41.11
-32.24
-21.98
-11.35
-1.12
8.08
15.71
21.22
24.14
24.31
22.03
18.09
13.58
9.64
7.09
6.16
6.40
6.90
6.76
5.62
3.98
2.92
3.52
6.07
9.75
12.94
14.21
13.17
10.83
9.03
9.23
11.46
14.05
14.42
10.53
2.12
-8.89
-19.22
-25.84
-27.55
-25.51
-22.71
-22.34
-26.12
-33.56
-42.39
-50.08
-55.38
-58.88
-62.23
-66.50
-70.75
-71.90
-66.23
-51.46
-28.40
-0.95
25.31
45.43
56.87
59.98
57.11
51.13
44.21
37.35
30.84
24.93
20.29
17.96
18.80
22.85
28.92
34.76
37.84
36.35
30.14
20.87
11.37
4.45
1.80
3.55
8.47
14.87
21.33
27.04
31.71
35.11
36.86
36.43
33.56
28.61
22.67
17.27
13.66
12.23
12.13
11.68
9.15
3.88
-3.18
-9.71
-13.00
-11.24
-4.51
5.23
15.01
22.16
25.35
24.98
22.62
20.15
18.86
19.22
20.98
23.73
27.29
31.76
37.28
43.53
49.57
54.01
55.58
53.68
48.67
41.67
34.06
26.88
20.49
14.66
8.93
3.10
-2.54
-7.32
-10.66
-12.52
-13.70
-15.61
-19.69
-26.66
-36.00
-46.01
-54.45
-59.48
-60.51
-58.53
-55.70
-54.31
-55.80
-60.08
-65.53
-69.57
-69.69
-64.08
-52.24
-35.23
-15.87
1.33
10.93
8.16
-9.01
-38.30
-73.03
-104.04
-122.94
-125.19
-111.43
-86.45
-56.40
-26.14
2.04
27.84
51.15
70.74
84.27
89.57
86.18
76.19
63.54
52.44
45.64
43.44
44.05
44.86
43.92
40.74
36.29
32.20
29.75
29.14
29.37
28.79
25.95
20.33
12.59
4.34
-2.61
-7.07
-8.95
-9.33
-9.90
-12.13
-16.63
-22.94
-29.82
-35.90
-40.27
-42.76
-43.76
-43.84
-43.36
-42.37
-40.78
-38.60
-36.17
-34.04
-32.68
-32.23
-32.34
-32.32
-31.50
-29.65
-27.06
-24.45
-22.68
-22.28
-23.18
-24.32
-23.90
-19.81
-10.58
3.77
21.19
38.03
50.25
54.99
51.72
42.33
30.19
18.76
10.27
5.39
3.73
4.74
8.50
15.67
26.86
41.80
58.74
74.73
86.46
91.44
88.91
80.01
67.23
53.51
41.37
32.41
27.23
25.63
26.82
29.45
31.88
32.49
30.07
24.27
15.52
4.78
-6.90
-18.64
-29.76
-39.57
-47.10
-51.25
-51.13
-46.55
-38.37
-28.35
-18.55
-10.73
-5.70
-3.32
-2.74
-2.93
-3.08
-2.80
-2.06
-0.98
0.28
1.57
2.74
3.70
4.51
5.35
6.52
8.17
10.11
11.84
12.75
12.46
11.12
9.36
8.06
7.84
8.76
10.27
11.34
10.98
8.65
4.51
-0.64
-5.64
-9.41
-11.35
-11.51
-10.56
-9.36
-8.62
-8.65
-9.24
-10.01
-10.66
-11.21
-11.89
-12.88
-14.02
-14.73
-14.29
-12.21
-8.56
-4.06
0.19
3.14
4.10
3.04
0.46
-2.82
-5.95
-8.35
-9.91
-10.90
-11.78
-12.85
-13.95
-14.50
-13.82
-11.52
-7.88
-3.89
-0.90
-0.18
-2.54
-8.12
-16.41
-26.29
-36.26
-44.62
-49.88
-51.09
-48.23
-42.19
-34.50
-26.87
-20.71
-16.75
-14.92
-14.42
-13.89
-11.89
-7.40
-0.33
8.28
16.63
22.96
26.42
27.44
27.36
27.40
27.87
27.81
25.74
20.80
13.63
6.33
1.37
0.24
2.52
6.09
8.18
6.88
2.00
-5.11
-12.42
-18.30
-22.12
-24.21
-25.23
-25.58
-25.10
-23.23
-19.48
-13.81
-6.81
0.33
6.18
9.55
9.80
7.17
2.67
-2.14
-5.70
-7.05
-6.16
-3.93
-1.74
-0.81
-1.63
-3.80
-6.27
-7.88
-7.98
-6.57
-4.18
-1.44
1.23
3.73
6.15
8.47
10.54
12.04
12.68
12.44
11.62
10.81
10.75
12.06
14.98
19.20
23.89
28.01
30.78
32.01
32.23
32.28
32.75
33.56
33.99
33.11
30.47
26.45
22.19
18.93
17.34
17.13
17.26
16.55
14.36
10.86
6.81
2.95
-0.43
-3.63
-7.17
-11.35
-16.05
-20.77
-25.04
-28.72
-32.04
-35.31
-38.56
-41.36
-43.02
-42.85
-40.62
-36.64
-31.64
-26.45
-21.65
-17.38
-13.41
-9.48
-5.44
-1.45
2.17
5.19
7.70
10.14
13.04
16.67
20.74
24.38
26.47
26.12
23.12
17.93
11.51
4.93
-0.99
-5.73
-8.99
-10.52
-10.09
-7.66
-3.53
1.49
6.26
9.64
10.93
10.10
7.77
4.87
2.21
0.22
-1.14
-2.27
-3.63
-5.53
-8.02
-10.88
-13.68
-15.89
-17.04
-16.92
-15.72
-14.02
-12.54
-11.78
-11.72
-11.86
-11.50
-10.20
-8.04
-5.65
-3.87
-3.30
-4.00
-5.45
-6.80
-7.20
-6.08
-3.28
1.01
6.35
12.16
17.87
23.09
27.61
31.53
35.06
38.50
41.98
45.50
48.97
52.32
55.60
59.01
62.69
66.53
70.10
72.72
73.91
73.86
73.90
76.35
83.61
96.93
115.08
134.00
147.65
149.64
135.00
101.29
48.93
-18.75
-95.77
-173.94
-243.82
-296.66
-326.70
-333.02
-319.74
-294.17
-263.90
-233.94
-205.68
-177.63
-147.26
-112.52
-72.05
-24.83
29.93
92.09
159.08
224.99
281.32
319.37
333.27
322.30
291.11
247.82
200.96
156.73
117.79
83.55
51.59
19.00
-16.80
-58.14
-107.22
-165.75
-233.68
-307.85
-381.51
-445.46
-490.76
-511.89
-508.77
-486.50
-452.95
-415.63
-379.31
-345.56
-314.04
-284.13
-255.92
-229.86
-205.77
-182.12
-156.32
-126.03
-90.57
-51.55
-12.26
23.62
53.96
79.13
102.16
127.53
159.44
199.87
247.38
296.95
340.87
370.43
378.09
359.66
316.07
253.93
184.46
120.71
73.97
50.62
50.85
69.78
100.30
136.25
174.14
212.76
251.26
287.25
316.33
333.48
335.37
322.24
297.95
268.30
238.64
212.08
189.10
168.47
148.96
130.34
113.55
99.77
89.30
80.88
71.99
59.83
42.67
20.65
-3.94
-27.55
-46.64
-59.07
-64.85
-66.12
-66.09
-67.60
-71.92
-78.38
-85.13
-90.38
-93.55
-95.64
-98.72
-104.79
-114.67
-127.49
-140.92
-151.80
-156.93
-153.61
-140.22
-116.89
-86.00
-52.13
-21.13
1.65
13.13
13.61
6.47
-3.48
-11.96
-16.68
-17.72
-16.67
-15.46
-15.32
-16.51
-18.40
-19.74
-18.91
-14.22
-4.51
10.19
28.09
45.84
59.71
67.08
67.75
64.00
59.54
57.66
59.85
65.37
72.18
78.21
82.48
85.32
87.81
90.95
95.28
100.83
107.44
114.93
123.05
131.09
137.83
141.62
140.85
134.34
121.69
103.46
81.17
57.22
34.49
15.64
2.26
-5.79
-10.32
-13.95
-18.91
-26.17
-35.56
-46.59
-59.23
-74.00
-91.14
-109.63
-126.90
-139.66
-145.58
-144.58
-139.01
-132.41
-127.72
-125.86
-125.62
-124.65
-120.92
-113.75
-103.81
-92.47
-81.05
-70.43
-61.13
-53.56
-48.09
-44.87
-43.28
-41.77
-38.23
-30.83
-18.94
-3.72
12.13
25.26
32.77
33.25
27.10
16.33
3.94
-6.89
-13.54
-14.42
-9.22
1.15
14.90
29.70
43.08
52.70
56.77
54.35
45.78
32.88
18.67
6.65
-0.18
-0.30
5.88
16.14
27.32
36.33
41.21
41.68
38.96
35.12
32.19
31.45
33.08
36.31
39.94
42.82
44.42
45.20
46.81
51.90
63.49
83.67
112.31
146.21
179.34
204.42
215.26
209.21
188.27
158.55
127.78
101.90
82.72
67.09
48.78
22.08
-14.79
-57.87
-98.36
-125.64
-131.31
-112.45
-72.89
-21.95
28.63
68.32
90.61
93.95
80.83
55.77
23.12
-14.24
-54.72
-97.23
-140.69
-184.12
-227.31
-270.87
-315.09
-358.47
-396.43
-421.90
-427.65
-409.24
-366.71
-304.33
-228.70
-146.50
-63.49
15.28
84.55
138.75
172.85
184.23
173.90
146.35
107.62
63.10
15.48
-35.55
-91.86
-154.10
-219.44
-281.57
-332.93
-368.10
-386.20
-390.85
-387.62
-380.56
-369.98
-353.12
-326.68
-289.95
-246.03
-200.51
-158.77
-123.44
-93.70
-66.55
-38.81
-8.49
25.07
61.79
100.94
141.03
179.47
212.79
237.46
251.47
255.31
251.66
244.10
235.33
226.21
216.13
204.21
190.53
176.43
163.73
153.50
145.50
138.62
132.09
126.42
123.30
124.49
130.51
139.66
148.39
152.59
149.36
138.13
120.64
99.96
79.14
60.23
44.06
30.83
20.66
13.88
10.71
10.63
12.07
12.83
10.98
5.84
-1.62
-9.26
-14.83
-16.95
-15.68
-12.18
-7.90
-3.91
-0.51
2.60
5.94
9.80
14.14
18.69
23.16
27.31
31.01
33.99
35.74
35.41
32.01
24.87
14.12
0.97
-12.39
-23.43
-30.06
-31.44
-28.14
-21.85
-14.71
-8.45
-4.10
-1.86
-1.44
-2.33
-4.17
-6.86
-10.44
-14.96
-20.19
-25.53
-29.99
-32.68
-33.05
-31.19
-27.68
-23.24
-18.34
-13.13
-7.66
-2.18
2.57
5.65
6.37
4.68
1.32
-2.65
-6.29
-9.24
-11.74
-14.20
-16.75
-18.89
-19.71
-18.38
-14.77
-9.63
-4.35
-0.28
2.04
3.11
4.20
6.62
10.96
16.85
23.23
29.00
33.47
36.42
37.85
37.59
35.30
30.88
24.89
18.69
13.96
11.93
12.66
14.92
16.75
16.40
13.11
7.30
0.22
-6.76
-12.70
-17.30
-20.70
-23.19
-24.88
-25.62
-25.15
-23.31
-20.22
-16.43
-12.86
-10.56
-10.51
-13.23
-18.53
-25.51
-32.67
-38.32
-41.05
-40.09
-35.43
-27.79
-18.29
-8.23
1.19
8.87
13.85
15.37
13.09
7.32
-0.74
-9.08
-15.31
-17.39
-14.27
-6.33
4.65
16.04
25.11
29.74
28.96
23.10
13.62
2.64
-7.56
-15.16
-19.20
-19.85
-18.22
-15.92
-14.37
-14.30
-15.53
-17.31
-18.85
-19.86
-20.79
-22.51
-25.75
-30.49
-35.75
-39.86
-41.13
-38.58
-32.40
-23.96
-15.26
-8.19
-3.94
-2.57
-3.13
-4.14
-4.29
-3.02
-0.72
1.52
2.65
2.23
0.79
-0.55
-0.69
0.75
3.29
5.83
7.38
7.64
7.07
6.63
7.05
8.44
10.24
11.61
11.95
11.15
9.64
8.04
6.90
6.49
6.71
7.24
7.63
7.45
6.37
4.28
1.28
-2.28
-5.90
-9.04
-11.27
-12.37
-12.35
-11.46
-10.19
-9.19
-9.19
-10.72
-13.81
-17.86
-21.73
-24.14
-24.18
-21.70
-17.32
-12.12
-7.18
-3.08
0.20
3.12
6.13
9.32
12.36
14.66
15.85
15.96
15.56
15.46
16.35
18.49
21.63
25.12
28.35
30.96
33.07
35.01
37.11
39.40
41.62
43.37
44.40
44.75
44.77
44.84
45.14
45.43
45.12
43.51
40.09
34.85
28.33
21.41
15.05
9.82
5.63
1.77
-2.78
-8.72
-15.98
-23.68
-30.48
-35.32
-37.87
-38.62
-38.41
-37.85
-37.01
-35.55
-33.26
-30.37
-27.58
-25.62
-24.66
-24.16
-23.16
-20.92
-17.40
-13.41
-10.08
-8.24
-7.84
-7.95
-7.13
-4.20
1.28
8.70
16.74
23.97
29.42
32.88
34.74
35.61
35.78
35.13
33.32
30.22
26.14
21.85
18.15
15.44
13.57
12.00
10.23
8.07
5.81
3.90
2.68
2.10
1.71
0.97
-0.64
-3.39
-7.34
-12.36
-18.24
-24.67
-31.23
-37.40
-42.59
-46.25
-47.95
-47.55
-45.24
-41.59
-37.37
-33.34
-29.93
-27.02
-24.06
-20.41
-15.82
-10.76
-6.31
-3.56
-2.94
-3.72
-4.26
-2.81
1.44
7.82
14.45
19.18
20.83
19.81
17.85
16.96
18.29
21.45
24.86
26.73
26.13
23.57
20.61
18.96
19.42
21.38
23.10
22.67
19.05
12.76
5.70
0.28
-1.73
-0.09
3.78
7.58
9.30
8.27
5.45
2.80
2.15
3.98
7.08
9.08
7.76
2.32
-6.04
-14.61
-20.41
-21.59
-18.15
-11.77
-4.82
0.70
3.87
4.86
4.41
3.42
2.60
2.47
3.39
5.39
8.10
10.76
12.58
13.24
13.27
13.81
15.97
19.98
24.79
28.35
28.62
24.54
16.68
6.95
-2.18
-8.77
-12.02
-12.41
-11.20
-9.74
-8.93
-8.97
-9.49
-9.99
-10.20
-10.41
-11.38
-14.05
-19.03
-26.24
-34.86
-43.62
-51.26
-56.92
-60.32
-61.67
-61.36
-59.81
-57.38
-54.41
-51.12
-47.62
-43.71
-38.89
-32.58
-24.47
-14.78
-4.37
5.57
13.95
20.06
23.84
25.75
26.53
26.96
27.63
28.88
30.83
33.54
37.03
41.21
45.74
49.85
52.45
52.50
49.55
44.06
37.36
31.16
26.75
24.46
23.64
23.07
21.64
18.83
14.76
9.95
4.90
-0.04
-4.80
-9.33
-13.62
-17.64
-21.36
-24.86
-28.23
-31.67
-35.42
-39.80
-45.10
-51.39
-58.36
-65.16
-70.61
-73.47
-72.90
-68.75
-61.60
-52.67
-43.40
-35.08
-28.44
-23.57
-20.04
-17.18
-14.47
-11.69
-8.92
-6.33
-4.00
-1.76
0.72
3.90
8.19
14.01
21.58
30.95
41.90
53.95
66.44
78.55
89.33
97.76
102.86
104.07
101.62
96.78
91.54
87.77
86.37
86.66
86.66
84.03
77.26
66.64
54.18
42.80
34.86
30.98
29.57
27.52
21.62
10.14
-6.08
-23.93
-39.01
-47.32
-46.79
-37.96
-23.87
-9.32
0.06
-0.89
-15.18
-41.89
-75.15
-104.77
-119.25
-110.08
-75.86
-23.80
32.52
78.31
103.50
106.21
92.45
72.24
54.54
43.57
38.24
34.66
29.40
21.93
14.45
9.87
9.30
10.72
10.12
4.13
-7.53
-21.41
-31.97
-34.42
-27.25
-12.92
3.51
16.84
24.05
25.05
21.87
16.99
11.69
5.26
-4.38
-19.14
-39.07
-61.58
-81.91
-94.96
-97.08
-86.86
-64.91
-32.96
6.58
50.40
93.95
131.73
158.70
172.22
173.33
166.26
156.14
146.23
136.27
123.16
103.31
75.20
40.32
2.48
-33.79
-64.66
-87.75
-102.08
-107.78
-105.82
-97.93
-86.39
-73.79
-62.43
-53.71
-47.86
-44.14
-41.39
-38.54
-34.84
-29.66
-22.43
-12.72
-0.62
12.89
25.85
35.82
40.76
39.89
34.09
25.52
16.52
8.51
1.58
-5.28
-13.14
-22.21
-31.33
-38.32
-40.86
-37.66
-29.08
-16.98
-3.99
7.52
16.11
21.45
23.81
23.49
20.52
14.83
6.90
-1.89
-9.39
-13.44
-12.93
-8.33
-1.56
4.95
9.37
11.10
10.78
9.69
9.04
9.60
11.69
15.32
20.39
26.71
33.95
41.54
48.74
54.74
58.88
60.71
60.18
57.72
54.29
51.29
49.99
51.09
54.25
58.22
61.37
62.55
61.73
60.04
59.22
60.68
64.80
70.73
76.79
81.34
83.42
82.95
80.34
75.88
69.35
60.16
47.78
32.13
13.56
-7.62
-31.59
-58.95
-90.02
-123.74
-157.18
-186.02
-205.99
-214.63
-212.27
-201.62
-186.34
-169.36
-152.06
-134.44
-116.30
-98.07
-81.16
-67.38
-57.97
-53.01
-51.46
-51.83
-52.99
-54.50
-56.55
-59.41
-63.06
-67.02
-70.53
-72.98
-74.06
-73.89
-73.06
-72.48
-73.27
-76.27
-81.64
-88.50
-95.05
-99.14
-99.08
-94.27
-85.20
-72.94
-58.32
-41.63
-22.81
-2.15
19.07
38.56
53.83
63.24
66.65
65.51
62.07
58.42
55.75
54.24
53.45
52.86
52.30
51.95
52.10
52.83
53.85
54.67
54.83
54.11
52.69
51.03
49.57
48.59
47.91
47.00
45.17
41.80
36.68
29.99
22.23
14.03
5.94
-1.68
-8.60
-14.59
-19.56
-23.57
-27.00
-30.39
-34.13
-38.11
-41.54
-43.22
-42.07
-37.77
-31.01
-23.16
-15.64
-9.37
-4.43
-0.40
3.25
6.79
10.15
13.13
15.60
17.54
18.87
19.31
18.49
16.11
12.27
7.62
3.16
-0.08
-1.42
-0.65
1.98
5.97
10.71
15.56
19.80
22.68
23.48
21.81
17.70
11.72
4.82
-1.98
-7.86
-12.33
-15.19
-16.50
-16.50
-15.57
-14.21
-13.02
-12.47
-12.83
-14.00
-15.61
-17.23
-18.51
-19.28
-19.51
-19.09
-17.82
-15.39
-11.56
-6.29
0.22
7.65
15.66
23.92
32.06
39.44
45.15
48.25
48.13
44.96
39.87
34.59
30.89
29.94
31.97
36.39
42.39
49.41
57.27
65.84
74.32
80.82
82.61
77.21
63.85
44.19
22.51
4.39
-5.34
-4.64
4.79
18.31
30.31
36.62
35.90
30.20
23.77
21.63
27.82
44.42
70.77
103.34
135.88
159.77
166.85
152.91
120.86
81.10
48.38
35.70
48.13
80.21
116.89
141.11
141.19
115.41
71.99
24.66
-13.20
-33.28
-34.25
-23.91
-13.04
-10.95
-22.02
-45.19
-76.10
-110.02
-144.21
-178.26
-217.66
-266.42
-324.33
-386.18
-444.53
-494.08
-534.13
-567.85
-599.38
-637.22
-686.03
-744.79
-807.18
-864.64
-910.62
-942.95
-963.17
-937.55
-844.16
-678.42
-459.57
-221.93
2.49
194.51
347.84
464.03
548.27
601.05
623.83
620.70
599.25
569.15
538.82
513.19
493.72
479.65
464.80
443.86
414.54
378.74
341.48
307.98
281.60
263.22
252.02
243.52
233.62
220.20
203.97
187.75
174.39
165.38
160.13
156.91
152.10
142.69
127.74
108.09
86.42
65.50
47.18
31.43
17.28
2.83
-13.68
-33.43
-56.87
-83.41
-111.26
-135.24
-151.02
-154.05
-142.04
-116.76
-84.09
-51.99
-27.26
-13.09
-8.41
-9.69
-12.97
-15.93
-18.47
-21.51
-25.63
-30.16
-33.72
-35.19
-34.79
-33.67
-33.45
-35.53
-40.18
-46.53
-53.02
-58.09
-60.82
-61.33
-60.28
-58.57
-56.80
-54.91
-52.60
-48.61
-42.15
-33.06
-21.98
-10.01
1.60
11.80
20.04
26.27
30.89
34.32
36.94
38.89
40.23
40.97
41.18
41.10
41.00
41.20
41.84
42.89
44.21
45.56
46.75
47.59
47.96
47.72
46.76
44.85
41.75
37.20
30.98
23.18
14.01
3.75
-7.22
-18.57
-30.05
-41.58
-53.16
-64.87
-76.44
-87.56
-97.84
-106.91
-114.55
-120.80
-126.00
-130.68
-135.37
-139.94
-143.94
-146.62
-147.08
-144.59
-138.72
-129.38
-116.46
-102.35
-87.99
-73.46
-58.26
-41.65
-23.20
-3.13
17.56
37.48
55.27
70.58
83.78
95.86
108.27
122.59
140.36
162.57
188.90
216.94
242.31
259.30
262.94
251.32
226.84
195.46
164.37
139.12
121.76
111.12
104.01
97.15
88.45
77.13
63.29
47.37
30.04
12.30
-4.29
-18.24
-28.63
-35.43
-39.48
-41.97
-43.98
-46.15
-48.69
-51.44
-53.97
-55.70
-56.04
-54.69
-51.77
-47.86
-43.69
-39.78
-36.04
-31.94
-26.81
-20.38
-13.13
-6.18
-0.75
2.42
3.46
3.28
3.15
4.14
6.89
11.50
17.75
25.21
33.27
41.09
47.54
51.36
51.60
47.89
40.81
31.72
22.40
14.51
9.14
6.47
5.94
6.44
6.85
6.44
5.11
3.25
1.39
-0.23
-1.90
-4.32
-8.06
-13.23
-19.21
-24.86
-29.09
-31.31
-31.57
-30.41
-28.32
-25.50
-21.76
-16.76
-10.37
-2.89
4.89
11.93
17.27
20.36
21.22
20.38
18.76
17.24
16.42
16.39
16.85
17.00
15.81
12.15
5.00
-5.72
-18.61
-30.61
-37.66
-36.10
-24.01
-2.07
26.61
57.06
83.80
101.77
107.15
97.89
73.80
36.20
-12.82
-70.99
-135.85
-203.80
-269.39
-325.22
-363.49
-378.85
-370.83
-344.57
-308.91
-272.92
-242.40
-218.83
-200.21
-183.41
-166.36
-148.65
-130.98
-113.81
-96.58
-77.84
-55.95
-29.91
0.29
33.49
68.07
102.59
136.33
169.35
202.17
234.98
266.99
296.12
319.49
334.52
340.14
337.39
329.00
318.09
306.91
296.06
284.92
272.70
259.40
245.92
233.35
221.88
210.19
195.82
176.41
151.22
122.01
92.82
68.48
52.64
46.25
47.10
50.93
53.36
51.68
45.51
36.23
25.61
14.56
3.05
-9.12
-21.32
-31.65
-37.60
-37.36
-31.07
-20.89
-10.08
-1.61
2.96
3.56
0.89
-4.74
-14.07
-28.77
-50.37
-79.04
-112.68
-146.96
-176.64
-197.31
-207.05
-206.92
-200.15
-190.50
-180.58
-171.20
-161.85
-151.84
-141.22
-131.00
-122.40
-116.00
-111.58
-108.72
-107.81
-110.40
-118.37
-132.38
-150.30
-167.11
-176.35
-172.47
-152.76
-117.92
-71.12
-16.60
41.53
99.50
153.39
198.95
231.98
249.49
250.95
238.89
218.47
196.07
177.44
166.05
162.45
164.40
167.98
168.77
162.98
148.11
123.24
89.33
49.23
7.52
-30.11
-58.18
-72.92
-73.58
-62.82
-46.09
-29.99
-20.17
-19.49
-27.23
-39.53
-51.08
-57.48
-57.10
-51.84
-45.98
-44.04
-48.47
-58.46
-70.43
-79.62
-81.84
-74.65
-57.57
-31.92
-0.58
32.24
61.63
83.15
94.31
95.77
91.33
86.64
87.03
95.37
110.89
129.35
144.49
150.12
142.26
120.65
88.98
53.87
22.54
0.35
-11.08
-14.03
-13.37
-14.28
-20.26
-32.22
-48.76
-67.14
-84.27
-97.47
-104.97
-106.38
-103.24
-99.01
-98.43
-105.88
-123.40
-149.14
-177.29
-199.41
-207.07
-194.78
-162.07
-114.12
-60.40
-11.95
21.95
36.31
31.47
12.16
-14.68
-42.35
-66.13
-83.82
-95.17
-100.91
-101.83
-98.37
-90.81
-79.86
-67.23
-55.47
-47.36
-44.64
-47.16
-52.93
-59.03
-63.08
-64.03
-61.88
-56.51
-46.64
-30.12
-5.33
26.80
62.04
94.04
116.83
127.47
126.70
117.85
104.24
87.27
65.95
38.03
1.94
-41.56
-88.86
-134.00
-169.95
-190.12
-189.93
-168.21
-128.13
-77.03
-24.86
18.39
45.36
53.13
43.24
20.40
-9.38
-40.36
-67.75
-87.81
-97.93
-96.98
-85.90
-67.66
-46.31
-25.26
-5.82
13.16
33.81
57.10
81.32
102.28
115.30
117.69
110.04
95.67
78.45
60.65
42.13
21.27
-3.18
-30.61
-58.43
-82.94
-100.81
-109.83
-108.84
-97.40
-75.35
-42.81
-0.46
50.02
105.55
161.53
212.14
251.44
275.16
282.44
276.56
264.11
252.51
247.26
250.10
258.88
269.14
276.29
277.33
271.27
258.36
239.03
212.99
179.19
136.24
83.60
22.84
-40.95
-99.27
-141.69
-159.22
-148.12
-112.48
-63.64
-16.62
15.14
24.13
10.15
-21.87
-65.90
-118.17
-177.44
-242.57
-309.04
-367.58
-406.09
-414.40
-388.94
-334.72
-263.55
-189.06
-121.45
-64.50
-15.86
30.04
78.29
131.03
186.71
240.97
288.16
322.72
340.19
337.84
315.24
274.65
221.32
163.06
109.00
67.56
44.19
39.65
49.93
67.73
85.13
96.11
97.83
90.28
74.90
53.44
27.47
-1.02
-29.21
-53.67
-71.56
-81.91
-86.09
-86.92
-87.00
-87.12
-85.77
-80.14
-67.69
-47.58
-21.19
8.39
37.25
61.70
78.79
86.52
83.93
71.23
49.97
22.93
-6.20
-33.63
-56.40
-73.00
-83.46
-88.84
-90.39
-88.87
-84.35
-76.84
-66.92
-56.18
-46.69
-40.08
-36.53
-34.60
-31.94
-26.59
-18.03
-7.37
3.16
11.20
14.71
12.09
2.03
-16.18
-42.01
-73.07
-105.16
-133.55
-154.76
-167.91
-174.67
-177.79
-179.08
-178.17
-173.06
-161.95
-145.16
-125.72
-107.94
-95.16
-87.75
-82.88
-76.12
-63.82
-45.12
-22.26
0.69
19.84
33.18
41.08
45.52
48.79
52.25
55.87
58.62
59.31
57.45
53.62
49.22
45.76
44.07
43.88
44.03
43.17
40.45
35.99
30.79
26.18
23.20
22.04
22.15
22.50
22.17
20.72
18.28
15.38
12.57
10.16
8.23
6.80
5.90
5.63
5.98
6.74
7.52
7.88
7.59
6.70
5.47
4.15
2.78
1.27
-0.40
-2.03
-3.16
-3.37
-2.58
-1.18
0.12
0.62
0.09
-1.17
-2.38
-2.72
-1.56
1.22
5.28
9.86
14.08
17.19
18.76
18.84
17.83
16.34
14.80
13.39
11.98
10.34
8.38
6.25
4.36
3.19
2.99
3.68
4.85
5.96
6.64
6.82
6.80
7.07
8.02
9.65
11.53
12.87
12.95
11.40
8.43
4.78
1.36
-1.11
-2.43
-2.92
-3.22
-3.88
-5.10
-6.58
-7.73
-8.02
-7.27
-5.84
-4.45
-3.80
-4.13
-5.10
-6.03
-6.54
-6.88
-7.90
-10.47
-14.80
-20.00
-24.42
-26.50
-25.74
-22.89
-19.49
-16.90
-15.50
-14.62
-13.04
-9.89
-5.23
-0.01
4.44
7.16
7.99
7.58
7.07
7.56
9.64
13.20
17.50
21.62
24.81
26.96
28.52
30.08
31.81
33.13
32.95
30.31
25.08
18.21
11.46
6.65
4.76
5.71
8.57
12.20
15.91
19.61
23.48
27.38
30.56
31.81
30.13
25.45
18.93
12.61
8.47
7.53
9.24
11.81
13.09
11.77
8.00
3.30
-0.26
-1.22
0.58
4.02
7.46
9.62
10.19
9.70
9.03
8.75
8.79
8.60
7.47
5.05
1.46
-2.78
-6.95
-10.51
-13.19
-15.07
-16.39
-17.43
-18.33
-18.99
-19.27
-19.08
-18.51
-17.77
-17.08
-16.45
-15.57
-14.04
-11.59
-8.45
-5.26
-2.84
-1.76
-2.01
-2.99
-3.85
-3.97
-3.32
-2.51
-2.43
-3.84
-6.80
-10.58
-13.81
-15.19
-14.13
-11.10
-7.61
-5.44
-5.84
-8.88
-13.57
-18.42
-22.32
-25.10
-27.33
-29.62
-31.96
-33.55
-33.32
-30.97
-27.46
-24.77
-24.88
-28.51
-34.49
-40.09
-42.35
-39.55
-32.17
-22.67
-14.32
-9.65
-9.28
-11.84
-14.78
-15.84
-14.10
-10.23
-5.97
-2.99
-2.02
-2.59
-3.62
-4.13
-3.89
-3.36
-3.14
-3.41
-3.61
-2.71
0.14
4.99
10.93
16.38
19.88
20.67
19.03
16.06
13.01
10.69
9.11
7.71
5.81
3.25
0.54
-1.35
-1.62
-0.23
1.99
3.77
4.08
2.71
0.35
-1.85
-3.06
-3.17
-2.84
-2.90
-3.83
-5.42
-7.07
-8.20
-8.74
-9.06
-9.61
-10.58
-11.62
-12.13
-11.64
-10.11
-8.09
-6.32
-5.42
-5.50
-6.15
-6.58
-5.96
-3.74
0.09
4.92
9.66
13.21
14.89
14.73
13.48
12.17
11.58
11.85
12.47
12.73
12.08
10.52
8.43
6.31
4.49
2.98
1.73
0.78
0.47
1.21
3.21
6.22
9.50
12.14
13.38
13.01
11.32
9.00
6.84
5.46
5.16
5.79
6.80
7.50
7.34
6.28
4.79
3.75
3.99
5.89
9.23
13.35
17.46
21.03
23.92
26.24
28.19
29.83
31.07
31.73
31.64
30.66
28.81
26.23
23.17
20.00
17.11
14.97
13.93
14.33
16.36
19.95
24.70
29.80
34.11
36.37
35.45
30.65
21.90
9.90
-4.06
-18.33
-31.32
-41.87
-49.40
-53.87
-55.63
-55.22
-53.27
-50.55
-47.85
-45.81
-44.62
-43.94
-42.99
-40.99
-37.58
-33.05
-28.19
-23.81
-20.40
-17.88
-15.77
-13.50
-10.76
-7.62
-4.37
-1.37
1.21
3.29
4.89
6.00
6.62
6.88
7.07
7.56
8.57
9.93
11.08
11.29
10.20
8.10
5.96
4.97
5.84
8.38
11.48
13.78
14.21
12.51
9.10
4.64
-0.40
-5.86
-11.57
-17.05
-21.45
-23.99
-24.40
-23.35
-22.11
-21.83
-22.90
-24.67
-25.87
-25.27
-22.43
-17.79
-12.41
-7.44
-3.72
-1.56
-0.77
-0.85
-1.17
-1.19
-0.57
0.72
2.45
4.38
6.40
8.61
11.16
14.03
16.97
19.49
21.23
22.11
22.34
22.21
21.87
21.22
20.02
18.23
16.15
14.33
13.26
13.06
13.31
13.25
12.19
9.87
6.61
3.06
-0.16
-2.77
-5.00
-7.37
-10.45
-14.48
-19.21
-23.90
-27.55
-29.24
-28.52
-25.57
-21.11
-16.10
-11.35
-7.18
-3.50
-0.07
3.17
6.03
8.16
9.40
9.94
10.28
10.88
11.98
13.46
15.17
17.22
19.99
23.94
29.09
34.74
39.60
42.31
42.17
39.44
35.32
31.33
28.63
27.59
27.74
28.25
28.42
27.99
27.18
26.32
25.58
24.80
23.65
21.89
19.63
17.21
14.87
12.40
9.01
3.65
-4.28
-14.29
-24.62
-32.76
-36.47
-34.77
-28.45
-19.70
-11.18
-4.85
-1.28
0.37
1.75
4.42
9.06
15.27
21.82
27.33
30.87
32.29
32.09
31.00
29.54
27.83
25.70
22.92
19.46
15.50
11.25
6.75
1.82
-3.78
-9.99
-16.28
-21.70
-25.31
-26.64
-26.04
-24.63
-23.97
-25.55
-30.34
-38.53
-49.55
-62.06
-74.14
-83.77
-89.70
-92.43
-94.39
-99.09
-109.19
-124.42
-140.76
-151.47
-149.46
-129.80
-91.27
-36.46
28.71
95.64
153.71
191.71
200.67
177.79
129.16
69.21
16.38
-13.48
-12.67
16.61
64.75
119.64
171.04
212.63
241.28
255.48
254.29
237.51
206.55
164.58
115.74
63.70
10.48
-42.78
-94.00
-138.63
-170.15
-182.93
-175.96
-154.80
-130.07
-112.77
-108.96
-116.91
-128.25
-132.27
-121.01
-92.36
-50.11
-2.05
42.69
75.61
90.54
85.09
62.22
30.37
1.45
-13.43
-8.19
16.18
52.87
92.91
128.83
156.41
173.81
179.69
171.68
146.80
103.46
43.69
-25.76
-94.29
-149.98
-182.72
-186.70
-161.83
-113.57
-51.39
13.37
69.86
109.66
127.73
122.60
95.94
52.03
-2.61
-59.92
-111.33
-149.38
-169.12
-169.21
-151.89
-122.55
-88.65
-57.74
-35.54
-24.28
-21.75
-21.68
-15.82
2.71
36.20
80.37
126.20
163.46
184.86
188.22
176.40
154.83
128.29
99.12
66.64
29.90
-10.10
-49.67
-84.27
-110.63
-128.50
-141.12
-154.03
-173.38
-202.21
-238.42
-274.50
-300.82
-309.59
-297.94
-269.35
-225.67
-174.09
-123.99
-82.62
-50.79
-24.43
0.02
24.44
46.87
64.26
75.28
82.07
89.00
102.11
126.33
163.70
212.62
267.87
321.36
364.17
388.97
386.57
355.11
301.39
238.76
181.05
139.28
110.58
87.41
63.26
34.82
2.73
-30.40
-62.74
-94.04
-125.46
-158.39
-192.34
-225.64
-256.40
-283.22
-306.47
-328.11
-350.07
-372.21
-391.51
-402.36
-399.66
-381.77
-350.92
-312.35
-271.79
-233.21
-198.04
-166.33
-137.84
-113.41
-94.55
-81.68
-73.03
-64.93
-53.39
-35.81
-11.90
16.77
47.12
75.25
96.94
108.36
107.21
94.14
73.40
51.99
37.50
35.14
45.87
66.57
92.14
117.89
141.26
162.06
181.33
200.24
219.82
241.01
265.08
293.52
327.26
365.53
405.12
440.49
465.14
473.89
464.85
440.46
406.96
372.16
342.51
320.80
305.50
292.14
276.18
254.81
227.85
197.38
166.18
136.27
108.21
81.14
54.26
28.61
5.99
-12.26
-25.87
-36.45
-47.25
-62.03
-84.06
-113.53
-145.29
-172.33
-188.94
-192.34
-183.70
-167.14
-147.17
-127.57
-109.08
-87.94
-61.86
-33.29
-7.86
7.75
9.12
-3.67
-27.95
-58.67
-87.71
-110.21
-126.25
-137.56
-145.72
-151.04
-141.53
-107.81
-65.73
-25.90
12.35
47.15
77.26
102.44
123.42
141.10
154.20
160.78
162.16
159.20
151.47
139.65
125.58
111.59
99.60
89.02
77.94
66.42
54.05
39.64
23.32
6.41
-9.33
-22.78
-35.13
-49.08
-66.38
-88.72
-117.24
-150.99
-187.23
-222.52
-254.14
-281.61
-306.75
-332.37
-362.31
-400.29
-447.57
-501.50
-554.93
-597.59
-618.93
-611.74
-574.76
-513.95
-440.89
-368.60
-307.35
-261.76
-230.30
-207.18
-185.51
-160.33
-130.36
-97.85
-66.85
-40.87
-21.10
-5.97
7.72
22.54
38.74
53.71
63.24
63.69
53.96
36.55
17.00
2.09
-2.30
7.04
29.53
60.57
92.43
116.54
126.54
121.22
105.54
89.02
81.31
87.20
103.89
122.42
132.79
130.13
118.14
107.55
110.38
133.34
174.03
222.31
265.37
293.39
302.50
293.93
271.23
237.88
196.97
152.65
111.41
81.20
68.48
74.99
96.25
122.75
143.45
149.74
137.93
109.60
69.99
26.00
-15.85
-50.84
-76.74
-94.06
-105.58
-115.26
-126.68
-141.86
-160.65
-180.85
-198.82
-210.23
-210.90
-198.34
-173.47
-141.60
-111.56
-92.39
-89.09
-99.50
-114.75
-123.54
-117.91
-97.07
-66.77
-35.24
-7.97
14.78
36.70
61.64
90.16
119.08
143.85
161.94
174.79
186.96
203.28
225.90
252.84
278.77
297.15
302.69
293.00
268.89
234.04
193.65
153.20
117.29
88.73
67.93
52.66
38.46
20.01
-6.77
-42.75
-84.53
-124.92
-155.23
-168.52
-162.44
-140.80
-112.73
-89.80
-81.80
-92.84
-119.53
-152.15
-178.64
-189.47
-181.09
-156.41
-122.32
-85.90
-51.58
-20.67
6.95
30.60
47.81
55.22
50.76
35.64
14.57
-5.73
-19.19
-22.69
-17.12
-6.63
3.14
7.29
3.22
-8.83
-26.29
-45.46
-62.54
-74.61
-79.97
-78.17
-69.85
-56.38
-39.82
-22.71
-7.81
2.37
6.20
3.53
-4.18
-14.32
-24.28
-32.71
-39.96
-47.67
-57.24
-68.17
-77.38
-80.14
-72.44
-53.45
-26.87
0.03
19.21
25.32
18.05
2.42
-13.19
-20.42
-14.00
6.41
36.58
69.69
99.29
121.66
136.46
145.56
150.68
151.57
145.82
130.70
105.93
75.39
46.22
25.41
15.91
14.45
12.94
2.61
-21.10
-55.98
-94.30
-126.81
-147.53
-156.50
-159.18
-163.16
-174.18
-193.37
-217.01
-238.61
-251.93
-253.42
-243.18
-224.24
-200.74
-176.31
-153.02
-131.48
-111.69
-93.97
-79.45
-69.74
-65.93
-67.57
-72.24
-76.09
-75.23
-67.17
-51.71
-30.71
-7.13
16.36
38.55
60.08
82.97
109.83
142.79
182.58
227.77
274.94
319.27
355.77
380.41
391.02
387.85
373.74
353.71
333.87
319.65
313.85
315.38
319.68
320.48
312.29
292.67
262.52
224.91
183.16
139.34
94.03
47.54
1.08
-42.97
-82.26
-115.75
-144.39
-170.05
-193.72
-214.01
-227.00
-228.02
-214.23
-186.58
-149.87
-111.09
-76.62
-50.17
-32.18
-20.39
-11.38
-1.47
12.95
35.18
67.04
107.53
151.67
191.21
217.92
226.25
215.34
188.70
151.90
109.43
64.64
19.94
-21.46
-53.06
-67.50
-59.44
-27.91
23.60
88.07
159.32
231.95
300.12
358.64
400.64
418.85
409.07
373.45
319.92
263.12
217.84
193.27
193.27
213.58
243.91
272.46
290.42
292.83
283.08
268.39
236.96
181.61
100.58
-0.49
-110.56
-206.18
-284.99
-348.32
-396.18
-426.47
-435.12
-417.74
-375.90
-319.89
-267.02
-237.63
-242.88
-281.40
-339.99
-396.55
-430.71
-431.82
-401.30
-349.26
-289.58
-230.77
-175.66
-123.70
-72.31
-20.14
32.47
84.96
137.48
189.31
239.48
284.18
316.86
331.49
325.08
299.44
260.93
218.16
178.44
146.58
123.61
107.33
94.08
79.99
61.85
37.61
6.69
-30.17
-70.85
-112.82
-154.04
-193.78
-233.20
-275.06
-322.31
-376.02
-433.27
-486.70
-526.07
-541.84
-529.10
-489.92
-432.92
-370.03
-312.39
-266.98
-235.45
-215.19
-201.34
-188.72
-172.81
-150.16
-118.78
-78.92
-33.78
10.76
47.65
71.27
79.76
76.11
67.01
60.19
61.54
73.24
93.64
118.72
143.92
165.54
181.20
189.82
191.58
187.92
181.39
174.90
170.39
167.92
165.48
160.11
149.76
134.77
118.08
104.06
96.42
96.53
102.88
111.90
119.54
122.82
120.59
113.49
103.16
91.34
79.15
66.94
54.61
42.22
30.39
20.21
12.64
7.83
4.73
1.48
-3.71
-11.56
-21.61
-32.81
-44.44
-56.29
-67.99
-78.02
-83.42
-80.91
-69.08
-49.96
-28.74
-11.49
-1.94
0.45
-0.24
0.75
5.60
12.52
17.17
15.70
7.39
-4.91
-16.78
-25.07
-29.62
-32.80
-37.50
-44.76
-52.99
-59.14
-61.11
-59.57
-57.90
-60.11
-68.00
-79.55
-89.35
-91.47
-82.62
-64.02
-40.63
-18.48
-1.44
10.15
18.60
26.52
34.60
41.08
43.14
39.14
30.00
18.93
9.67
4.44
2.78
2.07
-0.61
-6.29
-12.92
-16.01
-10.84
4.77
28.68
54.67
75.04
84.16
81.27
70.64
59.12
52.28
51.64
54.54
56.67
55.58
52.88
53.80
64.25
87.25
120.66
157.53
188.80
207.01
209.19
197.53
177.76
156.07
136.21
118.20
98.94
74.46
42.39
3.12
-40.63
-85.44
-128.48
-167.74
-201.32
-226.63
-240.54
-240.87
-228.12
-206.24
-181.49
-159.60
-143.19
-130.79
-118.33
-102.37
-82.90
-64.12
-52.28
-51.89
-62.41
-77.66
-88.51
-87.34
-71.98
-46.92
-21.16
-3.75
0.40
-7.62
-21.90
-35.00
-41.33
-38.97
-29.43
-15.94
-1.55
12.08
24.84
37.58
51.33
66.44
82.04
96.37
107.63
115.06
119.57
123.36
128.80
137.03
146.95
155.43
158.44
152.54
135.99
109.07
73.81
33.69
-6.85
-42.94
-70.33
-86.32
-90.48
-84.50
-71.28
-53.94
-35.18
-17.44
-3.10
5.73
7.77
3.24
-5.97
-17.06
-27.54
-36.17
-42.97
-48.36
-52.00
-52.61
-48.56
-39.13
-25.41
-10.33
2.31
9.07
7.97
-1.05
-16.10
-33.64
-49.16
-58.30
-58.19
-48.82
-33.34
-17.11
-5.47
-1.49
-4.59
-11.04
-15.98
-15.96
-10.42
-1.64
6.80
11.90
12.49
9.23
3.68
-2.88
-9.98
-17.67
-25.60
-32.28
-35.00
-30.80
-18.06
2.22
26.16
48.04
62.41
66.13
59.54
46.16
31.24
19.65
14.17
14.65
18.41
21.32
19.28
9.67
-7.69
-30.25
-53.38
-71.99
-82.50
-84.21
-79.43
-72.03
-65.28
-60.22
-55.44
-48.50
-37.95
-24.67
-11.62
-2.23
1.24
-1.07
-6.95
-13.00
-15.93
-13.59
-5.64
6.23
18.65
27.70
30.63
27.22
20.08
13.40
10.77
13.33
19.13
24.16
24.25
16.78
1.51
-19.62
-42.99
-64.00
-77.68
-79.79
-68.00
-43.27
-10.10
24.32
52.27
68.14
70.16
60.61
44.36
26.82
12.20
3.00
0.26
4.20
14.40
29.42
46.53
61.82
71.41
72.99
66.92
56.23
45.20
37.42
34.25
34.58
35.82
35.42
32.05
26.05
18.89
12.26
7.49
5.07
4.98
6.95
10.58
15.10
19.29
21.55
20.62
16.31
9.83
3.37
-0.99
-2.27
-0.94
1.57
3.92
5.75
7.75
10.88
15.47
20.69
24.90
26.78
26.29
25.13
26.00
31.35
42.02
56.75
72.54
85.77
93.60
94.86
90.53
83.85
80.01
85.13
104.41
139.69
187.52
239.20
283.12
308.95
311.54
292.68
259.66
221.68
185.85
155.15
128.90
104.77
81.00
57.16
33.52
9.76
-15.68
-45.06
-80.30
-121.73
-167.80
-215.82
-263.56
-310.49
-357.73
-406.76
-457.47
-506.81
-548.85
-576.64
-584.75
-571.53
-539.82
-495.86
-447.03
-399.54
-356.83
-319.23
-284.96
-251.62
-217.54
-182.58
-147.76
-114.17
-81.83
-49.24
-14.50
23.04
61.85
99.04
132.18
160.87
186.19
208.39
224.55
228.28
212.91
176.57
125.72
74.01
36.54
22.44
30.65
51.45
73.08
88.86
100.14
113.42
134.00
160.98
186.97
202.68
203.12
191.01
175.46
166.54
169.40
181.81
195.63
201.59
193.97
172.75
142.52
109.65
79.12
52.77
29.92
8.81
-11.53
-30.23
-44.77
-52.39
-51.56
-43.02
-29.54
-14.78
-1.90
7.29
12.25
12.96
9.52
2.18
-8.05
-19.17
-28.28
-32.42
-29.75
-20.17
-5.40
11.91
29.17
44.60
57.15
66.91
75.06
83.54
94.40
108.58
125.37
142.45
157.00
166.27
168.91
165.00
155.06
139.19
116.57
86.17
47.96
3.76
-43.95
-92.42
-139.64
-184.74
-227.43
-267.39
-303.67
-334.71
-352.45
-350.24
-325.18
-280.35
-224.05
-165.74
-112.26
-66.53
-28.50
2.98
27.85
45.32
54.58
55.78
51.06
44.15
39.23
39.21
45.03
54.82
65.28
73.14
75.90
72.80
63.88
49.37
29.78
6.65
-16.74
-35.46
-42.90
-36.21
-17.23
8.30
33.18
53.73
69.48
82.08
93.29
102.57
106.53
101.07
84.20
57.90
26.99
-3.41
-30.80
-56.19
-82.38
-111.29
-140.97
-165.79
-176.37
-167.15
-138.79
-98.19
-55.14
-17.88
10.09
30.83
50.28
75.21
109.86
154.80
206.80
259.91
306.94
341.36
359.33
360.97
350.23
332.64
313.51
295.99
280.82
267.18
253.74
239.47
223.34
203.70
177.80
142.96
97.76
43.25
-16.98
-78.17
-135.74
-186.90
-231.51
-272.31
-313.83
-360.72
-415.04
-474.66
-532.76
-579.09
-603.10
-598.10
-564.51
-509.80
-445.85
-383.43
-329.05
-284.00
-245.31
-208.71
-171.66
-134.73
-100.44
-71.55
-47.80
-26.35
-3.46
24.84
62.11
110.72
171.37
242.72
320.68
400.06
474.11
532.61
564.33
563.83
536.17
494.68
457.24
428.39
405.66
384.21
359.90
330.53
297.02
260.95
222.46
179.77
129.94
72.35
8.95
-56.34
-118.20
-171.45
-212.91
-242.74
-264.41
-283.41
-304.28
-330.38
-364.07
-406.65
-457.64
-514.26
-571.11
-620.72
-655.33
-668.67
-658.61
-628.13
-583.72
-532.39
-479.33
-427.03
-375.88
-325.89
-277.22
-230.70
-187.52
-148.47
-113.62
-82.90
-56.62
-35.72
-21.22
-13.06
-9.97
-9.63
-9.22
-6.07
1.62
14.44
31.94
53.07
77.80
106.22
138.43
174.13
212.47
252.02
291.17
328.50
363.08
396.30
429.71
464.78
502.57
543.62
587.50
632.13
673.02
703.34
717.54
711.01
682.26
633.86
571.94
504.33
438.29
378.65
314.21
239.10
153.06
62.69
-21.63
-91.24
-142.63
-177.35
-199.79
-214.56
-223.02
-225.63
-222.51
-214.32
-202.40
-188.51
-174.49
-161.94
-151.94
-143.39
-135.16
-126.28
-116.30
-105.43
-94.56
-84.63
-77.56
-75.16
-77.77
-85.42
-98.07
-115.95
-139.17
-165.53
-191.15
-210.27
-216.61
-205.66
-177.73
-138.43
-96.80
-61.65
-38.07
-26.17
-22.35
-21.83
-21.08
-19.10
-16.65
-14.79
-13.58
-12.02
-8.96
-4.02
2.14
8.09
11.88
12.10
8.16
0.52
-9.45
-20.03
-29.61
-37.05
-41.94
-44.76
-46.47
-48.00
-49.90
-52.07
-53.21
-51.48
-44.85
-31.48
-10.14
19.26
54.50
90.05
118.19
130.89
122.96
94.74
53.36
11.09
-18.77
-26.61
-9.81
27.06
74.29
120.44
155.35
172.08
167.85
144.07
105.88
60.89
17.78
-16.87
-39.31
-49.12
-48.89
-42.57
-34.02
-26.03
-20.23
-17.44
-17.77
-20.52
-24.30
-27.33
-28.09
-26.09
-21.87
-16.98
-13.14
-11.50
-12.16
-14.25
-16.43
-17.44
-16.64
-14.21
-10.97
-8.00
-6.16
-5.71
-6.32
-7.30
-7.91
-7.68
-6.53
-4.80
-3.02
-1.69
-1.05
-1.05
-1.43
-1.84
-1.96
-1.70
-1.08
-0.28
0.49
1.10
1.49
1.69
1.80
1.91
2.07
2.30
2.60
2.95
3.33
3.71
4.08
4.46
4.85
5.29
5.79
6.39
7.06
7.80
8.55
9.29
9.99
10.70
11.48
12.37
13.41
14.60
15.94
17.38
18.91
20.48
22.12
23.80
25.45
26.89
27.86
28.01
27.01
24.66
20.91
15.95
10.16
3.98
-2.17
-8.06
-13.64
-18.95
-24.03
-28.78
-32.92
-36.10
-38.04
-38.70
-38.42
-37.82
-37.52
-37.94
-39.05
-40.37
-41.21
-41.10
-39.90
-37.96
-35.88
-34.17
-33.06
-32.55
-32.64
-33.50
-35.32
-37.65
-39.13
-37.59
-31.01
-18.79
-2.48
14.54
28.32
36.14
38.03
36.62
35.74
38.28
44.68
52.90
60.13
64.06
63.98
60.73
55.50
48.85
40.60
30.75
20.83
14.43
15.48
25.79
43.20
61.57
73.04
71.40
54.73
24.76
-11.40
-44.75
-68.43
-80.44
-83.69
-83.65
-85.01
-89.55
-96.03
-101.87
-105.52
-107.29
-108.38
-109.03
-107.28
-99.52
-82.09
-52.86
-11.81
38.90
95.50
152.73
203.99
241.78
259.23
252.65
223.41
177.99
125.13
72.48
24.60
-16.55
-49.71
-73.16
-84.92
-84.41
-73.59
-56.43
-36.34
-13.90
13.35
48.19
89.86
132.18
164.86
177.89
165.93
130.82
80.09
23.10
-32.81
-84.52
-132.73
-180.33
-230.20
-283.46
-338.40
-390.39
-432.82
-458.54
-462.24
-442.02
-400.14
-342.36
-276.01
-208.10
-143.53
-84.78
-32.32
14.11
55.62
94.01
131.49
170.54
212.70
257.55
301.21
336.30
353.09
344.81
312.39
266.00
221.85
195.06
192.64
209.51
231.09
239.75
224.02
183.59
127.58
68.62
16.36
-25.31
-58.17
-80.26
-90.68
-91.07
-83.72
-70.72
-54.28
-37.50
-22.69
-10.94
-1.76
5.72
12.11
17.36
19.75
17.74
9.50
-3.70
-16.96
-22.83
-15.21
7.82
42.16
75.79
94.40
87.38
52.58
-3.17
-66.87
-124.31
-164.28
-180.69
-173.25
-146.38
-107.33
-64.31
-24.44
7.42
29.28
41.37
46.12
46.87
46.68
47.08
47.52
45.81
38.83
24.44
2.58
-24.13
-51.32
-74.70
-92.19
-104.35
-113.26
-120.16
-123.73
-120.41
-106.64
-81.62
-48.88
-15.15
12.45
29.62
36.50
36.73
35.14
34.85
36.07
36.70
34.67
29.42
22.58
16.90
14.62
16.21
20.21
24.21
25.78
24.04
19.61
14.25
9.91
7.88
8.29
10.14
11.95
12.44
11.15
8.46
5.35
2.83
1.54
1.44
1.98
2.39
2.08
0.88
-0.98
-3.03
-4.84
-6.14
-7.00
-7.69
-8.50
-9.63
-11.13
-12.88
-14.72
-16.51
-18.17
-19.73
-21.28
-22.90
-24.67
-26.61
-28.76
-31.09
-33.62
-36.27
-38.95
-41.50
-43.69
-45.22
-45.74
-44.94
-42.52
-38.47
-32.70
-25.33
-16.73
-7.46
1.89
10.65
18.25
24.24
28.35
30.59
31.13
30.34
28.71
26.73
24.81
23.18
21.93
20.92
19.90
18.52
16.45
13.46
9.46
4.46
-1.33
-7.55
-13.82
-19.71
-24.83
-28.97
-32.08
-34.22
-35.72
-36.96
-38.39
-40.44
-43.51
-47.67
-52.90
-59.07
-65.96
-73.30
-80.83
-88.39
-95.91
-103.40
-110.62
-117.44
-123.74
-129.43
-134.55
-139.21
-143.65
-148.20
-153.17
-158.35
-163.48
-168.11
-171.70
-173.74
-173.73
-171.22
-165.63
-158.55
-150.44
-141.28
-130.73
-118.38
-103.99
-87.71
-70.17
-52.27
-34.91
-18.23
-1.83
15.14
33.65
54.32
77.07
100.95
124.47
146.04
164.76
180.46
193.73
205.71
217.84
231.42
247.01
263.90
279.73
290.99
293.72
285.02
264.17
233.13
195.76
156.40
118.25
82.47
48.34
14.04
-22.20
-60.89
-100.80
-139.14
-172.50
-197.93
-214.15
-221.94
-223.83
-222.90
-221.52
-220.49
-219.20
-216.42
-211.24
-203.61
-194.16
-183.51
-171.72
-158.09
-141.51
-121.09
-96.64
-68.86
-39.20
-9.36
19.31
46.17
71.40
95.76
120.17
145.47
172.25
200.94
231.75
264.25
296.78
326.20
348.30
359.23
357.11
343.26
322.00
299.07
279.49
265.75
257.22
250.98
243.42
231.77
214.92
193.37
168.67
142.78
117.57
94.42
74.10
56.76
42.04
29.29
17.77
6.73
-4.48
-16.17
-28.08
-39.32
-48.55
-54.66
-57.58
-58.70
-60.38
-64.69
-72.19
-81.38
-89.45
-94.00
-94.33
-91.99
-89.92
-90.74
-95.33
-102.44
-109.44
-113.79
-114.21
-110.68
-104.17
-95.87
-86.73
-77.37
-68.10
-58.82
-48.69
-35.79
-16.34
13.33
55.09
107.36
164.62
218.92
262.59
291.01
303.95
306.75
306.18
307.56
312.74
319.87
324.98
323.90
313.71
293.41
266.84
239.44
217.26
205.30
206.18
219.68
243.12
272.51
303.74
337.24
374.49
416.94
464.45
514.65
563.59
607.10
641.66
642.16
591.01
480.66
319.01
128.19
-64.38
-236.41
-376.00
-480.95
-554.91
-599.86
-617.90
-611.81
-586.33
-548.47
-506.31
-466.56
-433.06
-406.76
-383.80
-360.25
-334.34
-307.19
-282.59
-265.40
-259.49
-266.38
-284.72
-308.86
-331.53
-345.89
-346.97
-333.13
-306.33
-271.09
-232.74
-195.88
-162.54
-131.26
-101.31
-72.42
-45.29
-21.33
-1.93
12.35
21.94
28.33
33.05
36.79
39.58
40.87
39.96
36.51
30.76
23.45
15.51
7.79
0.58
-5.98
-11.87
-17.01
-21.12
-23.68
-24.20
-22.33
-18.07
-11.99
-4.90
2.30
8.78
13.97
17.63
19.85
20.88
21.09
20.74
20.06
19.24
18.41
17.63
16.97
16.47
16.14
15.95
15.84
15.81
15.91
16.21
16.82
17.78
19.14
20.82
22.69
24.52
26.06
27.10
27.50
27.24
26.42
25.27
24.08
23.20
22.88
23.29
24.45
26.17
28.13
29.87
30.87
30.64
28.75
24.96
19.20
11.60
2.48
-7.69
-18.36
-28.91
-38.76
-47.40
-54.39
-59.46
-62.51
-63.58
-62.86
-60.63
-57.31
-53.35
-49.22
-45.34
-42.07
-39.65
-38.23
-37.82
-38.32
-39.52
-41.17
-43.04
-44.85
-46.39
-47.52
-48.10
-48.10
-47.54
-46.43
-44.83
-42.83
-40.46
-37.81
-34.93
-31.84
-28.58
-25.15
-21.57
-17.86
-14.04
-10.15
-6.28
-2.52
0.98
4.10
6.67
8.58
9.76
10.19
9.99
9.31
8.35
7.38
6.64
6.34
6.62
7.52
9.00
10.97
13.24
15.62
17.87
19.82
21.32
22.29
22.67
22.47
21.75
20.59
19.11
17.45
15.72
14.08
12.62
11.40
10.44
9.70
9.11
8.53
7.88
7.05
6.02
4.79
3.46
2.15
1.03
0.24
-0.11
-0.01
0.48
1.21
1.95
2.47
2.56
2.08
0.97
-0.70
-2.78
-5.04
-7.22
-9.04
-10.28
-10.78
-10.44
-9.26
-7.29
-4.69
-1.61
1.78
5.28
8.73
11.95
14.79
17.15
18.96
20.20
20.87
21.03
20.75
20.17
19.36
18.39
17.32
16.18
14.95
13.58
12.05
10.33
8.44
6.43
4.41
2.53
0.95
-0.14
-0.62
-0.38
0.59
2.25
4.46
7.02
9.72
12.28
14.46
16.09
17.01
17.17
16.56
15.29
13.47
11.29
8.92
6.53
4.28
2.26
0.52
-0.93
-2.16
-3.27
-4.35
-5.57
-7.06
-8.90
-11.20
-14.00
-17.28
-21.01
-25.11
-29.44
-33.87
-38.23
-42.31
-45.93
-48.90
-51.04
-52.18
-52.19
-50.96
-48.44
-44.67
-39.72
-33.76
-27.02
-19.76
-12.32
-5.04
1.79
7.86
12.97
17.00
19.86
21.60
22.33
22.22
21.45
20.26
18.83
17.35
15.98
14.83
13.94
13.35
13.02
12.89
12.91
12.98
13.03
12.97
12.75
12.36
11.80
11.11
10.36
9.63
8.99
8.51
8.24
8.18
8.31
8.53
8.78
8.93
8.89
8.60
7.99
7.09
5.96
4.71
3.48
2.44
1.69
1.36
1.48
2.01
2.87
3.88
4.85
5.56
5.82
5.48
4.46
2.79
0.55
-2.08
-4.85
-7.51
-9.78
-11.40
-12.20
-12.10
-11.04
-9.13
-6.52
-3.42
-0.11
3.13
6.08
8.48
10.16
11.06
11.15
10.46
9.10
7.18
4.88
2.37
-0.27
-2.88
-5.39
-7.77
-10.01
-12.07
-14.01
-15.77
-17.32
-18.60
-19.50
-19.88
-19.64
-18.70
-16.98
-14.59
-11.65
-8.42
-5.22
-2.38
-0.24
0.95
1.11
0.30
-1.25
-3.17
-5.01
-6.25
-6.42
-5.26
-2.62
1.43
6.64
12.61
18.86
24.90
30.30
34.79
38.19
40.48
41.78
42.24
42.08
41.48
40.55
39.35
37.90
36.16
34.08
31.63
28.81
25.64
22.21
18.62
14.96
11.33
7.80
4.40
1.14
-2.02
-5.11
-8.17
-11.23
-14.31
-17.40
-20.50
-23.57
-26.58
-29.47
-32.20
-34.71
-36.95
-38.84
-40.33
-41.32
-41.75
-41.53
-40.61
-38.95
-36.54
-33.44
-29.73
-25.53
-21.01
-16.37
-11.79
-7.50
-3.63
-0.31
2.37
4.41
5.84
6.72
7.14
7.21
6.99
6.58
6.01
5.28
4.39
3.29
1.99
0.48
-1.23
-3.06
-4.95
-6.70
-8.19
-9.23
-9.70
-9.50
-8.57
-6.93
-4.63
-1.82
1.36
4.71
8.13
11.50
14.73
17.79
20.66
23.35
25.83
28.07
29.93
31.32
32.10
32.12
31.27
29.50
26.86
23.44
19.44
15.10
10.68
6.46
2.64
-0.65
-3.32
-5.38
-6.91
-7.98
-8.74
-9.30
-9.75
-10.17
-10.54
-10.86
-11.10
-11.19
-11.07
-10.67
-9.96
-8.92
-7.62
-6.07
-4.39
-2.73
-1.21
0.02
0.84
1.20
1.09
0.57
-0.24
-1.19
-2.09
-2.75
-3.03
-2.85
-2.14
-0.94
0.71
2.71
4.95
7.32
9.74
12.17
14.52
16.78
18.92
20.92
22.75
24.41
25.82
26.98
27.83
28.32
28.42
28.09
27.33
26.13
24.54
22.62
20.49
18.28
16.14
14.23
12.63
11.46
10.71
10.33
10.21
10.18
10.04
9.59
8.69
7.20
5.10
2.41
-0.75
-4.26
-7.95
-11.63
-15.15
-18.37
-21.20
-23.55
-25.39
-26.70
-27.48
-27.75
-27.55
-26.92
-25.94
-24.72
-23.38
-22.03
-20.83
-19.92
-19.42
-19.43
-20.01
-21.16
-22.89
-25.10
-27.64
-30.30
-32.86
-35.06
-36.64
-37.39
-37.16
-35.89
-33.62
-30.53
-26.84
-22.86
-18.93
-15.32
-12.27
-9.92
-8.29
-7.29
-6.77
-6.54
-6.37
-6.10
-5.57
-4.71
-3.48
-1.91
-0.01
2.16
4.55
7.20
10.08
13.17
16.43
19.81
23.20
26.43
29.33
31.70
33.41
34.36
34.50
33.83
32.43
30.43
27.95
25.12
22.02
18.71
15.20
11.51
7.62
3.58
-0.52
-4.55
-8.30
-11.58
-14.20
-16.02
-16.99
-17.18
-16.74
-15.96
-15.14
-14.60
-14.61
-15.34
-16.75
-18.73
-20.96
-23.02
-24.47
-24.85
-23.81
-21.13
-16.76
-10.83
-3.67
4.29
12.53
20.50
27.67
33.64
38.10
40.88
41.95
41.35
39.28
35.93
31.57
26.45
20.85
15.06
9.38
4.09
-0.53
-4.17
-6.57
-7.53
-6.91
-4.67
-0.91
4.16
10.20
16.79
23.49
29.85
35.46
40.02
43.33
45.35
46.13
45.82
44.65
42.86
40.62
38.12
35.46
32.66
29.77
26.77
23.66
20.50
17.36
14.29
11.42
8.86
6.69
4.95
3.61
2.59
1.75
0.95
-0.01
-1.26
-2.93
-5.08
-7.73
-10.84
-14.35
-18.16
-22.17
-26.23
-30.21
-33.95
-37.31
-40.13
-42.30
-43.73
-44.41
-44.38
-43.70
-42.46
-40.80
-38.83
-36.66
-34.44
-32.27
-30.31
-28.67
-27.41
-26.47
-25.68
-24.80
-23.50
-21.50
-18.70
-15.14
-11.05
-6.74
-2.39
1.93
6.26
10.74
15.45
20.27
24.83
28.61
31.15
32.30
32.29
31.73
31.40
31.94
33.44
35.39
36.83
36.76
34.76
31.11
26.86
23.46
22.10
23.03
25.31
27.25
26.91
23.17
15.94
6.21
-4.37
-14.08
-21.73
-26.91
-30.03
-32.49
-36.02
-41.99
-50.81
-61.30
-70.09
-72.71
-65.77
-48.95
-26.91
-5.29
10.38
16.38
11.95
-0.51
-16.31
-30.16
-35.69
-28.85
-10.42
13.59
35.22
48.86
53.59
52.31
48.94
45.84
42.54
37.25
29.03
19.31
11.47
8.92
12.98
21.99
32.11
38.76
38.76
31.54
19.20
5.20
-7.08
-15.36
-18.74
-17.77
-14.19
-10.88
-11.57
-19.79
-37.34
-62.74
-90.37
-112.69
-123.00
-118.50
-101.31
-77.06
-51.91
-29.94
-12.22
2.21
14.34
24.18
30.71
32.97
31.13
26.77
22.20
19.69
20.29
23.42
27.56
30.92
32.20
31.35
29.39
27.94
28.53
31.98
37.95
45.30
52.24
57.02
58.39
56.14
50.51
42.21
32.36
21.82
11.34
0.99
-9.15
-19.21
-29.00
-38.05
-45.60
-50.65
-52.46
-50.67
-45.79
-38.70
-30.57
-22.35
-14.51
-6.86
1.02
9.12
16.77
22.40
23.94
19.58
8.16
-10.07
-34.38
-63.10
-93.35
-120.49
-138.55
-142.16
-128.50
-99.54
-61.62
-23.82
6.03
23.70
29.77
27.96
22.65
16.71
10.85
4.64
-2.18
-8.69
-13.12
-13.95
-10.90
-5.13
1.37
6.42
8.71
7.98
5.08
1.44
-1.45
-2.66
-1.92
0.41
3.74
7.45
11.17
14.89
18.85
23.52
29.12
35.54
42.15
47.94
51.84
53.22
52.08
49.09
45.60
42.85
41.58
41.98
43.95
47.31
51.56
55.31
55.89
50.13
35.74
13.12
-13.89
-38.96
-55.79
-60.85
-54.59
-40.88
-24.72
-9.94
2.01
11.64
20.12
27.87
34.38
38.84
41.05
41.78
42.39
44.24
47.80
52.45
56.65
58.62
57.02
51.54
42.88
32.42
21.70
11.31
1.69
-7.23
-15.83
-24.61
-34.01
-44.42
-56.16
-69.68
-85.48
-103.90
-125.01
-148.29
-172.41
-195.30
-214.53
-227.60
-232.55
-228.22
-214.32
-191.62
-161.75
-126.82
-89.20
-51.32
-15.46
16.40
42.74
62.72
76.10
83.29
85.24
83.23
78.69
73.01
67.38
62.66
59.41
57.78
57.66
58.75
60.64
62.97
65.45
67.95
70.43
73.02
75.84
79.01
82.58
86.47
90.51
94.41
97.84
100.50
102.14
102.57
101.72
99.63
96.42
92.26
87.36
81.89
76.06
70.01
63.83
57.58
51.30
45.01
38.73
32.49
26.32
20.29
14.43
8.83
3.58
-1.28
-5.70
-9.67
-13.16
-16.15
-18.67
-20.71
-22.23
-23.19
-23.54
-23.27
-22.44
-21.12
-19.45
-17.69
-16.07
-14.85
-14.26
-14.49
-15.61
-17.61
-20.34
-23.57
-27.02
-30.40
-33.46
-36.01
-37.98
-39.40
-40.37
-41.11
-41.78
-42.53
-43.45
-44.50
-45.51
-46.20
-46.16
-44.99
-42.32
-37.92
-31.68
-23.70
-14.32
-4.03
6.54
16.65
25.63
32.83
37.75
40.13
39.92
37.27
32.50
26.08
18.54
10.44
2.30
-5.45
-12.42
-18.35
-23.05
-26.44
-28.52
-29.35
-29.00
-27.62
-25.35
-22.36
-18.87
-15.09
-11.24
-7.50
-4.09
-1.15
1.20
2.89
3.94
4.34
4.17
3.56
2.66
1.63
0.67
-0.05
-0.34
-0.01
1.02
2.81
5.37
8.58
12.24
16.06
19.67
22.64
24.57
25.09
23.89
20.82
15.87
9.20
1.13
-7.89
-17.37
-26.78
-35.61
-43.45
-49.99
-55.06
-58.62
-60.78
-61.73
-61.78
-61.29
-60.59
-60.03
-59.87
-60.33
-61.47
-63.23
-65.42
-67.71
-69.64
-70.70
-70.34
-68.05
-63.47
-56.36
-46.68
-34.60
-20.56
-5.08
11.10
27.25
42.60
56.44
68.21
77.50
84.06
87.79
88.72
87.00
82.84
76.47
68.20
58.28
47.05
34.83
22.03
9.09
-3.47
-15.18
-25.55
-34.15
-40.68
-44.93
-46.88
-46.61
-44.31
-40.28
-34.87
-28.37
-21.11
-13.35
-5.32
2.75
10.67
18.26
25.28
31.55
36.85
41.09
44.20
46.25
47.32
47.60
47.34
46.82
46.30
46.01
46.13
46.75
47.98
49.83
52.24
55.17
58.47
61.99
65.49
68.67
71.15
72.57
72.53
70.70
66.87
60.95
53.07
43.55
32.82
21.46
10.12
-0.56
-10.04
-17.91
-23.93
-28.00
-30.17
-30.66
-29.72
-27.67
-24.77
-21.29
-17.41
-13.33
-9.17
-5.06
-1.08
2.66
6.07
9.09
11.65
13.73
15.31
16.38
17.01
17.18
16.90
16.13
14.83
12.95
10.51
7.54
4.12
0.46
-3.30
-6.97
-10.40
-13.47
-16.08
-18.19
-19.82
-21.04
-22.00
-22.90
-23.91
-25.16
-26.69
-28.43
-30.26
-32.00
-33.48
-34.49
-34.92
-34.68
-33.71
-32.13
-30.06
-27.72
-25.29
-23.00
-20.99
-19.42
-18.37
-17.86
-17.92
-18.45
-19.37
-20.56
-21.87
-23.16
-24.33
-25.25
-25.84
-26.06
-25.87
-25.25
-24.19
-22.71
-20.88
-18.87
-16.83
-14.95
-13.31
-11.96
-10.80
-9.68
-8.38
-6.76
-4.77
-2.47
-0.08
2.18
4.13
5.72
7.09
8.50
10.19
12.30
14.66
16.91
18.55
19.13
18.41
16.53
13.93
11.17
8.83
7.14
6.07
5.30
4.51
3.47
2.20
0.96
0.15
0.06
0.79
2.13
3.61
4.67
4.87
3.97
1.96
-1.05
-4.93
-9.53
-14.70
-20.12
-25.36
-29.86
-33.11
-34.73
-34.64
-33.08
-30.42
-27.12
-23.58
-20.07
-16.71
-13.61
-10.83
-8.53
-6.87
-6.01
-6.00
-6.77
-8.06
-9.51
-10.84
-11.86
-12.54
-12.99
-13.32
-13.62
-13.87
-13.97
-13.80
-13.33
-12.62
-11.82
-11.06
-10.39
-9.79
-9.16
-8.31
-7.12
-5.55
-3.63
-1.44
0.94
3.51
6.39
9.71
13.59
18.04
22.82
27.58
31.85
35.19
37.37
38.38
38.35
37.44
35.69
32.92
28.83
23.11
15.68
6.86
-2.69
-12.13
-20.58
-27.26
-31.49
-32.78
-31.01
-26.62
-20.67
-14.64
-9.90
-7.24
-6.47
-6.60
-6.34
-4.80
-1.83
2.02
5.89
9.21
11.87
14.19
16.56
19.08
21.39
22.82
22.73
20.76
17.22
12.82
8.40
4.65
1.82
-0.26
-1.90
-3.32
-4.51
-5.28
-5.48
-5.22
-4.82
-4.67
-4.90
-5.35
-5.62
-5.28
-4.04
-1.97
0.71
3.71
6.68
9.30
11.27
12.30
12.25
11.28
9.83
8.44
7.57
7.38
7.67
8.10
8.38
8.44
8.44
8.62
9.04
9.66
10.22
10.50
10.39
10.01
9.59
9.49
10.05
11.45
13.70
16.45
19.22
21.45
22.80
23.28
23.27
23.36
23.98
25.15
26.41
27.07
26.48
24.27
20.31
14.73
7.82
0.07
-7.58
-13.81
-17.15
-16.60
-12.15
-5.00
2.85
9.46
13.64
15.37
15.39
14.57
13.29
11.40
8.51
4.49
-0.17
-4.68
-8.32
-10.93
-12.97
-15.21
-18.22
-22.04
-26.26
-30.28
-33.71
-36.55
-39.13
-41.87
-44.98
-48.39
-51.71
-54.45
-56.14
-56.56
-55.69
-53.74
-51.02
-47.83
-44.41
-40.88
-37.33
-33.70
-29.97
-26.01
-21.73
-17.09
-12.05
-6.71
-1.24
4.10
9.08
13.55
17.50
21.01
24.20
27.14
29.76
31.87
33.16
33.37
32.35
30.09
26.67
22.25
17.00
11.19
5.32
-0.03
-4.29
-7.19
-8.84
-9.67
-10.08
-10.15
-9.59
-7.97
-5.13
-1.43
2.41
5.67
8.12
10.12
12.36
15.36
19.12
23.02
26.17
27.80
27.59
25.79
22.97
19.76
16.62
13.70
10.89
7.91
4.57
0.86
-2.85
-5.93
-7.76
-7.92
-6.37
-3.58
-0.29
2.73
4.96
6.24
6.83
7.22
7.80
8.82
10.15
11.53
12.66
13.45
13.92
14.22
14.33
13.99
12.87
10.70
7.57
4.07
0.93
-1.17
-2.02
-1.88
-1.31
-0.93
-1.16
-2.14
-3.75
-5.63
-7.22
-7.86
-7.14
-5.03
-2.05
0.95
3.14
4.06
3.55
1.81
-1.01
-4.72
-9.20
-13.97
-18.26
-21.15
-21.99
-20.91
-18.72
-16.62
-15.60
-15.91
-17.09
-18.25
-18.57
-17.79
-16.24
-14.59
-13.52
-13.37
-14.18
-15.70
-17.85
-20.60
-24.10
-28.57
-34.08
-40.58
-47.85
-55.53
-63.12
-70.11
-76.16
-80.97
-84.38
-86.20
-86.25
-84.64
-81.94
-78.97
-76.32
-73.62
-69.31
-61.36
-48.74
-32.78
-17.19
-6.76
-5.10
-12.90
-27.66
-44.67
-58.80
-65.60
-62.17
-47.25
-21.60
11.61
47.22
79.29
103.05
116.64
121.52
121.29
119.56
118.20
117.04
114.89
111.01
105.96
101.23
98.22
97.35
97.78
98.00
96.79
93.97
90.40
87.50
86.42
87.46
89.90
92.03
91.52
85.80
72.68
51.20
22.56
-9.54
-39.85
-63.60
-78.69
-86.86
-92.80
-101.76
-116.75
-137.20
-159.36
-178.60
-191.76
-198.12
-198.83
-195.21
-187.60
-175.22
-157.12
-133.35
-105.56
-76.79
-50.38
-28.83
-13.06
-2.31
5.35
12.11
19.69
28.90
39.70
51.55
63.81
76.09
88.25
100.22
111.75
122.24
130.85
136.69
139.27
138.56
135.07
129.73
123.62
117.60
112.12
107.20
102.51
97.64
92.22
85.94
78.71
70.60
61.78
52.42
42.78
33.13
23.77
14.98
6.96
-0.16
-6.36
-11.78
-16.62
-21.15
-25.58
-30.08
-34.75
-39.61
-44.56
-49.39
-53.84
-57.63
-60.51
-62.31
-62.96
-62.46
-60.92
-58.52
-55.45
-51.88
-47.99
-43.91
-39.83
-35.94
-32.40
-29.39
-27.05
-25.39
-24.39
-23.85
-23.52
-23.07
-22.09
-20.20
-17.11
-12.66
-6.84
0.21
8.17
16.63
25.11
33.20
40.54
46.89
52.11
56.20
59.26
61.38
62.68
63.26
63.18
62.48
61.18
59.27
56.79
53.79
50.36
46.58
42.60
38.55
34.58
30.86
27.53
24.74
22.61
21.24
20.70
20.98
22.00
23.57
25.43
27.21
28.48
28.80
27.77
25.08
20.55
14.16
6.10
-3.24
-13.37
-23.65
-33.45
-42.14
-49.21
-54.26
-57.12
-57.76
-56.33
-53.10
-48.47
-42.85
-36.71
-30.42
-24.33
-18.70
-13.72
-9.50
-6.07
-3.45
-1.58
-0.38
0.24
0.40
0.24
-0.12
-0.54
-0.90
-1.13
-1.16
-0.99
-0.63
-0.15
0.37
0.87
1.30
1.62
1.84
2.02
2.23
2.54
3.04
3.77
4.73
5.90
7.17
8.45
9.63
10.58
11.24
11.54
11.49
11.13
10.51
9.72
8.83
7.91
7.01
6.16
5.38
4.67
4.02
3.41
2.82
2.24
1.65
1.02
0.35
-0.35
-1.09
-1.84
-2.57
-3.23
-3.78
-4.16
-4.37
-4.36
-4.17
-3.83
-3.38
-2.89
-2.39
-1.95
-1.59
-1.31
-1.07
-0.85
-0.63
-0.38
-0.07
0.28
0.66
1.04
1.36
1.61
1.75
1.79
1.73
1.60
1.45
1.31
1.23
1.23
1.33
1.50
1.73
1.97
2.17
2.31
2.35
2.24
1.94
1.48
0.86
0.10
-0.74
-1.63
-2.49
-3.25
-3.87
-4.30
-4.52
-4.53
-4.35
-4.00
-3.56
-3.09
-2.64
-2.26
-1.97
-1.79
-1.72
-1.74
-1.84
-1.99
-2.17
-2.35
-2.50
-2.60
-2.62
-2.55
-2.36
-2.05
-1.64
-1.18
-0.69
-0.22
0.15
0.40
0.48
0.42
0.24
-0.02
-0.31
-0.52
-0.64
-0.60
-0.43
-0.11
0.29
0.73
1.14
1.47
1.67
1.71
1.56
1.25
0.78
0.19
-0.45
-1.11
-1.72
-2.26
-2.65
-2.89
-2.97
-2.92
-2.77
-2.57
-2.37
-2.23
-2.17
-2.20
-2.30
-2.41
-2.51
-2.52
-2.42
-2.18
-1.82
-1.39
-0.93
-0.53
-0.25
-0.11
-0.16
-0.35
-0.64
-0.96
-1.26
-1.44
-1.46
-1.30
-0.98
-0.54
-0.03
0.48
0.92
1.21
1.34
1.26
1.01
0.59
0.04
-0.59
-1.23
-1.85
-2.37
-2.77
-3.03
-3.13
-3.08
-2.88
-2.56
-2.14
-1.67
-1.16
-0.64
-0.16
0.28
0.64
0.88
1.02
1.03
0.92
0.68
0.34
-0.10
-0.60
-1.14
-1.71
-2.24
-2.74
-3.18
-3.54
-3.81
-4.01
-4.10
-4.11
-4.01
-3.78
-3.44
-2.98
-2.41
-1.76
-1.05
-0.33
0.37
0.98
1.51
1.90
2.15
2.28
2.27
2.14
1.93
1.67
1.36
1.04
0.71
0.40
0.14
-0.10
-0.26
-0.34
-0.34
-0.27
-0.13
0.04
0.22
0.37
0.43
0.41
0.28
0.04
-0.31
-0.75
-1.25
-1.77
-2.23
-2.59
-2.80
-2.81
-2.57
-2.11
-1.43
-0.61
0.27
1.14
1.89
2.44
2.77
2.84
2.64
2.24
1.69
1.04
0.37
-0.28
-0.86
-1.35
-1.77
-2.12
-2.40
-2.63
-2.80
-2.92
-2.99
-2.99
-2.95
-2.86
-2.70
-2.46
-2.14
-1.77
-1.40
-1.09
-0.83
-0.66
-0.59
-0.56
-0.55
-0.56
-0.55
-0.52
-0.45
-0.33
-0.18
-0.02
0.14
0.25
0.31
0.30
0.18
0.00
-0.23
-0.46
-0.66
-0.80
-0.88
-0.89
-0.82
-0.71
-0.60
-0.51
-0.46
-0.47
-0.50
-0.58
-0.65
-0.67
-0.60
-0.43
-0.12
0.29
0.79
1.32
1.83
2.25
2.55
2.68
2.64
2.44
2.11
1.72
1.31
0.94
0.64
0.44
0.35
0.35
0.39
0.44
0.43
0.34
0.13
-0.22
-0.67
-1.21
-1.76
-2.24
-2.62
-2.82
-2.79
-2.56
-2.14
-1.57
-0.97
-0.41
0.02
0.26
0.27
0.07
-0.32
-0.82
-1.32
-1.75
-2.00
-2.04
-1.84
-1.43
-0.85
-0.16
0.55
1.24
1.82
2.31
2.68
2.97
3.20
3.40
3.60
3.81
4.04
4.24
4.38
4.43
4.34
4.10
3.70
3.17
2.53
1.84
1.14
0.49
-0.06
-0.52
-0.86
-1.11
-1.28
-1.43
-1.57
-1.73
-1.91
-2.09
-2.27
-2.38
-2.42
-2.34
-2.17
-1.89
-1.53
-1.14
-0.76
-0.45
-0.22
-0.10
-0.08
-0.14
-0.25
-0.34
-0.37
-0.28
-0.06
0.34
0.91
1.61
2.42
3.28
4.11
4.85
5.44
5.83
6.01
5.94
5.66
5.24
4.70
4.14
3.59
3.10
2.70
2.38
2.08
1.78
1.44
1.00
0.44
-0.25
-1.06
-1.94
-2.86
-3.78
-4.65
-5.42
-6.08
-6.60
-6.99
-7.23
-7.33
-7.29
-7.13
-6.84
-6.46
-6.03
-5.54
-5.05
-4.59
-4.18
-3.84
-3.55
-3.29
-3.06
-2.80
-2.44
-1.94
-1.24
-0.31
0.87
2.31
3.92
5.60
7.21
8.58
9.51
9.83
9.41
8.18
6.16
3.42
0.13
-3.47
-7.15
-10.63
-13.69
-16.14
-17.90
-18.94
-19.29
-19.04
-18.31
-17.23
-15.91
-14.46
-12.94
-11.39
-9.86
-8.34
-6.85
-5.39
-3.97
-2.60
-1.29
-0.06
1.09
2.16
3.15
4.06
4.87
5.57
6.12
6.53
6.76
6.82
6.70
6.43
6.03
5.56
5.07
4.58
4.14
3.77
3.49
3.29
3.18
3.13
3.13
3.17
3.20
3.18
3.05
2.75
2.21
1.41
0.29
-1.11
-2.74
-4.50
-6.27
-7.87
-9.17
-10.05
-10.42
-10.26
-9.62
-8.57
-7.24
-5.78
-4.30
-2.93
-1.75
-0.80
-0.12
0.26
0.39
0.23
-0.19
-0.85
-1.79
-2.95
-4.27
-5.69
-7.09
-8.36
-9.39
-10.08
-10.32
-10.11
-9.45
-8.35
-6.92
-5.25
-3.44
-1.61
0.16
1.77
3.19
4.37
5.32
6.03
6.54
6.86
7.03
7.06
7.01
6.87
6.64
6.33
5.91
5.37
4.70
3.87
2.91
1.83
0.67
-0.52
-1.66
-2.68
-3.49
-3.99
-4.15
-3.90
-3.22
-2.16
-0.79
0.81
2.47
4.05
5.39
6.32
6.74
6.58
5.83
4.50
2.69
0.53
-1.83
-4.24
-6.62
-8.92
-11.15
-13.38
-15.77
-18.46
-21.60
-25.21
-29.22
-33.45
-37.54
-41.03
-43.35
-44.01
-42.58
-38.82
-32.75
-24.59
-14.85
-4.19
6.65
16.95
26.06
33.53
39.12
42.80
44.74
45.23
44.60
43.19
41.29
39.10
36.74
34.27
31.69
29.05
26.38
23.74
21.20
18.85
16.76
15.00
13.62
12.54
11.75
11.14
10.60
10.03
9.35
8.50
7.45
6.25
4.89
3.48
2.10
0.78
-0.38
-1.35
-2.08
-2.59
-2.88
-2.99
-2.97
-2.84
-2.68
-2.52
-2.37
-2.25
-2.17
-2.13
-2.11
-2.10
-2.07
-2.02
-1.90
-1.73
-1.51
-1.22
-0.86
-0.49
-0.09
0.28
0.59
0.84
0.98
0.99
0.90
0.72
0.45
0.14
-0.20
-0.54
-0.85
-1.12
-1.37
-1.59
-1.77
-1.93
-2.05
-2.15
-2.21
-2.23
-2.21
-2.16
-2.10
-2.06
-2.06
-2.10
-2.22
-2.42
-2.69
-3.01
-3.35
-3.68
-3.98
-4.22
-4.34
-4.36
-4.27
-4.06
-3.76
-3.41
-3.00
-2.59
-2.22
-1.87
-1.60
-1.42
-1.33
-1.35
-1.47
-1.66
-1.93
-2.24
-2.55
-2.83
-3.05
-3.14
-3.08
-2.86
-2.42
-1.80
-1.00
-0.05
0.97
2.01
3.02
3.94
4.72
5.35
5.78
6.03
6.09
5.98
5.70
5.28
4.71
4.00
3.20
2.28
1.27
0.19
-0.93
-2.04
-3.15
-4.22
-5.26
-6.21
-7.06
-7.78
-8.34
-8.72
-8.87
-8.81
-8.53
-8.09
-7.52
-6.95
-6.47
-6.16
-6.10
-6.34
-6.89
-7.70
-8.70
-9.76
-10.79
-11.68
-12.33
-12.72
-12.82
-12.68
-12.37
-12.02
-11.77
-11.76
-12.16
-13.05
-14.53
-16.59
-19.14
-22.02
-25.01
-27.81
-30.13
-31.70
-32.31
-31.88
-30.39
-27.97
-24.82
-21.20
-17.32
-13.39
-9.50
-5.64
-1.78
2.22
6.46
11.04
15.95
21.13
26.39
31.49
36.16
40.12
43.18
45.18
46.09
45.99
45.01
43.33
41.13
38.61
35.92
33.20
30.51
27.92
25.42
23.05
20.80
18.66
16.67
14.81
13.14
11.64
10.32
9.16
8.12
7.17
6.21
5.19
4.01
2.64
1.02
-0.84
-2.92
-5.17
-7.47
-9.73
-11.80
-13.63
-15.11
-16.19
-16.86
-17.12
-17.03
-16.62
-15.93
-15.02
-13.94
-12.73
-11.44
-10.11
-8.78
-7.51
-6.32
-5.21
-4.17
-3.20
-2.24
-1.25
-0.17
1.03
2.34
3.75
5.18
6.54
7.72
8.61
9.11
9.15
8.72
7.80
6.44
4.68
2.60
0.29
-2.17
-4.73
-7.27
-9.69
-11.91
-13.79
-15.19
-15.98
-16.04
-15.28
-13.73
-11.44
-8.52
-5.23
-1.81
1.47
4.32
6.54
7.97
8.57
8.36
7.46
6.05
4.31
2.47
0.66
-0.96
-2.32
-3.44
-4.36
-5.22
-6.17
-7.39
-9.08
-11.42
-14.47
-18.20
-22.47
-26.98
-31.30
-34.91
-37.27
-37.86
-36.31
-32.44
-26.32
-18.26
-8.78
1.41
11.57
20.96
28.95
35.11
39.23
41.34
41.64
40.50
38.32
35.57
32.62
29.80
27.33
25.30
23.78
22.73
22.06
21.65
21.33
20.95
20.36
19.43
18.03
16.14
13.71
10.77
7.44
3.84
0.15
-3.41
-6.62
-9.32
-11.33
-12.57
-13.01
-12.67
-11.62
-10.02
-8.01
-5.80
-3.57
-1.48
0.37
1.89
3.04
3.80
4.15
4.12
3.75
3.08
2.21
1.22
0.18
-0.84
-1.82
-2.70
-3.48
-4.15
-4.70
-5.10
-5.35
-5.40
-5.23
-4.79
-4.03
-2.91
-1.41
0.44
2.63
5.03
7.51
9.89
11.98
13.61
14.62
14.95
14.56
13.55
12.04
10.22
8.32
6.58
5.19
4.27
3.90
4.05
4.59
5.38
6.23
6.95
7.39
7.45
7.06
6.24
5.04
3.52
1.77
-0.11
-2.05
-4.01
-5.95
-7.83
-9.63
-11.31
-12.83
-14.14
-15.17
-15.87
-16.19
-16.13
-15.68
-14.87
-13.78
-12.51
-11.15
-9.83
-8.64
-7.65
-6.90
-6.41
-6.15
-6.07
-6.10
-6.15
-6.21
-6.25
-6.27
-6.30
-6.40
-6.62
-7.00
-7.55
-8.24
-9.05
-9.85
-10.55
-11.05
-11.22
-11.03
-10.43
-9.45
-8.11
-6.54
-4.85
-3.16
-1.61
-0.27
0.74
1.39
1.67
1.61
1.25
0.69
0.02
-0.67
-1.26
-1.69
-1.88
-1.82
-1.51
-0.99
-0.31
0.48
1.29
2.08
2.79
3.43
3.97
4.41
4.78
5.08
5.35
5.58
5.80
5.98
6.16
6.30
6.36
6.33
6.12
5.68
4.94
3.87
2.46
0.76
-1.13
-3.04
-4.72
-5.94
-6.44
-6.01
-4.54
-2.02
1.43
5.58
10.10
14.62
18.72
22.05
24.32
25.35
25.06
23.51
20.86
17.34
13.24
8.83
4.43
0.30
-3.32
-6.25
-8.40
-9.69
-10.16
-9.88
-8.99
-7.66
-6.03
-4.31
-2.62
-1.10
0.18
1.18
1.90
2.32
2.48
2.38
2.02
1.43
0.62
-0.42
-1.59
-2.82
-4.03
-5.11
-5.99
-6.63
-6.98
-7.08
-6.97
-6.71
-6.35
-5.94
-5.48
-4.93
-4.29
-3.44
-2.37
-1.04
0.51
2.25
4.07
5.88
7.57
9.04
10.27
11.20
11.84
12.20
12.32
12.22
11.93
11.47
10.83
10.03
9.07
7.96
6.71
5.33
3.83
2.21
0.46
-1.41
-3.38
-5.43
-7.50
-9.50
-11.36
-12.95
-14.20
-15.00
-15.34
-15.22
-14.67
-13.82
-12.78
-11.69
-10.67
-9.82
-9.22
-8.92
-8.93
-9.20
-9.70
-10.38
-11.18
-12.05
-12.91
-13.74
-14.47
-15.11
-15.58
-15.88
-15.98
-15.90
-15.65
-15.26
-14.79
-14.29
-13.82
-13.40
-13.05
-12.72
-12.34
-11.81
-10.99
-9.73
-7.92
-5.50
-2.43
1.23
5.36
9.79
14.29
18.62
22.60
26.05
28.86
31.01
32.53
33.51
34.11
34.45
34.72
35.03
35.53
36.32
37.46
38.95
40.74
42.74
44.75
46.55
47.83
48.27
47.52
45.35
41.49
35.86
28.53
19.69
9.73
-0.85
-11.46
-21.50
-30.37
-37.64
-43.02
-46.37
-47.77
-47.45
-45.75
-43.10
-39.96
-36.74
-33.72
-31.13
-29.03
-27.44
-26.32
-25.58
-25.13
-24.87
-24.70
-24.52
-24.24
-23.77
-23.05
-22.05
-20.73
-19.06
-17.07
-14.78
-12.29
-9.68
-7.05
-4.52
-2.20
-0.12
1.68
3.21
4.51
5.64
6.67
7.66
8.64
9.61
10.55
11.41
12.14
12.69
13.00
13.05
12.83
12.39
11.76
11.03
10.29
9.58
8.98
8.52
8.17
7.90
7.66
7.35
6.90
6.24
5.33
4.16
2.78
1.23
-0.37
-1.93
-3.33
-4.48
-5.31
-5.82
-6.00
-5.91
-5.62
-5.19
-4.74
-4.30
-3.90
-3.56
-3.26
-2.96
-2.60
-2.16
-1.58
-0.88
-0.08
0.77
1.60
2.34
2.88
3.19
3.21
2.94
2.42
1.68
0.83
-0.03
-0.81
-1.40
-1.75
-1.83
-1.63
-1.19
-0.60
0.04
0.62
1.06
1.29
1.24
0.92
0.34
-0.40
-1.25
-2.08
-2.80
-3.32
-3.58
-3.58
-3.33
-2.85
-2.21
-1.51
-0.80
-0.15
0.39
0.82
1.14
1.37
1.56
1.73
1.91
2.08
2.26
2.37
2.39
2.26
1.96
1.49
0.86
0.13
-0.64
-1.35
-1.93
-2.31
-2.45
-2.36
-2.04
-1.58
-1.01
-0.44
0.07
0.47
0.76
0.92
0.95
0.90
0.79
0.66
0.51
0.35
0.19
0.01
-0.17
-0.37
-0.59
-0.81
-1.00
-1.15
-1.24
-1.27
-1.22
-1.12
-0.97
-0.80
-0.65
-0.51
-0.40
-0.33
-0.29
-0.28
-0.28
-0.30
-0.34
-0.40
-0.48
-0.59
-0.73
-0.91
-1.13
-1.35
-1.59
-1.81
-1.98
-2.11
-2.17
-2.14
-2.02
-1.83
-1.55
-1.21
-0.83
-0.42
-0.01
0.36
0.67
0.90
1.04
1.11
1.11
1.05
0.97
0.89
0.86
0.88
0.96
1.08
1.25
1.44
1.64
1.82
1.93
1.97
1.94
1.81
1.61
1.35
1.04
0.71
0.40
0.12
-0.11
-0.29
-0.42
-0.50
-0.54
-0.57
-0.60
-0.67
-0.79
-0.96
-1.20
-1.49
-1.82
-2.17
-2.51
-2.81
-3.04
-3.17
-3.17
-3.02
-2.73
-2.29
-1.72
-1.05
-0.32
0.44
1.18
1.88
2.48
2.95
3.24
3.34
3.24
2.95
2.50
1.92
1.26
0.57
-0.11
-0.75
-1.34
-1.84
-2.26
-2.56
-2.78
-2.89
-2.91
-2.84
-2.66
-2.42
-2.12
-1.82
-1.56
-1.39
-1.31
-1.29
-1.30
-1.26
-1.15
-0.92
-0.60
-0.17
0.32
0.86
1.42
1.94
2.38
2.70
2.86
2.84
2.66
2.34
1.93
1.46
0.99
0.56
0.18
-0.13
-0.38
-0.56
-0.71
-0.83
-0.95
-1.14
-1.39
-1.71
-2.07
-2.43
-2.72
-2.90
-2.95
-2.89
-2.74
-2.50
-2.18
-1.82
-1.44
-1.10
-0.84
-0.71
-0.69
-0.78
-0.88
-0.92
-0.90
-0.77
-0.55
-0.26
0.12
0.59
1.15
1.79
2.51
3.21
3.88
4.44
4.83
5.03
5.00
4.71
4.19
3.49
2.68
1.87
1.15
0.54
0.07
-0.31
-0.62
-0.90
-1.17
-1.42
-1.64
-1.84
-2.03
-2.17
-2.29
-2.35
-2.32
-2.21
-1.99
-1.63
-1.16
-0.60
0.03
0.67
1.25
1.75
2.14
2.44
2.64
2.78
2.86
2.91
2.95
3.00
3.12
3.35
3.70
4.18
4.74
5.37
5.95
6.43
6.75
6.94
7.01
7.05
7.13
7.32
7.66
8.15
8.75
9.43
10.12
10.70
11.11
11.19
10.84
9.94
8.48
6.43
3.86
0.82
-2.57
-6.12
-9.61
-12.76
-15.34
-17.10
-18.00
-18.06
-17.39
-16.19
-14.67
-13.01
-11.41
-10.05
-9.06
-8.54
-8.50
-8.87
-9.50
-10.24
-10.92
-11.43
-11.67
-11.63
-11.27
-10.62
-9.72
-8.62
-7.38
-6.06
-4.75
-3.48
-2.38
-1.50
-0.92
-0.69
-0.78
-1.12
-1.59
-2.10
-2.57
-2.93
-3.16
-3.20
-3.04
-2.69
-2.17
-1.56
-0.95
-0.41
0.05
0.46
0.89
1.39
2.01
2.76
3.64
4.63
5.66
6.65
7.49
8.08
8.34
8.27
7.89
7.27
6.59
5.92
5.34
4.89
4.57
4.34
4.16
3.97
3.74
3.45
3.09
2.70
2.29
1.90
1.58
1.31
1.10
0.95
0.84
0.78
0.76
0.78
0.79
0.78
0.73
0.63
0.46
0.22
-0.11
-0.51
-0.98
-1.54
-2.13
-2.69
-3.16
-3.45
-3.54
-3.44
-3.15
-2.73
-2.23
-1.68
-1.14
-0.63
-0.20
0.14
0.40
0.61
0.79
0.96
1.11
1.24
1.33
1.38
1.40
1.39
1.34
1.27
1.17
1.04
0.88
0.69
0.48
0.27
0.06
-0.14
-0.32
-0.47
-0.59
-0.67
-0.72
-0.74
-0.71
-0.63
-0.51
-0.36
-0.17
0.04
0.24
0.40
0.50
0.53
0.46
0.32
0.10
-0.15
-0.42
-0.66
-0.84
-0.89
-0.76
-0.47
-0.00
0.57
1.22
1.85
2.46
2.97
3.32
3.49
3.39
3.03
2.47
1.78
1.03
0.32
-0.32
-0.89
-1.36
-1.76
-2.09
-2.34
-2.50
-2.60
-2.63
-2.61
-2.54
-2.38
-2.15
-1.79
-1.31
-0.68
0.06
0.91
1.79
2.63
3.36
3.90
4.25
4.38
4.28
3.95
3.43
2.75
1.97
1.21
0.54
0.08
-0.13
-0.07
0.19
0.61
1.08
1.52
1.84
1.97
1.85
1.53
1.01
0.34
-0.35
-1.00
-1.51
-1.80
-1.86
-1.71
-1.35
-0.88
-0.37
0.11
0.49
0.74
0.85
0.82
0.69
0.51
0.31
0.15
0.05
0.03
0.09
0.23
0.44
0.70
1.00
1.32
1.65
1.97
2.22
2.37
2.44
2.36
2.11
1.72
1.19
0.57
-0.06
-0.67
-1.19
-1.55
-1.75
-1.80
-1.71
-1.51
-1.23
-0.90
-0.54
-0.19
0.10
0.31
0.38
0.31
0.11
-0.21
-0.61
-1.04
-1.43
-1.73
-1.89
-1.88
-1.75
-1.53
-1.29
-1.05
-0.85
-0.69
-0.55
-0.41
-0.25
-0.06
0.13
0.33
0.58
0.91
1.40
2.06
2.90
3.87
4.82
5.56
5.98
6.07
5.93
5.71
5.56
5.61
5.85
6.18
6.45
6.58
6.64
6.87
7.52
8.85
10.94
13.65
16.54
19.06
20.85
21.92
22.61
23.56
25.36
28.36
32.52
36.99
40.67
42.79
43.28
42.88
42.93
44.75
49.08
56.13
64.70
73.28
80.72
86.96
92.91
100.20
110.30
124.22
142.34
162.52
181.12
193.27
194.06
179.80
149.31
104.02
47.85
-14.12
-79.00
-145.72
-214.73
-286.53
-360.33
-433.66
-503.31
-566.34
-609.44
-621.29
-594.72
-530.54
-438.17
-331.49
-223.37
-122.63
-33.91
41.26
101.08
144.72
172.37
186.03
189.49
187.42
184.15
182.62
184.35
188.22
192.31
194.61
194.18
191.43
187.79
184.69
183.02
182.85
183.09
181.91
177.54
169.14
157.13
142.86
128.11
114.45
103.11
94.38
88.17
83.82
80.62
78.16
76.54
76.13
77.23
80.07
84.40
89.91
95.67
100.14
102.12
101.18
97.72
92.22
84.88
74.80
64.31
53.77
41.27
25.17
5.15
-17.58
-40.87
-62.85
-82.45
-99.34
-114.02
-130.41
-151.47
-178.18
-208.79
-240.30
-269.97
-296.66
-320.23
-341.67
-366.24
-398.05
-438.09
-483.77
-530.15
-572.41
-607.27
-632.71
-621.55
-557.82
-441.61
-291.13
-132.59
13.18
136.09
234.19
310.36
368.76
409.44
432.71
440.73
437.30
427.65
417.06
407.26
398.19
389.16
376.10
356.18
329.14
296.96
263.60
232.87
207.05
187.13
173.04
161.71
149.65
138.93
131.09
127.71
129.80
137.11
148.57
162.74
176.96
189.15
198.18
203.44
205.17
203.92
200.05
194.03
186.35
177.03
166.42
155.19
143.37
131.44
120.16
110.29
102.44
96.94
93.70
92.59
93.44
95.24
97.25
99.11
100.66
101.84
102.59
102.78
102.52
102.19
101.13
99.29
97.08
95.14
93.67
92.01
88.94
83.01
72.89
54.50
25.47
-14.40
-63.44
-119.86
-182.50
-250.34
-321.86
-394.43
-470.61
-549.73
-627.32
-696.50
-751.90
-791.61
-816.64
-829.22
-831.93
-836.73
-851.18
-875.85
-905.39
-933.40
-956.06
-972.26
-982.65
-988.41
-1002.43
-1029.65
-1062.94
-1086.33
-1085.01
-1053.17
-995.12
-922.19
-769.06
-518.44
-201.83
118.28
389.96
592.50
729.04
812.79
858.73
880.36
875.97
846.54
799.37
746.34
697.32
656.49
623.68
597.15
575.47
548.35
510.35
463.22
413.92
369.02
331.35
300.50
275.01
253.65
229.64
199.45
164.43
129.39
99.05
75.85
59.98
49.92
45.34
42.69
39.64
35.93
32.86
31.62
32.40
34.43
36.93
39.33
40.05
38.23
33.95
27.99
21.15
13.79
5.80
-2.72
-11.67
-21.03
-30.65
-40.36
-49.88
-58.91
-67.18
-74.58
-80.67
-85.21
-88.19
-89.63
-89.66
-88.26
-85.18
-79.78
-74.39
-69.88
-66.78
-65.45
-66.03
-68.64
-73.34
-80.09
-88.85
-99.62
-111.84
-124.91
-138.12
-150.61
-161.38
-169.38
-173.58
-173.07
-167.19
-155.29
-137.26
-113.53
-85.08
-53.30
-19.91
13.16
44.02
70.94
92.87
109.36
120.53
126.82
128.87
127.39
123.05
116.55
108.50
99.53
90.16
80.72
71.17
61.09
49.74
36.29
20.07
0.83
-21.19
-44.71
-68.11
-89.81
-108.61
-123.91
-135.64
-143.96
-149.12
-151.23
-148.56
-139.50
-123.22
-100.23
-72.46
-42.56
-13.00
14.57
39.72
66.66
99.92
142.78
195.74
256.12
319.41
381.02
437.75
488.24
538.41
594.60
660.97
736.96
816.95
892.38
955.14
999.82
1024.68
1038.72
1052.51
1074.98
1110.47
1158.37
1215.42
1278.04
1342.71
1358.62
1286.54
1104.87
823.08
480.40
128.29
-189.79
-449.39
-645.23
-785.28
-875.87
-923.56
-934.11
-914.48
-874.37
-825.29
-777.79
-739.09
-712.26
-691.05
-667.50
-635.06
-591.67
-540.62
-488.38
-441.30
-403.38
-375.67
-353.24
-330.26
-302.01
-266.70
-226.20
-184.80
-146.88
-115.50
-91.97
-74.18
-60.03
-47.52
-35.79
-25.29
-17.12
-11.97
-9.42
-7.96
-4.97
2.00
14.43
32.62
55.59
81.39
107.68
132.07
152.81
168.88
179.94
185.32
185.28
180.80
173.50
165.30
157.68
151.89
149.09
149.99
153.42
158.26
163.46
168.37
172.36
174.53
173.73
167.97
161.87
155.78
149.14
141.19
131.50
120.10
106.93
92.22
76.42
60.07
41.03
17.50
-11.64
-46.42
-85.38
-128.09
-174.04
-221.95
-270.23
-320.61
-373.67
-428.64
-483.55
-534.66
-582.16
-627.02
-669.34
-707.81
-744.58
-779.55
-810.28
-833.19
-843.07
-841.83
-834.10
-824.10
-814.32
-810.46
-813.85
-820.98
-824.76
-814.38
-787.75
-746.76
-694.51
-597.35
-442.29
-239.39
-19.67
159.72
293.99
391.46
462.14
516.40
558.27
584.15
591.75
582.55
562.27
541.82
525.12
513.08
505.70
502.48
498.57
490.29
476.58
459.54
445.13
433.78
424.08
414.81
405.55
394.13
379.60
362.56
345.70
333.20
324.54
317.03
307.84
295.29
277.51
254.06
225.86
196.52
170.44
149.33
133.30
121.95
115.89
115.42
120.61
130.87
146.64
167.26
189.71
209.55
222.31
225.76
218.87
201.41
164.44
107.06
36.43
-35.28
-96.52
-147.87
-191.83
-230.97
-263.64
-288.52
-303.22
-306.81
-300.30
-286.14
-267.37
-245.42
-221.22
-195.60
-169.84
-143.94
-118.33
-94.00
-72.29
-54.15
-38.85
-25.16
-11.86
1.65
16.23
32.07
48.50
64.22
77.96
89.49
99.00
106.89
113.37
118.78
123.07
125.75
125.88
122.61
115.75
105.65
92.97
78.34
62.25
44.59
24.60
1.37
-25.24
-53.81
-81.63
-105.56
-123.36
-134.79
-141.64
-146.65
-151.95
-158.00
-164.12
-169.47
-173.89
-177.90
-181.96
-185.77
-188.48
-189.95
-191.54
-195.84
-205.24
-219.91
-236.82
-250.21
-253.52
-241.97
-214.71
-175.23
-130.15
-87.05
-52.05
-28.15
-14.43
-6.80
0.05
10.42
26.49
48.29
74.78
104.87
137.57
171.55
204.42
232.95
254.00
265.95
269.29
266.12
259.25
250.82
241.49
230.51
216.21
196.93
172.04
142.48
110.69
80.15
54.05
34.59
22.15
14.93
9.47
1.51
-12.15
-32.15
-55.98
-79.59
-98.56
-110.19
-114.76
-115.28
-116.25
-121.15
-130.83
-143.43
-156.61
-168.19
-176.92
-182.48
-184.82
-183.92
-179.70
-172.33
-162.77
-154.09
-149.15
-149.15
-152.95
-157.36
-158.82
-154.77
-144.82
-123.67
-92.27
-56.68
-25.42
-5.15
2.27
-1.37
-12.55
-27.84
-44.53
-61.84
-79.05
-94.90
-109.44
-120.83
-127.91
-130.66
-129.80
-126.10
-121.18
-116.07
-110.94
-105.37
-98.22
-88.88
-76.97
-63.81
-50.42
-38.04
-27.26
-17.94
-9.57
-0.62
9.73
21.53
34.14
46.83
58.62
68.99
77.96
85.90
95.01
106.91
122.17
140.20
159.78
179.40
197.91
214.83
230.17
246.90
267.42
292.85
322.54
354.59
386.83
417.45
445.55
470.90
497.01
526.79
561.43
599.67
638.39
673.86
702.86
723.25
713.09
659.31
558.79
420.62
262.21
102.15
-45.62
-173.90
-280.76
-367.42
-433.27
-478.72
-505.53
-517.35
-518.89
-514.74
-508.95
-503.88
-500.68
-497.18
-491.66
-482.89
-471.29
-458.39
-445.81
-435.56
-428.40
-424.38
-421.51
-417.97
-412.53
-405.14
-396.22
-385.95
-375.12
-363.32
-349.58
-331.70
-307.45
-274.62
-233.70
-188.48
-136.49
-80.34
-22.19
35.55
90.73
141.27
185.26
220.95
247.30
264.22
271.16
268.59
257.42
238.90
214.61
186.45
156.43
126.76
99.70
76.14
56.71
41.45
30.07
22.21
17.73
16.68
19.40
26.35
37.10
50.91
66.77
83.57
100.54
117.43
134.40
152.00
171.02
192.04
215.58
241.53
268.57
293.81
313.10
322.14
318.09
300.85
273.14
239.64
205.27
173.70
146.65
124.28
106.00
91.32
80.11
72.26
67.31
64.25
61.79
58.90
55.20
51.00
47.04
44.02
42.21
41.35
40.73
39.53
37.17
33.55
29.00
24.14
19.57
15.61
12.27
9.24
6.20
2.92
-0.58
-4.07
-7.21
-9.71
-11.47
-12.59
-13.30
-13.89
-14.51
-15.25
-16.01
-16.65
-17.03
-17.09
-16.83
-16.34
-15.74
-15.14
-14.63
-14.25
-14.03
-13.98
-14.10
-14.34
-14.69
-15.10
-15.52
-15.91
-16.24
-16.51
-16.74
-16.94
-17.13
-17.35
-17.62
-17.91
-18.20
-18.45
-18.62
-18.65
-18.51
-18.17
-17.66
-17.00
-16.24
-15.43
-14.62
-13.89
-13.25
-12.73
-12.33
-12.04
-11.85
-11.71
-11.63
-11.58
-11.58
-11.62
-11.72
-11.87
-12.07
-12.31
-12.56
-12.80
-12.98
-13.08
-13.05
-12.89
-12.59
-12.18
-11.70
-11.18
-10.70
-10.29
-9.99
-9.81
-9.76
-9.80
-9.90
-10.01
-10.07
-10.06
-9.96
-9.74
-9.40
-8.97
-8.47
-7.93
-7.41
-6.91
-6.49
-6.19
-6.01
-5.98
-6.10
-6.35
-6.71
-7.15
-7.62
-8.08
-8.48
-8.80
-9.00
-9.10
-9.10
-9.02
-8.89
-8.72
-8.54
-8.36
-8.20
-8.05
-7.91
-7.79
-7.68
-7.58
-7.51
-7.45
-7.43
-7.44
-7.46
-7.49
-7.50
-7.47
-7.38
-7.21
-6.94
-6.58
-6.12
-5.60
-5.03
-4.45
-3.89
-3.39
-2.98
-2.68
-2.50
-2.43
-2.47
-2.60
-2.78
-2.98
-3.20
-3.40
-3.55
-3.64
-3.66
-3.60
-3.48
-3.28
-3.02
-2.71
-2.38
-2.04
-1.74
-1.50
-1.34
-1.29
-1.34
-1.48
-1.69
-1.94
-2.17
-2.34
-2.44
-2.43
-2.33
-2.18
-2.01
-1.87
-1.81
-1.87
-2.05
-2.34
-2.69
-3.05
-3.36
-3.55
-3.60
-3.47
-3.18
-2.75
-2.21
-1.62
-1.03
-0.47
0.04
0.45
0.78
1.01
1.16
1.23
1.21
1.09
0.88
0.58
0.19
-0.28
-0.81
-1.39
-1.99
-2.57
-3.09
-3.54
-3.86
-4.06
-4.09
-3.97
-3.70
-3.32
-2.85
-2.35
-1.88
-1.47
-1.18
-1.01
-0.99
-1.09
-1.29
-1.53
-1.76
-1.93
-2.01
-1.98
-1.80
-1.52
-1.16
-0.74
-0.32
0.08
0.43
0.73
0.95
1.11
1.20
1.25
1.25
1.17
1.01
0.72
0.32
-0.23
-0.91
-1.69
-2.52
-3.35
-4.12
-4.76
-5.21
-5.45
-5.47
-5.27
-4.89
-4.37
-3.77
-3.15
-2.54
-2.00
-1.58
-1.31
-1.21
-1.31
-1.60
-2.09
-2.76
-3.55
-4.43
-5.34
-6.22
-7.00
-7.64
-8.08
-8.32
-8.34
-8.14
-7.73
-7.13
-6.38
-5.51
-4.54
-3.53
-2.52
-1.57
-0.71
0.03
0.63
1.10
1.46
1.74
1.96
2.18
2.39
2.61
2.81
2.97
3.05
3.02
2.87
2.59
2.21
1.79
1.33
0.91
0.55
0.28
0.09
-0.01
-0.04
-0.03
0.02
0.06
0.12
0.17
0.21
0.23
0.24
0.21
0.15
0.04
-0.12
-0.31
-0.51
-0.72
-0.89
-1.02
-1.09
-1.09
-1.00
-0.84
-0.60
-0.31
0.03
0.41
0.79
1.16
1.48
1.74
1.87
1.87
1.71
1.39
0.94
0.38
-0.21
-0.77
-1.26
-1.62
-1.82
-1.83
-1.68
-1.37
-0.95
-0.48
0.00
0.44
0.81
1.08
1.28
1.40
1.45
1.47
1.45
1.42
1.37
1.31
1.20
1.05
0.86
0.60
0.30
-0.00
-0.28
-0.48
-0.57
-0.54
-0.37
-0.06
0.34
0.78
1.21
1.60
1.91
2.09
2.15
2.10
1.97
1.76
1.51
1.23
0.94
0.66
0.37
0.08
-0.23
-0.56
-0.90
-1.27
-1.69
-2.13
-2.61
-3.11
-3.62
-4.14
-4.63
-5.06
-5.39
-5.62
-5.72
-5.68
-5.48
-5.14
-4.69
-4.17
-3.59
-3.02
-2.48
-2.02
-1.68
-1.46
-1.36
-1.38
-1.49
-1.64
-1.80
-1.94
-2.01
-2.02
-1.94
-1.78
-1.56
-1.31
-1.07
-0.85
-0.67
-0.56
-0.53
-0.58
-0.68
-0.83
-1.01
-1.17
-1.29
-1.33
-1.25
-1.04
-0.68
-0.21
0.36
0.96
1.54
2.02
2.34
2.46
2.36
2.08
1.62
1.04
0.43
-0.16
-0.68
-1.09
-1.36
-1.51
-1.55
-1.51
-1.42
-1.30
-1.19
-1.09
-1.00
-0.93
-0.87
-0.80
-0.72
-0.60
-0.43
-0.21
0.06
0.36
0.69
1.02
1.31
1.54
1.65
1.62
1.43
1.10
0.66
0.21
-0.18
-0.43
-0.53
-0.49
-0.36
-0.22
-0.13
-0.12
-0.19
-0.33
-0.49
-0.66
-0.81
-0.97
-1.12
-1.26
-1.34
-1.29
-1.04
-0.58
0.05
0.67
1.14
1.33
1.21
0.88
0.58
0.54
0.98
1.92
3.19
4.55
5.73
6.62
7.32
8.15
9.44
11.41
14.00
16.89
19.63
21.87
23.58
25.08
27.02
30.01
34.46
40.50
47.99
56.76
66.67
77.25
87.53
95.97
101.07
102.26
100.53
98.23
98.00
101.10
106.30
110.22
108.93
99.99
83.57
62.15
39.23
17.85
-0.31
-14.90
-26.37
-35.48
-43.19
-50.86
-60.29
-73.17
-90.29
-110.91
-132.78
-152.56
-166.60
-171.46
-165.10
-148.54
-126.53
-105.87
-91.86
-85.38
-82.82
-78.86
-70.19
-57.67
-45.34
-37.47
-35.46
-36.72
-36.45
-30.69
-18.65
-2.78
12.94
25.56
34.40
40.58
45.74
50.75
55.22
58.01
59.00
57.35
53.24
47.56
41.36
35.52
30.50
26.10
21.58
15.91
7.98
-2.52
-15.02
-28.02
-39.59
-47.89
-51.93
-51.79
-48.42
-43.09
-36.71
-29.70
-22.12
-14.06
-5.76
2.30
9.80
16.54
22.77
29.09
35.86
42.89
49.46
54.84
58.73
61.44
63.67
65.92
68.20
69.93
70.46
69.50
67.33
64.40
60.67
55.53
48.20
38.71
28.57
20.57
17.41
20.13
27.16
34.60
38.06
34.60
23.71
7.12
-12.69
-33.97
-56.13
-78.88
-100.98
-119.64
-131.23
-133.23
-125.91
-112.67
-98.76
-89.29
-87.50
-94.45
-109.21
-129.38
-151.19
-169.63
-179.50
-177.46
-163.50
-141.46
-117.72
-98.53
-87.29
-83.34
-82.34
-78.40
-66.51
-43.96
-11.13
29.02
72.07
113.62
150.46
181.48
207.35
229.19
247.26
260.49
267.04
265.97
258.46
247.63
237.50
231.23
229.72
231.30
232.30
228.36
216.31
195.22
166.86
135.04
104.32
78.11
57.77
42.48
30.01
17.65
2.77
-16.58
-41.11
-69.80
-99.82
-127.12
-147.88
-160.17
-164.68
-164.41
-162.98
-162.74
-163.93
-165.15
-164.67
-161.62
-156.43
-150.04
-143.00
-135.04
-125.30
-113.27
-99.42
-85.21
-72.51
-62.96
-57.09
-54.14
-52.54
-50.49
-46.77
-41.05
-33.96
-26.70
-20.43
-15.76
-12.60
-10.29
-7.91
-4.80
-0.68
4.26
9.46
14.39
18.58
21.90
24.43
26.41
27.94
29.06
29.54
29.14
27.83
25.41
21.94
17.74
13.25
8.82
4.89
1.39
-1.88
-4.90
-8.24
-12.33
-17.23
-22.76
-28.75
-34.43
-39.80
-44.99
-49.77
-54.94
-61.23
-68.98
-78.25
-89.06
-100.28
-111.89
-123.83
-135.51
-147.67
-160.91
-174.92
-188.35
-199.15
-203.89
-201.79
-194.26
-173.15
-135.35
-82.44
-19.65
46.36
100.98
143.39
175.08
196.73
208.34
212.21
210.86
208.49
209.33
215.10
225.13
234.27
236.41
227.41
205.56
172.39
131.96
89.35
49.50
17.75
-2.55
-10.00
-5.79
6.13
20.12
30.85
34.80
30.87
20.78
7.12
-7.92
-23.55
-39.58
-56.11
-72.76
-88.57
-102.36
-112.69
-118.26
-119.32
-117.85
-115.55
-113.55
-112.16
-111.36
-111.88
-115.16
-122.35
-125.08
-115.54
-86.49
-34.91
36.14
118.69
202.96
275.40
334.36
380.70
414.35
435.26
443.13
437.87
421.09
395.14
363.23
329.67
297.31
266.89
238.46
211.67
186.18
162.21
140.29
121.24
106.34
95.61
87.78
81.35
75.00
67.86
59.74
51.05
42.57
35.46
30.08
26.07
22.79
19.71
16.38
12.78
9.05
5.55
2.79
0.93
-0.24
-0.96
-1.53
-2.10
-2.79
-3.53
-4.25
-4.79
-5.61
-7.13
-9.53
-12.59
-15.87
-18.53
-20.47
-21.74
-22.55
-23.51
-25.20
-27.81
-31.16
-34.72
-37.61
-39.58
-40.73
-41.23
-42.45
-45.53
-50.92
-58.00
-65.59
-71.55
-75.54
-77.69
-78.66
-82.02
-91.05
-106.78
-127.71
-150.33
-168.89
-181.95
-189.84
-193.57
-200.50
-217.06
-245.34
-282.16
-320.38
-348.56
-364.38
-369.78
-368.40
-374.40
-400.69
-453.07
-528.66
-617.64
-702.77
-780.39
-853.00
-924.53
-1011.74
-1128.40
-1277.72
-1450.48
-1627.83
-1781.18
-1900.28
-1984.01
-1950.71
-1749.33
-1375.97
-884.85
-364.95
51.86
358.14
576.44
732.42
846.80
930.26
979.65
999.27
991.16
960.16
921.46
879.13
835.90
795.58
751.24
694.07
620.67
534.78
447.62
376.23
326.16
295.95
281.09
269.99
251.73
221.53
180.99
137.57
104.01
84.87
80.06
85.99
95.44
101.50
100.62
92.54
80.18
69.24
61.43
55.93
50.90
43.54
31.48
14.07
-7.84
-32.02
-54.95
-74.61
-90.11
-101.32
-108.29
-111.32
-110.44
-105.74
-97.06
-84.26
-67.23
-46.03
-20.87
8.00
40.16
74.97
111.62
149.16
186.42
222.09
254.83
283.27
306.13
322.49
331.77
333.86
329.07
318.06
301.66
280.85
256.59
229.69
200.74
170.11
137.98
104.56
70.24
35.58
1.33
-31.68
-62.65
-90.80
-115.55
-136.48
-153.15
-165.12
-171.84
-172.84
-167.96
-157.50
-142.30
-123.71
-103.26
-82.18
-61.26
-40.77
-20.57
-0.49
19.41
38.72
56.82
73.12
87.41
100.07
111.91
124.05
137.70
153.98
173.77
197.13
222.75
247.58
267.18
276.93
273.71
257.19
230.14
197.41
164.23
134.60
110.49
92.14
78.88
69.96
64.78
62.67
62.50
62.59
61.15
56.94
49.64
39.91
29.10
18.67
9.71
2.73
-2.36
-5.91
-8.27
-9.57
-9.64
-8.19
-5.09
-0.52
4.90
10.36
15.08
18.52
20.47
21.10
20.82
20.10
19.33
18.71
18.31
18.18
18.34
18.93
20.11
22.10
25.01
28.86
33.53
38.79
44.37
49.95
55.18
59.72
63.25
65.50
66.25
65.38
62.83
58.74
53.37
47.10
40.31
33.36
26.52
20.03
14.04
8.50
3.31
-1.67
-6.52
-11.22
-15.71
-19.88
-23.52
-26.38
-28.15
-28.64
-27.82
-25.78
-22.71
-18.90
-14.73
-10.58
-6.80
-3.63
-1.21
0.45
1.49
2.18
2.85
3.86
5.55
8.15
11.81
16.52
22.12
28.30
34.66
40.72
46.04
50.19
52.81
53.71
52.88
50.50
46.84
42.20
36.93
31.43
26.04
21.03
16.64
12.95
10.04
7.93
6.57
5.86
5.70
5.93
6.39
6.93
7.27
7.22
6.62
5.39
3.51
1.00
-2.01
-5.32
-8.69
-11.94
-14.86
-17.26
-19.02
-20.09
-20.50
-20.31
-19.60
-18.46
-17.00
-15.26
-13.26
-11.02
-8.52
-5.74
-2.66
0.73
4.47
8.56
13.01
17.88
23.16
28.75
34.43
39.84
44.59
48.43
51.23
53.02
54.09
54.76
55.33
55.98
56.80
57.79
59.08
60.74
62.91
66.01
70.33
75.88
82.30
88.94
95.08
100.22
104.14
106.93
109.74
113.57
118.76
124.67
130.02
133.39
133.88
131.27
126.01
120.89
118.43
120.00
125.06
131.49
136.84
139.48
138.98
135.91
134.43
138.08
148.50
164.36
182.07
197.65
208.50
213.93
214.81
216.95
225.93
245.50
276.13
315.06
357.76
399.26
434.89
435.33
381.28
268.11
111.29
-59.82
-216.53
-341.64
-431.24
-490.17
-526.50
-543.33
-542.04
-523.98
-492.39
-453.08
-412.47
-375.82
-346.11
-325.21
-310.62
-299.34
-289.26
-280.10
-274.11
-274.11
-281.49
-295.68
-314.90
-334.97
-352.22
-364.82
-372.82
-377.73
-379.65
-375.90
-362.15
-334.84
-292.97
-240.32
-186.13
-136.70
-97.08
-68.95
-50.43
-38.09
-28.60
-19.70
-10.33
-0.00
11.96
25.52
40.18
54.78
67.55
77.26
83.28
86.43
89.05
94.65
106.32
125.83
152.76
180.95
203.55
214.33
210.16
192.38
166.23
138.20
113.62
94.88
81.30
70.93
61.51
51.52
40.32
27.72
13.64
-1.52
-16.63
-29.96
-39.41
-43.72
-42.82
-37.65
-29.78
-21.02
-13.11
-7.47
-5.00
-5.63
-8.45
-12.16
-15.45
-17.54
-18.55
-19.15
-20.14
-21.83
-23.82
-25.18
-24.93
-22.44
-17.87
-12.17
-6.83
-3.28
-2.27
-3.50
-5.92
-8.22
-9.28
-8.75
-7.11
-5.50
-5.26
-7.36
-11.85
-17.77
-23.51
-27.42
-28.59
-27.09
-23.88
-20.21
-17.08
-14.78
-13.12
-11.76
-10.57
-9.70
-9.47
-9.99
-10.96
-11.88
-12.10
-11.06
-8.62
-5.06
-1.11
2.32
4.62
5.86
6.84
8.64
11.84
16.06
20.29
23.34
24.78
25.21
25.81
27.77
31.25
35.21
37.97
38.24
35.69
30.88
24.45
16.45
6.52
-5.71
-19.65
-33.37
-43.91
-48.47
-45.56
-35.53
-20.25
-2.04
16.81
34.53
49.66
60.94
67.14
67.04
59.73
42.75
15.40
-20.71
-61.75
-103.31
-142.03
-176.35
-205.74
-229.33
-245.41
-251.51
-245.74
-228.44
-203.12
-175.67
-152.53
-138.42
-134.79
-139.14
-147.30
-155.01
-159.17
-158.26
-151.98
-140.48
-124.09
-102.76
-76.68
-46.40
-12.80
23.04
60.05
97.32
134.48
167.59
194.22
212.83
223.05
225.59
222.18
214.79
205.28
194.67
182.88
169.76
155.30
140.42
127.22
118.31
115.74
120.31
131.35
147.02
165.19
182.75
195.23
197.45
185.57
159.34
123.46
86.30
56.39
38.62
31.84
30.08
26.47
17.16
2.88
-12.65
-25.91
-36.00
-44.54
-54.05
-65.52
-77.19
-85.74
-88.23
-83.68
-73.47
-60.46
-47.87
-38.34
-33.24
-32.79
-36.25
-42.24
-48.82
-54.13
-56.73
-56.05
-52.25
-45.77
-36.77
-24.93
-9.70
9.02
30.25
51.79
70.56
83.71
89.61
88.19
80.84
69.70
56.88
44.25
33.65
26.64
24.10
25.45
28.06
27.87
21.00
5.80
-15.89
-39.23
-58.60
-70.39
-74.50
-74.05
-73.09
-73.96
-75.78
-75.09
-68.11
-53.25
-32.34
-9.98
8.50
19.49
22.27
18.75
12.01
4.63
-2.16
-8.38
-14.60
-21.05
-27.16
-31.85
-34.09
-33.57
-30.97
-27.70
-25.25
-24.58
-25.63
-27.38
-28.40
-27.52
-24.34
-19.27
-13.29
-7.42
-2.45
1.29
3.84
5.49
6.62
7.47
8.00
7.90
6.86
4.90
2.68
1.27
1.64
4.04
7.78
11.49
13.75
13.81
11.73
8.36
4.79
1.92
0.22
-0.30
0.01
0.61
0.97
0.80
0.08
-0.93
-1.94
-2.73
-3.38
-4.08
-4.98
-6.07
-7.22
-8.29
-9.26
-10.13
-10.68
-10.44
-8.84
-5.53
-0.76
4.55
9.16
12.00
12.63
11.35
9.01
6.61
4.94
4.36
4.83
5.90
7.01
7.62
7.41
6.37
4.76
2.96
1.27
-0.15
-1.26
-2.06
-2.49
-2.62
-2.70
-3.22
-4.63
-7.04
-10.02
-12.68
-14.09
-13.63
-11.26
-7.40
-2.58
2.70
8.12
13.33
17.81
20.93
22.28
21.83
20.06
17.69
15.28
13.07
10.98
8.86
6.70
4.68
3.06
2.01
1.55
1.50
1.70
2.02
2.38
2.69
2.85
2.75
2.35
1.77
1.13
0.56
0.17
0.01
0.07
0.32
0.66
0.96
1.12
1.05
0.77
0.29
-0.44
-1.47
-2.75
-4.06
-5.07
-5.42
-5.01
-4.05
-3.00
-2.34
-2.33
-2.86
-3.58
-4.17
-4.48
-4.56
-4.49
-4.26
-3.82
-3.22
-2.70
-2.54
-2.90
-3.64
-4.36
-4.63
-4.24
-3.31
-2.28
-1.58
-1.40
-1.65
-2.01
-2.14
-1.92
-1.47
-1.08
-1.15
-1.93
-3.42
-5.43
-7.46
-9.10
-10.11
-10.61
-10.99
-11.67
-12.86
-14.38
-15.80
-16.60
-16.64
-16.27
-16.25
-17.40
-20.22
-24.61
-29.85
-34.92
-38.87
-41.31
-42.57
-43.60
-45.54
-49.25
-54.83
-61.60
-68.41
-74.01
-77.71
-79.53
-80.15
-80.59
-82.07
-85.67
-92.21
-101.73
-112.85
-122.31
-125.13
-115.98
-91.35
-51.62
-1.70
50.17
95.15
126.91
143.42
146.90
141.86
132.83
122.77
112.76
102.88
93.23
84.45
77.41
72.68
69.95
68.02
65.36
60.86
54.34
46.63
39.28
33.78
30.97
30.62
31.56
32.23
31.35
28.55
24.38
20.07
16.73
14.93
14.39
14.28
13.71
12.20
9.88
7.36
5.28
4.03
3.56
3.53
3.51
3.25
2.72
2.06
1.42
0.87
0.38
-0.12
-0.64
-1.17
-1.61
-1.92
-2.11
-2.22
-2.32
-2.49
-2.80
-3.23
-3.79
-4.35
-4.81
-5.06
-5.05
-4.79
-4.34
-3.82
-3.34
-2.95
-2.61
-2.24
-1.72
-0.96
-0.01
1.00
1.85
2.38
2.56
2.54
2.51
2.62
2.87
3.12
3.24
3.12
2.80
2.39
2.00
1.67
1.33
0.89
0.26
-0.52
-1.33
-1.95
-2.27
-2.28
-2.20
-2.29
-2.76
-3.65
-4.69
-5.48
-5.65
-5.02
-3.74
-2.21
-0.83
0.15
0.70
0.91
0.90
0.75
0.46
0.09
-0.26
-0.45
-0.40
-0.07
0.48
1.18
1.97
2.81
3.65
4.41
4.89
4.96
4.60
3.95
3.23
2.63
2.21
1.88
1.44
0.70
-0.37
-1.66
-2.92
-3.87
-4.32
-4.19
-3.56
-2.61
-1.63
-0.86
-0.53
-0.69
-1.22
-1.85
-2.29
-2.34
-1.95
-1.31
-0.61
-0.03
0.39
0.73
1.04
1.30
1.39
1.18
0.68
0.06
-0.43
-0.56
-0.25
0.33
0.99
1.55
1.94
2.20
2.36
2.43
2.30
1.91
1.21
0.25
-0.84
-1.97
-3.02
-3.93
-4.62
-5.08
-5.25
-5.14
-4.79
-4.26
-3.60
-2.83
-2.01
-1.15
-0.36
0.28
0.74
1.01
1.15
1.19
1.18
1.07
0.83
0.48
0.13
-0.10
-0.17
-0.18
-0.43
-1.13
-2.34
-3.78
-4.92
-5.33
-4.84
-3.76
-2.65
-2.01
-1.97
-2.24
-2.30
-1.76
-0.67
0.51
1.20
1.04
0.22
-0.68
-1.05
-0.53
0.76
2.26
3.33
3.50
2.66
1.18
-0.44
-1.74
-2.43
-2.41
-1.83
-1.03
-0.51
-0.87
-2.28
-4.67
-7.55
-10.02
-11.05
-9.88
-6.46
-1.68
3.00
6.69
9.01
10.35
11.79
14.55
19.48
26.66
35.25
43.74
51.24
56.98
61.07
65.03
72.00
86.09
111.29
149.64
199.95
258.68
319.14
373.08
412.73
432.85
432.08
413.22
382.18
338.34
283.55
220.24
151.44
80.98
13.71
-45.28
-91.93
-124.46
-143.74
-151.63
-150.85
-143.36
-130.09
-111.02
-86.45
-57.67
-27.24
1.80
27.38
48.01
63.28
73.41
79.01
80.58
78.52
73.11
64.90
54.87
44.52
35.55
29.45
26.98
27.91
30.87
33.57
36.91
40.63
44.33
47.81
51.01
53.93
56.64
59.07
61.34
63.53
65.41
66.90
68.10
69.17
70.16
71.25
72.49
74.18
76.58
79.78
83.90
89.22
95.93
104.02
113.23
122.97
132.33
140.17
144.90
145.04
139.40
127.24
108.38
83.36
53.31
19.96
-14.62
-48.38
-79.48
-106.33
-127.96
-144.04
-154.90
-161.33
-164.68
-166.20
-167.38
-169.37
-173.02
-178.54
-185.79
-193.99
-201.99
-208.40
-211.64
-210.32
-203.27
-189.81
-169.83
-143.83
-112.83
-78.34
-42.09
-5.98
28.27
59.16
85.68
107.21
123.74
135.69
143.85
149.23
152.85
155.69
158.39
161.32
164.31
166.83
168.07
166.96
162.37
153.36
139.31
120.10
96.14
68.32
38.02
6.73
-23.97
-52.75
-78.69
-101.36
-120.80
-137.45
-151.84
-164.52
-175.70
-185.26
-192.52
-196.65
-196.39
-190.78
-178.98
-160.69
-136.11
-106.06
-71.73
-34.66
3.44
40.94
76.32
108.29
135.83
158.04
174.22
183.79
186.34
181.68
169.96
151.69
127.82
99.84
69.47
38.62
9.16
-17.21
-39.35
-56.64
-69.09
-77.30
-82.12
-84.77
-86.51
-88.48
-91.54
-96.29
-102.92
-111.35
-121.20
-131.72
-141.97
-150.85
-157.08
-159.49
-157.04
-149.08
-135.28
-115.93
-91.67
-63.65
-33.21
-1.82
29.17
58.66
85.92
110.58
132.53
151.82
168.45
182.31
192.99
199.77
201.72
198.03
188.03
171.41
148.42
119.93
87.32
52.50
17.54
-15.53
-44.93
-69.47
-88.56
-102.29
-111.16
-116.13
-118.10
-118.05
-116.65
-114.48
-111.87
-109.20
-106.72
-104.62
-103.04
-101.98
-101.26
-100.64
-99.89
-98.97
-98.08
-97.65
-98.15
-100.00
-103.27
-107.72
-112.83
-118.10
-123.30
-128.58
-134.52
-141.81
-150.99
-162.09
-174.65
-187.87
-200.95
-213.41
-225.27
-237.02
-249.55
-263.87
-281.09
-301.98
-326.44
-352.92
-378.25
-398.13
-408.40
-406.54
-392.60
-369.23
-340.54
-310.58
-282.08
-256.14
-232.62
-211.07
-191.29
-173.46
-157.75
-143.96
-131.41
-119.22
-106.76
-93.90
-81.13
-69.23
-58.90
-50.40
-43.41
-37.18
-30.93
-24.14
-16.87
-9.64
-3.24
1.72
5.06
7.09
8.49
9.92
11.77
13.97
16.15
17.82
18.74
18.97
18.86
18.82
19.13
19.80
20.64
21.48
22.18
22.69
22.97
22.89
22.32
21.18
19.66
18.11
16.88
16.08
15.47
14.50
12.69
10.02
6.93
4.16
2.36
1.65
1.52
1.07
-0.60
-3.92
-8.55
-14.03
-19.61
-24.36
-27.53
-28.70
-27.48
-24.35
-20.27
-16.11
-12.67
-10.11
-8.03
-6.15
-5.10
-5.93
-10.28
-18.76
-29.99
-42.28
-53.81
-63.61
-71.95
-79.96
-88.27
-97.85
-109.17
-122.27
-140.07
-164.89
-197.32
-235.52
-276.10
-314.01
-348.12
-379.09
-408.08
-441.75
-485.17
-540.26
-605.14
-675.35
-741.24
-797.44
-839.54
-863.62
-876.64
-886.60
-898.81
-913.62
-926.71
-926.03
-907.87
-872.22
-820.89
-768.59
-729.21
-709.94
-709.79
-722.45
-733.93
-743.12
-754.05
-698.82
-540.37
-277.24
54.70
400.87
668.53
855.96
981.50
1063.69
1116.25
1147.50
1156.34
1144.07
1117.16
1085.33
1064.45
1056.67
1058.30
1064.48
1062.13
1039.97
993.81
926.65
845.95
765.34
688.70
616.03
546.75
475.27
396.90
311.24
222.02
135.22
59.89
-1.68
-50.34
-87.97
-119.20
-148.52
-178.05
-207.56
-235.41
-257.82
-273.91
-283.74
-287.57
-286.52
-281.73
-273.50
-261.50
-245.01
-222.74
-194.63
-161.15
-122.97
-80.77
-35.34
12.63
62.71
114.43
167.10
219.74
271.06
319.56
363.80
402.49
434.63
459.87
478.11
489.66
494.97
494.60
489.16
479.26
465.54
448.47
429.04
407.80
384.77
359.32
330.33
296.67
257.68
213.49
165.10
116.29
70.93
32.47
2.76
-18.19
-31.69
-39.45
-43.07
-43.91
-38.78
-25.22
-1.68
30.70
67.99
105.03
137.42
162.61
179.96
197.48
222.30
260.78
314.69
380.78
453.21
526.56
597.38
664.39
737.38
824.02
930.99
1058.85
1201.65
1350.27
1496.54
1635.57
1710.02
1678.50
1517.10
1238.51
886.23
514.50
167.16
-131.46
-374.66
-566.91
-692.47
-760.66
-781.29
-766.07
-729.38
-685.88
-647.09
-619.84
-617.79
-635.20
-663.76
-691.80
-711.64
-721.87
-725.30
-725.91
-726.93
-730.19
-730.16
-723.83
-707.69
-681.34
-647.71
-611.92
-577.71
-547.27
-521.32
-496.09
-469.66
-440.01
-406.99
-372.48
-338.93
-308.53
-282.69
-261.82
-243.90
-227.51
-210.74
-192.06
-172.99
-154.59
-137.66
-122.72
-109.88
-98.52
-88.34
-78.85
-69.77
-61.08
-52.65
-44.53
-36.92
-29.92
-23.27
-16.60
-9.42
-1.35
7.73
17.88
28.86
40.20
51.54
62.79
74.17
86.16
99.13
113.13
127.95
143.05
157.81
171.86
185.24
198.40
212.13
227.29
244.82
265.52
289.54
315.88
341.98
364.05
377.98
380.72
371.38
351.53
324.58
294.34
263.78
234.57
207.31
182.21
159.57
139.81
123.07
108.94
96.41
84.33
71.92
59.04
46.13
33.91
23.10
14.16
7.29
2.41
-0.92
-3.41
-5.81
-8.66
-11.97
-15.25
-17.83
-19.24
-19.64
-19.75
-20.51
-22.57
-25.90
-29.85
-33.57
-36.38
-38.06
-38.77
-38.87
-38.69
-38.42
-38.16
-37.96
-37.82
-37.71
-37.52
-37.19
-36.69
-36.14
-35.72
-35.58
-35.67
-35.73
-35.39
-34.33
-32.54
-30.30
-28.12
-26.51
-25.75
-25.69
-25.86
-25.63
-24.59
-22.69
-20.28
-17.92
-16.11
-15.11
-14.80
-14.80
-14.63
-13.94
-12.62
-10.82
-8.82
-6.91
-5.34
-4.22
-3.60
-3.42
-3.59
-3.98
-4.47
-5.05
-5.75
-6.63
-7.75
-9.06
-10.35
-11.33
-11.69
-11.30
-10.28
-8.91
-7.61
-6.77
-6.63
-7.30
-8.78
-10.99
-13.72
-16.60
-19.12
-20.74
-21.05
-19.87
-17.40
-14.10
-10.60
-7.44
-4.96
-3.30
-2.36
-1.95
-1.78
-1.62
-1.37
-0.98
-0.57
-0.28
-0.16
-0.17
-0.09
0.24
0.91
1.81
2.66
3.15
3.08
2.42
1.30
-0.11
-1.69
-3.38
-5.13
-6.78
-8.11
-8.82
-8.70
-7.74
-6.18
-4.52
-3.22
-2.66
-2.94
-3.85
-5.04
-6.13
-6.92
-7.36
-7.51
-7.44
-7.22
-6.88
-6.51
-6.20
-6.06
-6.06
-6.03
-5.72
-4.92
-3.64
-2.12
-0.79
0.00
0.15
-0.18
-0.62
-0.80
-0.50
0.28
1.41
2.69
3.95
5.01
5.74
5.98
5.62
4.70
3.39
2.08
1.09
0.65
0.67
0.83
0.73
0.07
-1.20
-2.91
-4.72
-6.36
-7.73
-8.94
-10.20
-11.62
-13.05
-14.11
-14.32
-13.41
-11.44
-8.88
-6.47
-4.85
-4.29
-4.64
-5.36
-5.88
-5.80
-5.06
-3.86
-2.52
-1.26
-0.07
1.18
2.61
4.12
5.44
6.19
6.14
5.40
4.34
3.40
2.88
2.78
2.90
2.94
2.70
2.22
1.66
1.19
0.89
0.71
0.55
0.35
0.09
-0.28
-0.78
-1.47
-2.36
-3.41
-4.54
-5.68
-6.80
-7.89
-8.91
-9.69
-9.99
-9.53
-8.26
-6.40
-4.41
-2.78
-1.72
-1.14
-0.68
-0.02
0.94
1.99
2.80
3.12
2.97
2.56
2.17
1.97
1.93
1.91
1.85
1.84
2.05
2.57
3.33
4.08
4.55
4.61
4.35
4.02
3.85
3.97
4.22
4.39
4.19
3.53
2.44
1.17
-0.04
-0.97
-1.52
-1.72
-1.63
-1.34
-0.93
-0.50
-0.17
-0.16
-0.67
-1.75
-3.23
-4.67
-5.60
-5.73
-5.08
-3.99
-2.96
-2.38
-2.35
-2.68
-2.99
-3.02
-2.69
-2.15
-1.67
-1.44
-1.52
-1.80
-2.16
-2.47
-2.73
-3.00
-3.32
-3.72
-4.22
-4.83
-5.60
-6.62
-7.84
-9.13
-10.24
-10.91
-11.10
-11.02
-11.08
-11.67
-13.06
-15.17
-17.72
-20.26
-22.43
-24.19
-25.78
-27.77
-30.76
-35.16
-40.91
-47.47
-54.05
-60.03
-65.36
-70.52
-76.30
-83.43
-92.52
-104.02
-118.26
-135.10
-153.25
-169.80
-180.63
-182.08
-172.91
-155.35
-134.29
-114.75
-99.11
-85.85
-70.57
-48.51
-17.30
22.06
65.78
108.99
147.16
176.60
194.43
198.69
189.03
167.45
138.44
107.72
80.26
58.72
42.99
31.18
21.10
11.66
3.50
-1.16
0.74
11.86
33.18
62.84
95.97
126.01
146.45
152.91
144.15
121.87
89.65
51.93
13.52
-20.42
-44.60
-54.79
-49.39
-30.65
-4.41
21.88
41.83
52.12
52.99
47.10
37.70
27.37
17.58
9.07
2.20
-2.65
-5.26
-5.76
-4.74
-3.10
-1.61
-0.68
-0.29
-0.11
0.15
0.56
0.99
1.20
1.07
0.68
0.27
0.05
0.15
0.57
1.19
1.82
2.23
2.15
1.37
-0.25
-2.61
-5.33
-7.74
-9.13
-8.95
-7.01
-3.62
0.56
4.71
8.19
10.65
12.12
12.82
13.01
12.85
12.39
11.75
11.11
10.75
10.89
11.60
12.74
14.05
15.28
16.37
17.31
18.06
18.34
17.69
15.61
11.76
6.21
-0.58
-7.86
-14.83
-20.76
-25.15
-27.68
-28.24
-27.02
-24.46
-21.22
-18.04
-15.56
-14.15
-13.89
-14.57
-15.87
-17.38
-18.66
-19.34
-19.09
-17.84
-15.68
-12.96
-10.06
-7.34
-5.02
-3.24
-2.20
-2.11
-3.08
-4.88
-6.80
-7.86
-7.13
-4.30
0.16
4.98
8.69
10.18
9.02
5.57
0.59
-5.04
-10.63
-15.71
-20.00
-23.37
-25.88
-27.85
-29.80
-32.38
-36.02
-40.67
-45.69
-49.92
-52.19
-51.93
-49.59
-46.61
-44.93
-46.08
-50.48
-57.30
-64.77
-71.16
-75.54
-78.15
-80.18
-83.27
-89.02
-98.30
-110.85
-124.75
-136.36
-140.73
-132.86
-109.48
-70.67
-20.47
33.94
84.38
124.21
149.94
161.72
162.34
155.51
144.62
132.01
119.20
107.27
97.24
89.86
85.33
83.05
81.62
79.42
75.27
68.96
61.23
53.45
46.99
42.55
39.96
38.31
36.47
33.56
29.36
24.28
19.22
14.99
12.10
10.51
9.73
9.13
8.15
6.56
4.51
2.42
0.75
-0.22
-0.43
-0.12
0.41
0.86
1.12
1.29
1.57
2.14
3.07
4.28
5.55
6.65
7.37
7.62
7.41
6.82
5.99
5.03
4.07
3.20
2.54
2.16
2.13
2.42
2.98
3.68
4.37
4.87
5.00
4.62
3.70
2.30
0.66
-0.90
-2.05
-2.59
-2.48
-1.87
-1.03
-0.34
-0.14
-0.66
-1.91
-3.52
-4.88
-5.26
-4.17
-1.58
1.94
5.41
7.88
8.86
8.50
7.49
6.68
6.68
7.58
9.07
10.59
11.67
12.13
12.05
11.61
10.93
10.08
9.13
8.24
7.58
7.11
6.41
4.70
1.18
-4.51
-11.85
-19.51
-25.78
-29.22
-29.27
-26.36
-21.60
-16.18
-11.04
-6.57
-2.83
0.25
2.72
4.62
5.96
6.81
7.33
7.64
7.81
7.84
7.66
7.16
6.27
4.96
3.28
1.43
-0.29
-1.58
-2.24
-2.30
-1.99
-1.70
-1.76
-2.32
-3.25
-4.23
-4.88
-5.03
-4.76
-4.36
-4.13
-4.20
-4.48
-4.72
-4.62
-4.07
-3.16
-2.19
-1.47
-1.18
-1.29
-1.58
-1.84
-1.91
-1.85
-1.81
-1.96
-2.39
-3.03
-3.73
-4.30
-4.71
-5.02
-5.31
-5.67
-6.06
-6.37
-6.54
-6.57
-6.58
-6.74
-7.17
-7.84
-8.63
-9.32
-9.74
-9.80
-9.43
-8.59
-7.26
-5.53
-3.59
-1.71
-0.13
1.05
1.87
2.49
3.00
3.40
3.50
3.14
2.27
1.11
0.05
-0.55
-0.45
0.27
1.34
2.47
3.44
4.16
4.69
5.09
5.41
5.67
5.84
5.90
5.86
5.75
5.52
5.15
4.62
3.96
3.29
2.68
2.21
1.86
1.56
1.26
0.95
0.68
0.52
0.51
0.59
0.70
0.64
0.34
-0.23
-0.97
-1.72
-2.31
-2.61
-2.54
-2.06
-1.21
-0.08
1.16
2.35
3.33
4.02
4.40
4.53
4.53
4.53
4.58
4.66
4.70
4.59
4.28
3.76
3.10
2.39
1.66
0.88
-0.01
-1.04
-2.13
-3.08
-3.69
-3.84
-3.57
-3.13
-2.80
-2.81
-3.17
-3.71
-4.16
-4.36
-4.29
-4.06
-3.84
-3.67
-3.52
-3.24
-2.77
-2.08
-1.33
-0.72
-0.38
-0.35
-0.57
-0.93
-1.31
-1.68
-1.97
-2.13
-2.09
-1.74
-1.07
-0.14
0.89
1.77
2.30
2.37
2.02
1.38
0.68
0.09
-0.24
-0.31
-0.22
-0.11
-0.11
-0.25
-0.50
-0.72
-0.87
-0.92
-0.93
-1.02
-1.27
-1.64
-2.00
-2.21
-2.14
-1.83
-1.41
-1.04
-0.83
-0.86
-1.15
-1.69
-2.46
-3.32
-4.12
-4.66
-4.76
-4.40
-3.71
-2.92
-2.23
-1.68
-1.20
-0.63
0.09
0.86
1.47
1.69
1.44
0.85
0.15
-0.43
-0.72
-0.73
-0.54
-0.27
-0.03
0.17
0.25
0.19
-0.04
-0.31
-0.50
-0.42
0.03
0.76
1.53
2.05
2.07
1.61
0.88
0.19
-0.19
-0.14
0.26
0.87
1.55
2.26
2.96
3.54
3.66
3.00
1.41
-0.94
-3.44
-5.40
-6.22
-5.76
-4.37
-2.67
-1.25
-0.41
-0.14
-0.17
-0.25
-0.25
-0.20
-0.21
-0.34
-0.57
-0.81
-0.91
-0.77
-0.41
0.03
0.34
0.34
-0.00
-0.56
-1.07
-1.25
-0.98
-0.34
0.42
1.00
1.24
1.21
1.11
1.21
1.62
2.22
2.77
2.99
2.74
2.07
1.20
0.36
-0.30
-0.79
-1.25
-1.88
-2.70
-3.68
-4.66
-5.45
-5.89
-5.92
-5.56
-4.97
-4.30
-3.67
-3.08
-2.40
-1.46
-0.14
1.54
3.39
5.09
6.34
7.03
7.26
7.29
7.46
8.05
9.25
11.02
13.09
15.03
16.57
17.47
17.80
17.93
18.53
20.38
23.99
29.31
35.69
42.52
49.07
55.03
60.71
67.04
75.32
86.76
102.05
120.98
142.78
165.36
185.62
200.36
207.36
206.63
200.53
193.18
188.80
190.65
198.95
210.88
221.69
226.43
221.50
205.14
177.94
137.40
85.06
25.67
-33.50
-84.65
-122.03
-143.55
-151.27
-149.36
-142.59
-134.60
-128.01
-124.69
-125.88
-132.24
-143.97
-161.68
-185.98
-216.08
-250.28
-286.41
-322.13
-355.09
-383.34
-400.68
-402.60
-386.87
-354.40
-308.68
-254.83
-198.08
-142.76
-92.02
-47.72
-11.30
16.75
36.83
50.28
58.88
64.37
68.16
71.12
73.78
75.96
77.39
77.90
77.54
76.64
75.60
74.85
74.65
75.21
76.30
77.84
79.85
82.42
85.71
89.77
94.57
99.62
104.27
107.39
107.80
104.54
96.96
84.87
68.41
48.47
26.34
3.44
-18.97
-39.70
-57.89
-73.01
-84.88
-93.82
-100.02
-104.09
-106.97
-109.55
-112.43
-115.95
-120.15
-124.67
-130.48
-135.69
-138.68
-138.22
-133.40
-123.49
-108.37
-88.40
-63.14
-35.07
-6.17
21.74
47.08
68.78
86.45
100.07
109.84
116.06
118.78
118.54
115.69
110.54
103.18
93.94
83.40
71.90
59.86
47.15
34.09
20.90
7.96
-4.19
-14.34
-21.30
-24.23
-22.73
-17.16
-8.20
3.11
16.64
31.03
45.41
59.68
73.04
83.93
89.96
88.81
78.75
59.58
32.66
2.00
-28.45
-55.61
-78.00
-95.78
-110.26
-122.88
-134.69
-146.22
-157.32
-167.99
-177.36
-182.88
-180.84
-168.35
-145.66
-117.23
-91.87
-74.59
-67.45
-67.58
-68.30
-62.69
-47.15
-22.61
7.33
37.15
64.19
88.38
111.09
133.13
153.66
170.50
181.39
184.49
179.08
166.06
147.51
126.32
105.98
89.38
78.00
71.63
68.49
66.45
64.35
61.99
59.69
57.88
55.61
51.44
43.95
32.67
18.32
2.98
-11.18
-22.34
-29.88
-34.23
-36.51
-37.90
-39.27
-40.99
-42.60
-43.34
-42.65
-40.33
-36.83
-32.89
-29.46
-27.18
-26.79
-27.83
-29.37
-30.20
-29.34
-26.14
-20.75
-13.71
-6.10
0.70
6.11
10.24
13.14
14.60
13.56
8.57
-1.59
-16.80
-36.44
-58.16
-79.35
-97.85
-112.03
-120.08
-120.08
-110.21
-85.56
-50.36
-12.81
18.40
37.04
41.65
35.07
22.37
8.22
-4.70
-16.83
-28.64
-39.87
-49.52
-56.73
-61.07
-63.26
-64.78
-67.11
-72.07
-79.99
-89.72
-99.63
-108.07
-113.88
-116.57
-116.99
-114.56
-109.01
-99.37
-84.36
-62.91
-34.79
-0.84
36.88
74.65
109.10
137.46
158.47
172.27
179.97
183.18
183.37
181.48
177.89
172.83
166.16
157.86
148.27
138.09
128.57
121.35
117.96
118.77
122.23
124.31
119.70
104.24
76.68
40.07
0.40
-35.40
-61.71
-75.04
-74.24
-60.15
-35.38
-4.60
26.18
50.78
64.67
66.25
57.16
41.04
21.73
1.97
-16.92
-34.36
-49.64
-61.49
-68.37
-69.10
-63.56
-52.74
-38.20
-21.96
-6.03
7.80
18.55
25.82
28.87
27.06
19.55
6.19
-12.09
-33.07
-54.08
-72.48
-86.50
-95.62
-100.33
-101.79
-101.09
-99.03
-95.95
-91.70
-85.67
-76.72
-63.66
-46.03
-24.92
-2.94
16.35
29.61
34.91
32.20
23.05
9.81
-5.33
-21.11
-36.80
-51.77
-65.05
-75.41
-81.75
-83.58
-81.01
-74.39
-64.33
-51.11
-34.89
-15.80
5.80
29.02
52.67
75.47
96.75
115.30
130.50
142.42
151.63
158.82
164.42
168.41
170.57
170.83
169.36
166.83
164.40
163.82
166.96
175.19
188.33
204.27
219.50
230.17
233.41
229.00
219.75
209.95
203.30
201.22
202.51
204.37
203.94
197.75
184.71
166.23
144.87
122.43
99.27
74.72
48.20
19.66
-13.51
-51.57
-91.65
-129.21
-161.29
-187.84
-210.94
-233.35
-256.99
-288.12
-328.63
-374.89
-419.67
-457.49
-486.71
-508.99
-527.13
-543.99
-569.44
-609.19
-661.11
-716.40
-764.11
-794.84
-801.85
-782.33
-691.54
-521.18
-303.26
-90.40
79.60
197.26
271.74
317.07
344.34
360.09
360.42
344.25
317.36
289.65
269.21
258.34
255.12
255.42
255.82
248.60
230.81
205.72
180.33
160.44
147.81
141.02
137.27
134.07
126.42
112.29
93.60
74.68
59.13
48.08
40.76
35.49
30.86
24.24
14.50
2.47
-9.91
-21.01
-30.46
-38.76
-46.93
-55.67
-65.96
-77.89
-90.52
-102.21
-111.12
-116.40
-116.53
-110.60
-98.14
-79.28
-54.76
-25.95
5.34
36.93
66.56
92.15
111.84
124.39
129.35
126.95
117.99
103.80
86.03
66.48
46.88
28.55
12.44
-0.92
-11.38
-19.12
-24.51
-28.11
-30.58
-32.58
-34.71
-37.46
-41.21
-46.24
-52.73
-60.45
-69.15
-78.52
-88.22
-98.04
-107.79
-117.39
-126.86
-136.23
-145.17
-153.46
-160.81
-166.74
-170.66
-171.83
-169.39
-162.22
-152.19
-140.13
-126.92
-113.51
-100.86
-89.86
-81.21
-75.27
-72.01
-70.90
-70.69
-70.23
-68.61
-65.39
-60.31
-53.40
-44.95
-35.52
-25.74
-16.03
-6.92
1.08
7.33
11.65
14.19
15.62
16.82
19.12
24.08
33.00
46.62
64.56
86.11
110.07
134.84
158.34
179.11
195.74
206.92
211.63
208.18
196.87
179.55
158.88
137.90
121.06
111.45
110.12
116.08
124.41
132.14
138.05
142.14
145.74
153.50
169.29
195.05
230.52
269.90
310.56
352.08
394.88
440.23
492.39
553.45
622.56
696.00
763.24
818.56
860.02
887.65
875.09
806.19
676.77
497.73
323.34
172.77
49.28
-50.54
-141.21
-227.36
-303.74
-362.44
-396.98
-405.53
-396.99
-379.10
-357.86
-337.45
-318.94
-300.12
-280.11
-260.31
-243.87
-237.86
-243.43
-257.16
-273.65
-287.02
-292.19
-287.33
-273.45
-253.55
-233.84
-217.69
-205.99
-198.22
-192.68
-187.19
-180.45
-171.83
-161.26
-149.96
-137.71
-123.56
-106.88
-87.90
-68.08
-49.95
-35.95
-27.46
-24.77
-26.44
-30.38
-34.80
-38.91
-43.05
-48.21
-55.15
-63.65
-72.20
-78.39
-79.85
-75.18
-64.67
-50.14
-34.19
-19.20
-6.56
3.48
11.57
18.32
23.92
27.93
29.80
29.35
27.05
23.87
20.95
19.49
20.11
22.71
26.51
30.30
32.91
33.54
32.05
28.86
25.24
22.50
21.76
23.61
28.12
35.29
45.23
58.46
73.22
87.62
99.38
106.74
109.30
107.95
103.86
97.23
86.78
70.36
46.76
16.85
-15.93
-46.46
-70.04
-84.15
-89.23
-87.91
-83.58
-78.50
-73.44
-68.13
-62.09
-55.55
-49.44
-44.75
-41.82
-40.21
-38.77
-36.28
-32.19
-26.62
-20.49
-15.12
-11.58
-10.33
-11.15
-13.22
-15.55
-17.39
-18.32
-18.38
-17.79
-16.76
-15.30
-13.17
-10.08
-5.80
-0.47
5.67
12.18
18.61
24.76
30.48
35.83
41.01
45.99
50.58
54.32
56.84
57.44
55.79
51.51
44.51
34.99
23.35
10.21
-3.63
-17.23
-29.71
-40.18
-48.01
-52.73
-54.19
-52.54
-48.21
-41.79
-34.00
-25.60
-17.16
-9.19
-2.00
4.33
9.74
14.31
18.27
21.80
25.06
28.29
31.65
35.25
39.31
43.64
48.12
52.47
56.45
60.16
63.75
67.62
71.98
77.21
82.92
89.09
95.25
101.18
106.76
112.26
117.90
124.00
130.79
137.77
144.53
150.07
153.55
154.66
153.36
149.53
142.07
133.94
125.58
117.28
107.09
93.69
76.96
58.28
39.51
22.26
7.69
-4.06
-12.28
-20.14
-29.52
-39.66
-47.63
-50.32
-46.49
-37.04
-25.42
-14.82
-14.91
-32.45
-68.61
-119.16
-177.68
-238.71
-298.63
-356.42
-410.59
-468.41
-534.17
-606.10
-677.59
-741.20
-793.37
-834.52
-869.72
-855.54
-772.14
-627.75
-455.51
-290.86
-153.55
-47.70
31.45
76.19
96.03
90.69
60.85
12.22
-44.50
-97.08
-137.89
-152.37
-123.24
-45.26
65.76
185.49
291.84
372.90
428.06
461.61
483.28
497.60
506.19
505.19
494.01
476.70
452.82
428.88
410.90
402.33
401.97
406.34
409.59
413.03
416.68
422.26
431.67
443.37
452.69
453.06
439.76
411.18
365.02
305.83
241.04
177.91
120.34
69.50
24.70
-14.62
-48.64
-77.32
-101.47
-122.47
-141.51
-159.77
-177.38
-193.29
-205.61
-212.47
-212.89
-207.52
-198.55
-189.26
-183.36
-183.91
-192.08
-206.65
-224.56
-242.16
-256.85
-268.27
-278.31
-289.70
-303.94
-319.54
-332.02
-335.23
-324.58
-299.33
-263.92
-226.54
-196.21
-179.14
-176.85
-186.18
-201.18
-215.58
-224.65
-225.66
-217.60
-200.49
-175.38
-144.68
-111.99
-81.41
-55.65
-34.64
-15.40
5.08
27.37
48.23
62.48
66.77
62.88
58.37
63.38
85.70
124.85
172.01
213.67
238.45
241.82
226.38
199.30
168.23
139.14
113.48
90.12
66.66
41.75
15.83
-9.61
-31.11
-43.55
-40.37
-19.32
16.50
58.78
98.37
128.92
147.47
155.22
155.30
152.04
144.91
130.13
102.91
62.53
21.92
-4.31
-6.50
0.57
6.40
0.08
-20.68
-57.59
-106.79
-159.87
-208.37
-245.88
-269.25
-275.90
-266.71
-244.15
-212.43
-175.50
-137.19
-101.88
-72.75
-50.92
-33.87
-19.59
-6.71
4.71
15.30
26.39
38.67
52.21
65.93
79.22
90.64
99.41
105.36
109.74
114.34
120.01
126.23
131.22
133.08
129.79
120.61
106.66
91.42
79.49
74.08
75.24
79.32
80.56
73.12
53.69
22.36
-17.65
-61.02
-101.79
-134.01
-152.93
-156.26
-145.54
-126.68
-108.51
-99.40
-102.72
-114.77
-125.82
-124.77
-104.08
-62.10
-2.53
67.66
140.67
209.59
269.05
316.12
350.18
372.78
386.97
395.59
398.97
394.49
378.24
347.65
303.76
250.16
190.90
129.30
67.68
7.69
-48.49
-97.62
-136.71
-163.94
-179.22
-186.52
-192.03
-199.67
-209.23
-217.00
-218.78
-215.67
-206.73
-192.45
-174.41
-154.25
-133.47
-114.69
-100.66
-90.89
-80.56
-61.86
-27.80
23.21
85.84
154.26
222.88
288.96
347.56
395.88
432.08
453.28
455.58
436.78
398.35
345.34
284.79
223.36
165.98
115.06
70.06
28.58
-11.40
-50.46
-88.34
-124.85
-160.66
-196.05
-230.53
-263.47
-295.23
-326.22
-357.14
-388.86
-422.59
-459.40
-497.79
-533.15
-559.72
-573.20
-571.23
-553.13
-519.95
-474.01
-419.43
-359.32
-295.83
-230.88
-167.89
-109.61
-56.40
-6.42
50.62
115.65
181.32
237.16
285.18
330.56
375.35
419.93
462.79
499.72
524.13
531.53
521.80
499.16
468.44
434.13
399.19
364.81
330.20
293.22
253.01
210.36
166.82
122.73
78.31
34.07
-9.36
-52.27
-95.98
-141.30
-187.28
-231.42
-271.26
-304.96
-332.08
-353.70
-371.54
-386.81
-398.72
-405.40
-405.56
-400.44
-393.00
-385.98
-380.02
-372.99
-361.11
-340.53
-309.39
-268.30
-219.75
-166.62
-111.12
-54.49
1.79
55.52
104.14
145.72
180.12
209.13
235.43
260.89
285.54
306.69
320.49
323.38
313.54
291.79
261.33
226.79
193.10
164.79
144.03
130.95
123.29
117.17
107.81
90.88
63.24
24.43
-22.78
-73.41
-120.54
-156.89
-176.86
-178.20
-161.41
-131.53
-96.04
-56.98
-14.15
33.92
88.22
147.67
208.74
266.58
316.64
355.58
381.92
394.16
391.56
374.89
347.71
316.13
287.52
267.73
259.07
260.08
266.22
272.83
276.95
277.28
272.69
260.48
236.33
196.18
139.15
68.48
-8.32
-81.97
-144.10
-190.16
-219.91
-236.42
-243.86
-245.23
-242.05
-234.86
-223.88
-210.47
-196.48
-183.85
-173.97
-167.97
-166.74
-171.54
-182.99
-199.84
-218.36
-233.17
-239.91
-237.76
-230.20
-223.54
-223.16
-230.61
-242.68
-253.96
-259.94
-260.01
-257.32
-256.65
-261.04
-270.20
-280.80
-288.57
-291.23
-289.30
-286.12
-285.62
-290.55
-301.25
-315.63
-329.91
-340.02
-342.43
-334.91
-316.79
-289.01
-254.01
-215.22
-176.24
-140.43
-110.38
-87.90
-74.01
-68.71
-71.11
-79.01
-89.30
-98.19
-102.33
-99.14
-87.64
-67.88
-40.88
-8.06
28.97
68.41
108.37
146.87
182.39
213.81
241.02
264.90
287.31
310.68
337.83
371.04
411.29
457.47
506.00
551.38
587.94
611.85
622.55
622.64
615.84
604.84
589.36
566.28
531.74
483.79
423.74
356.41
287.54
221.40
158.74
98.16
37.81
-22.16
-79.64
-131.71
-176.31
-212.74
-240.65
-258.32
-262.32
-249.00
-217.72
-173.24
-125.29
-85.05
-60.46
-52.93
-57.86
-68.18
-78.85
-89.45
-103.62
-125.45
-155.54
-189.68
-220.07
-239.00
-242.66
-232.22
-212.29
-186.94
-157.48
-122.16
-79.06
-28.80
24.46
75.20
119.80
158.61
195.36
233.83
274.44
313.28
344.50
363.86
371.57
372.14
372.17
377.48
391.05
412.66
439.70
468.37
494.12
512.66
520.73
516.87
501.66
476.85
444.22
404.65
357.88
303.06
239.99
169.72
94.72
18.10
-57.34
-129.64
-197.63
-260.59
-318.14
-370.01
-416.48
-458.33
-496.45
-530.87
-560.31
-582.02
-593.03
-591.79
-579.47
-559.80
-537.41
-515.87
-496.40
-477.88
-457.53
-433.01
-403.01
-368.47
-332.32
-298.47
-270.82
-251.78
-241.86
-239.69
-242.67
-247.65
-251.38
-250.37
-240.90
-219.43
-183.71
-133.66
-72.09
-3.96
65.02
129.94
187.04
233.50
267.06
286.15
290.79
282.74
265.80
244.64
223.60
205.45
191.59
181.19
171.54
158.67
138.83
111.36
80.50
55.49
47.45
64.19
105.38
160.88
213.59
245.63
245.14
210.39
148.86
73.43
-2.70
-69.29
-120.10
-152.37
-166.76
-167.02
-159.36
-150.78
-146.33
-146.66
-147.15
-139.71
-116.74
-75.61
-20.40
39.41
92.63
130.39
148.73
148.76
135.04
112.92
86.85
59.78
33.96
11.77
-4.05
-10.93
-7.70
4.81
23.52
44.19
62.82
76.82
85.24
88.43
87.16
81.74
71.68
56.20
35.27
10.30
-15.66
-38.45
-54.09
-60.19
-56.77
-46.22
-32.04
-17.48
-4.66
5.23
11.55
13.59
10.84
3.49
-6.65
-16.42
-22.09
-21.08
-13.20
-0.57
13.48
25.70
33.91
37.06
34.70
26.43
11.76
-9.16
-35.27
-64.08
-92.66
-118.55
-140.90
-160.08
-176.97
-191.56
-202.25
-206.49
-202.03
-188.73
-168.84
-146.40
-125.09
-106.23
-88.41
-68.69
-44.56
-15.40
16.95
49.39
78.59
101.86
117.58
125.15
124.90
118.22
107.86
97.32
90.03
88.44
92.86
102.13
114.24
127.91
143.22
161.85
185.50
214.19
244.80
270.52
282.57
272.93
237.64
178.80
103.89
23.03
-54.60
-123.42
-182.52
-233.47
-278.08
-316.09
-344.56
-359.43
-357.57
-338.39
-304.02
-258.69
-206.90
-152.53
-98.48
-47.07
-0.96
36.79
63.23
76.64
77.52
69.22
57.23
47.71
45.53
52.67
67.69
86.71
105.18
119.62
128.96
134.28
137.73
141.63
147.20
154.56
163.14
172.24
181.40
190.66
200.37
211.27
224.37
241.01
262.06
287.53
315.27
340.83
357.70
359.02
339.30
296.15
230.92
148.37
55.33
-40.89
-133.69
-217.92
-290.03
-348.05
-391.09
-420.00
-436.87
-445.06
-448.59
-451.18
-455.20
-460.81
-465.83
-465.93
-456.15
-431.93
-390.51
-331.26
-255.43
-165.95
-67.85
31.73
124.30
201.89
259.62
297.60
320.38
334.36
343.93
349.35
347.00
332.37
303.58
263.08
216.52
169.35
124.41
81.34
38.89
-2.37
-38.27
-62.18
-68.45
-55.78
-29.41
-0.01
20.19
22.19
3.60
-30.66
-70.96
-107.02
-131.67
-142.88
-143.04
-136.69
-128.11
-119.89
-112.92
-107.33
-103.34
-101.41
-102.01
-105.02
-109.37
-113.50
-116.35
-117.84
-119.20
-121.86
-125.68
-127.94
-123.72
-107.58
-75.99
-29.05
29.82
94.79
159.31
217.43
264.13
295.67
309.87
306.97
289.98
264.59
237.20
212.95
193.93
179.10
165.68
151.34
135.35
118.71
103.27
90.32
80.15
72.25
65.83
60.37
56.09
53.47
52.86
54.26
57.13
60.29
62.24
61.05
54.75
41.86
21.86
-4.50
-35.18
-67.37
-98.31
-125.85
-148.83
-167.18
-181.49
-192.72
-201.80
-209.34
-215.70
-220.58
-223.47
-223.76
-221.46
-217.59
-214.10
-213.23
-216.37
-223.34
-231.92
-238.65
-240.20
-234.52
-221.33
-201.82
-177.63
-149.97
-119.40
-86.25
-51.25
-15.82
18.00
48.34
74.17
95.54
113.43
129.35
144.56
159.72
175.10
190.64
206.01
220.49
233.08
242.56
248.19
249.88
247.92
242.64
233.77
219.98
199.51
171.56
137.38
101.13
68.69
45.37
33.72
32.42
37.28
43.38
47.45
48.85
49.14
50.57
54.82
62.43
72.94
85.93
100.90
116.54
129.55
134.27
124.02
93.61
42.10
-26.18
-102.30
-175.33
-235.11
-274.83
-292.25
-289.41
-271.27
-243.71
-212.22
-180.69
-151.36
-125.21
-103.06
-86.41
-76.67
-73.78
-75.20
-76.90
-75.41
-70.02
-62.32
-55.63
-53.25
-56.71
-64.79
-74.49
-83.25
-90.11
-95.66
-98.74
-97.31
-90.45
-79.96
-70.00
-64.89
-66.29
-71.17
-72.01
-57.49
-19.08
43.86
123.45
207.66
285.83
352.17
405.47
432.87
424.08
378.90
308.68
228.19
148.97
78.17
19.90
-24.40
-55.96
-75.76
-85.50
-88.26
-87.99
-87.71
-88.62
-90.43
-92.54
-94.94
-96.52
-96.44
-95.15
-94.34
-95.34
-98.44
-102.85
-107.69
-112.35
-115.50
-116.08
-114.04
-110.55
-106.46
-103.05
-99.57
-95.83
-91.81
-87.26
-82.03
-76.37
-71.14
-66.37
-61.64
-55.66
-47.48
-36.16
-21.39
-3.36
17.25
39.06
61.73
82.87
102.39
120.23
136.53
150.15
159.63
166.88
169.76
167.83
162.06
154.61
147.21
141.70
138.22
135.93
134.02
131.57
129.59
129.73
134.13
138.17
143.17
151.12
163.16
178.71
193.93
203.67
201.88
184.90
153.37
113.91
75.40
45.70
29.73
24.30
24.84
26.12
25.14
20.64
14.17
7.23
0.87
-4.89
-10.69
-16.21
-21.18
-24.87
-28.06
-31.03
-34.22
-38.01
-43.51
-53.09
-64.73
-78.24
-93.31
-111.97
-134.58
-159.97
-185.39
-208.63
-228.50
-244.85
-258.70
-271.31
-287.05
-308.48
-334.88
-362.38
-385.73
-399.92
-400.78
-386.44
-337.45
-250.92
-141.46
-33.87
52.04
109.07
140.44
153.90
156.88
154.73
147.35
134.75
119.07
104.15
93.51
88.35
87.94
89.88
92.03
90.24
82.94
71.46
59.16
49.08
42.53
39.21
37.66
36.37
32.72
25.58
15.73
5.16
-4.43
-12.39
-18.95
-25.01
-31.40
-39.20
-48.52
-58.21
-66.38
-71.42
-72.85
-69.82
-62.36
-51.08
-37.19
-22.00
-6.49
8.29
20.96
30.43
35.90
36.78
32.88
24.44
12.15
-2.44
-17.88
-32.99
-46.10
-55.62
-60.21
-59.06
-52.02
-39.82
-23.50
-5.33
11.23
23.05
27.31
21.89
5.60
-21.71
-62.08
-112.41
-166.06
-219.68
-270.20
-314.78
-350.95
-376.75
-391.00
-393.25
-383.31
-361.97
-330.79
-290.66
-243.68
-192.32
-139.29
-87.29
-38.59
5.15
42.46
72.02
93.49
107.06
113.44
113.74
109.24
101.30
91.25
80.01
68.09
56.13
44.65
34.00
24.57
16.60
10.23
5.49
2.13
-0.26
-2.07
-3.68
-5.39
-7.35
-9.58
-12.04
-14.61
-17.16
-19.58
-21.78
-23.62
-24.98
-25.77
-25.89
-25.31
-24.17
-22.59
-20.71
-18.62
-16.30
-13.64
-10.48
-6.65
-2.19
2.72
7.74
12.60
17.13
21.49
26.06
31.34
37.78
45.46
54.14
63.29
72.35
80.98
89.31
97.91
107.53
118.82
131.93
146.46
161.68
176.78
191.21
204.99
218.55
232.65
248.28
266.43
287.93
312.84
339.86
366.00
387.01
398.49
397.55
383.95
360.18
330.50
299.26
269.50
242.43
217.95
195.49
174.80
156.04
139.41
124.76
111.39
98.43
85.24
71.81
58.69
46.76
36.71
28.70
22.39
16.92
11.46
5.43
-1.24
-8.14
-14.61
-20.09
-24.33
-27.35
-29.53
-31.28
-32.93
-34.53
-35.98
-37.02
-37.49
-37.41
-36.87
-36.16
-35.49
-35.00
-34.68
-34.38
-33.91
-33.09
-31.84
-30.11
-28.04
-25.74
-23.36
-21.03
-18.89
-17.04
-15.59
-14.62
-14.12
-14.17
-14.68
-15.53
-16.61
-17.77
-18.82
-19.63
-20.09
-20.11
-19.70
-18.87
-17.70
-16.31
-14.87
-13.51
-12.40
-11.69
-11.45
-11.75
-12.56
-13.80
-15.37
-17.09
-18.74
-20.16
-21.19
-21.69
-21.66
-21.07
-20.01
-18.62
-17.04
-15.43
-13.97
-12.79
-11.95
-11.51
-11.42
-11.66
-12.11
-12.70
-13.34
-14.01
-14.67
-15.30
-15.93
-16.55
-17.17
-17.80
-18.45
-19.08
-19.67
-20.14
-20.44
-20.55
-20.42
-20.04
-19.43
-18.58
-17.52
-16.29
-14.94
-13.54
-12.22
-11.05
-10.10
-9.41
-8.93
-8.59
-8.32
-8.06
-7.76
-7.47
-7.22
-7.00
-6.84
-6.70
-6.55
-6.38
-6.20
-5.99
-5.78
-5.60
-5.49
-5.49
-5.60
-5.80
-6.06
-6.34
-6.53
-6.59
-6.41
-6.03
-5.42
-4.66
-3.80
-2.92
-2.10
-1.37
-0.83
-0.52
-0.48
-0.72
-1.18
-1.75
-2.32
-2.79
-3.08
-3.22
-3.21
-3.14
-3.02
-2.93
-2.86
-2.84
-2.92
-3.08
-3.37
-3.78
-4.30
-4.88
-5.48
-6.06
-6.55
-6.95
-7.19
-7.28
-7.22
-7.04
-6.74
-6.37
-5.98
-5.65
-5.43
-5.35
-5.42
-5.55
-5.64
-5.54
-5.17
-4.52
-3.66
-2.74
-1.89
-1.27
-0.89
-0.75
-0.80
-0.95
-1.12
-1.27
-1.38
-1.46
-1.56
-1.68
-1.82
-1.96
-2.08
-2.12
-2.07
-1.96
-1.86
-1.87
-2.06
-2.45
-2.98
-3.51
-3.92
-4.08
-3.99
-3.77
-3.57
-3.59
-3.90
-4.46
-5.13
-5.80
-6.42
-7.08
-7.94
-9.18
-10.80
-12.66
-14.44
-15.76
-16.40
-16.29
-15.59
-14.59
-13.67
-13.10
-13.05
-13.47
-14.12
-14.54
-14.12
-12.28
-8.78
-3.90
1.53
6.30
9.35
10.08
8.67
5.90
2.88
0.59
-0.36
0.15
1.77
4.00
6.23
7.94
8.76
8.52
7.25
5.18
2.57
-0.29
-2.95
-4.87
-5.45
-4.21
-1.05
3.45
8.17
11.67
12.82
11.25
7.50
2.82
-1.37
-3.98
-4.70
-3.85
-2.17
-0.34
1.20
2.37
3.27
4.03
4.60
4.83
4.49
3.44
1.66
-0.59
-2.96
-5.01
-6.49
-7.34
-7.70
-7.86
-8.00
-8.17
-8.16
-7.76
-6.84
-5.58
-4.31
-3.42
-3.19
-3.58
-4.37
-5.15
-5.61
-5.61
-5.21
-4.58
-3.90
-3.32
-2.83
-2.45
-2.16
-1.93
-1.81
-1.77
-1.80
-1.87
-2.01
-2.17
-2.37
-2.55
-2.66
-2.70
-2.71
-2.90
-3.49
-4.65
-6.33
-8.28
-10.03
-11.18
-11.52
-11.08
-10.13
-9.06
-8.22
-7.81
-7.84
-8.10
-8.40
-8.60
-8.65
-8.62
-8.59
-8.61
-8.72
-8.86
-8.98
-9.00
-8.88
-8.57
-8.02
-7.21
-6.26
-5.39
-4.93
-5.15
-6.10
-7.56
-8.99
-9.80
-9.42
-7.55
-4.28
-0.03
4.70
9.42
13.80
17.67
20.87
23.20
24.35
24.01
21.98
18.36
13.57
8.32
3.41
-0.40
-2.66
-3.32
-2.77
-1.67
-0.71
-0.34
-0.75
-1.80
-3.28
-5.00
-6.88
-8.88
-10.92
-12.78
-14.11
-14.59
-13.96
-12.18
-9.46
-6.27
-3.22
-1.00
-0.02
-0.34
-1.67
-3.49
-5.26
-6.65
-7.55
-7.99
-8.08
-7.80
-7.11
-6.01
-4.61
-3.08
-1.66
-0.52
0.24
0.58
0.53
0.16
-0.39
-0.90
-1.18
-1.19
-0.99
-0.88
-1.13
-1.88
-2.96
-4.08
-4.82
-4.97
-4.64
-4.10
-3.71
-3.69
-3.94
-4.17
-4.03
-3.28
-1.97
-0.44
0.94
1.83
2.15
2.10
2.10
2.58
3.80
5.70
7.88
9.83
11.09
11.49
11.18
10.51
9.88
9.50
9.36
9.18
8.72
7.84
6.66
5.39
4.21
3.16
2.02
0.54
-1.50
-4.03
-6.75
-9.16
-10.79
-11.31
-10.67
-9.15
-7.26
-5.62
-4.72
-4.78
-5.58
-6.70
-7.61
-8.00
-7.92
-7.62
-7.50
-7.89
-8.96
-10.57
-12.38
-13.79
-14.21
-13.23
-10.71
-6.99
-2.65
1.53
5.03
7.54
9.18
10.19
10.82
11.16
11.19
10.88
10.28
9.64
9.40
10.04
11.88
14.91
18.71
22.52
25.43
26.73
26.08
23.65
19.98
15.79
11.80
8.56
6.43
5.57
5.85
6.92
8.17
8.86
8.37
6.44
3.29
-0.42
-3.81
-6.18
-7.15
-6.82
-5.60
-4.12
-2.97
-2.51
-2.86
-3.88
-5.22
-6.48
-7.31
-7.55
-7.30
-6.78
-6.27
-6.07
-6.33
-7.06
-8.16
-9.44
-10.71
-11.86
-12.79
-13.45
-13.77
-13.55
-12.63
-10.91
-8.55
-5.87
-3.33
-1.26
0.22
1.13
1.63
1.79
1.59
1.02
0.24
-0.39
-0.40
0.54
2.41
4.87
7.36
9.34
10.47
10.75
10.42
9.82
9.15
8.39
7.28
5.50
2.88
-0.34
-3.62
-6.32
-7.99
-8.64
-8.70
-8.70
-9.03
-9.71
-10.42
-10.79
-10.70
-10.33
-9.99
-9.97
-10.30
-10.73
-10.91
-10.57
-9.68
-8.54
-7.54
-7.01
-7.08
-7.59
-8.10
-8.18
-7.51
-6.04
-4.09
-2.09
-0.47
0.55
1.01
1.07
0.94
0.75
0.55
0.36
0.23
0.26
0.54
1.02
1.54
1.82
1.59
0.66
-0.94
-3.01
-5.20
-7.08
-8.31
-8.73
-8.41
-7.65
-6.81
-6.18
-5.85
-5.69
-5.46
-4.96
-4.23
-3.54
-3.17
-3.31
-3.87
-4.53
-4.86
-4.66
-3.97
-3.12
-2.51
-2.37
-2.62
-2.95
-3.03
-2.61
-1.81
-0.96
-0.40
-0.21
-0.07
0.63
2.42
5.32
8.73
11.55
12.75
11.90
9.42
6.42
4.04
2.96
3.14
4.06
5.11
6.10
7.21
8.68
10.59
12.56
13.91
14.00
12.71
10.42
8.00
6.42
6.33
7.90
10.74
14.10
17.06
18.90
19.18
17.88
15.39
12.28
9.23
6.80
5.28
4.62
4.52
4.49
4.09
3.08
1.50
-0.36
-2.01
-2.97
-2.93
-1.89
-0.24
1.34
2.16
1.74
0.01
-2.55
-5.20
-7.10
-7.77
-7.26
-6.20
-5.39
-5.57
-6.95
-9.18
-11.57
-13.36
-14.03
-13.39
-11.57
-8.91
-5.95
-3.40
-1.98
-2.30
-4.47
-7.97
-11.72
-14.40
-15.14
-13.84
-11.11
-8.01
-5.56
-4.20
-3.85
-3.96
-3.78
-2.78
-0.73
2.27
5.83
9.43
12.64
15.12
16.67
17.17
16.56
14.86
12.25
8.99
5.45
1.94
-1.39
-4.55
-7.41
-9.70
-10.89
-10.61
-9.00
-6.76
-4.97
-4.49
-5.38
-7.01
-8.37
-8.72
-8.01
-6.79
-5.67
-4.90
-4.25
-3.21
-1.57
0.38
1.89
2.31
1.50
-0.05
-1.47
-2.05
-1.49
-0.05
1.72
3.26
4.22
4.46
4.05
3.08
1.63
-0.13
-2.05
-3.82
-5.15
-5.90
-5.99
-5.71
-5.38
-5.34
-5.75
-6.62
-7.70
-8.70
-9.32
-9.54
-9.51
-9.59
-10.12
-11.19
-12.59
-13.90
-14.66
-14.67
-14.09
-13.35
-12.95
-13.11
-13.76
-14.49
-14.75
-14.17
-12.73
-10.69
-8.57
-6.85
-5.77
-5.32
-5.23
-5.16
-4.82
-4.03
-2.64
-0.61
2.08
5.27
8.58
11.40
13.04
13.00
11.20
8.16
4.72
1.81
0.09
-0.25
0.49
1.78
2.95
3.58
3.47
2.66
1.43
0.27
-0.27
0.38
2.63
6.41
11.16
15.91
19.62
21.55
21.52
19.88
17.36
14.72
12.45
10.70
9.44
8.52
7.84
7.31
6.83
6.46
6.44
7.22
9.32
12.99
17.94
23.33
28.00
30.90
31.50
29.88
26.62
22.53
18.23
14.11
10.35
7.00
4.10
1.58
-0.72
-3.01
-5.57
-8.57
-11.98
-15.43
-18.33
-19.93
-19.74
-17.81
-14.76
-11.71
-9.75
-9.45
-10.53
-12.01
-12.61
-11.45
-8.39
-4.06
0.46
4.26
6.82
8.13
8.48
8.20
7.43
6.20
4.51
2.43
0.21
-1.84
-3.49
-4.73
-5.76
-6.91
-8.50
-10.71
-13.50
-16.60
-19.62
-22.12
-23.68
-23.95
-22.71
-19.94
-15.86
-10.98
-5.89
-1.19
2.69
5.71
7.99
9.75
