1700597504.00
64.000000
-0.00
-0.00
-0.00
-0.00
-0.00
-0.00
-0.00
-0.00
-0.00
-0.01
-0.00
0.00
0.01
0.01
-0.00
-0.03
-0.05
-0.05
-0.00
0.13
0.36
0.66
1.01
1.37
1.72
2.06
2.40
2.77
3.24
3.80
4.42
5.06
5.66
6.20
6.68
7.15
7.64
8.31
9.14
10.09
11.04
11.88
12.56
13.14
13.76
14.58
15.96
17.91
20.32
22.90
25.38
27.58
29.57
31.68
34.20
37.81
42.54
48.15
54.10
59.83
64.97
69.58
74.14
79.19
85.71
93.76
103.00
112.62
121.73
129.77
136.75
144.29
150.58
157.77
166.64
177.95
191.79
206.97
220.57
228.25
225.36
208.38
176.87
132.76
80.04
23.07
-34.93
-92.40
-149.11
-205.20
-260.51
-313.86
-364.11
-410.19
-451.36
-487.01
-516.26
-537.74
-549.72
-550.56
-538.96
-514.90
-479.47
-434.75
-383.35
-327.90
-270.69
-213.48
-157.64
-104.09
-53.78
-7.58
33.71
69.49
99.47
123.70
142.54
156.56
166.48
172.93
176.53
177.77
177.03
174.54
170.45
164.86
157.89
149.80
140.97
131.90
123.09
114.84
107.18
99.85
92.38
84.38
75.71
66.62
57.63
49.36
42.23
36.31
31.29
26.65
21.80
16.20
9.44
1.48
-7.11
-14.85
-19.53
-18.91
-11.65
1.76
18.94
36.32
50.48
59.34
62.63
61.52
57.65
52.38
46.41
40.09
33.85
28.40
24.46
22.36
21.64
21.34
20.34
18.04
14.62
10.95
8.01
6.40
6.21
7.10
8.60
10.28
11.81
12.73
12.56
10.92
7.88
4.11
0.71
-1.35
-1.71
-0.90
-0.01
-0.00
-1.39
-3.78
-6.31
-8.09
-8.62
-7.95
-6.57
-5.13
-4.24
-4.15
-4.78
-5.77
-6.64
-6.95
-6.55
-5.47
-3.92
-2.08
0.04
2.48
5.22
7.98
10.25
11.43
11.17
9.50
6.91
4.06
1.58
-0.14
-0.96
-0.84
0.05
1.56
3.47
5.49
7.41
9.10
10.54
11.77
12.73
13.34
13.55
13.37
12.83
11.97
10.73
8.88
6.27
3.01
-0.62
-4.25
-7.53
-10.36
-12.71
-14.59
-15.92
-16.52
-16.24
-15.17
-13.68
-12.29
-11.49
-11.44
-12.06
-13.04
-14.01
-14.68
-14.79
-14.16
-12.61
-10.14
-6.93
-3.40
-0.13
2.40
3.94
4.59
4.64
4.39
3.93
3.16
1.91
0.22
-1.60
-3.14
-4.00
-4.03
-3.38
-2.36
-1.24
-0.17
0.87
1.89
2.93
3.93
4.81
5.43
5.67
5.37
4.47
3.04
1.28
-0.47
-1.87
-2.75
-3.17
-3.36
-3.62
-4.09
-4.64
-5.14
-5.52
-5.90
-6.59
-8.03
-10.52
-14.13
-18.50
-22.88
-26.36
-28.06
-27.40
-24.29
-19.18
-12.97
-6.65
-0.99
3.71
7.64
11.18
14.60
17.73
20.02
20.90
20.07
17.83
14.90
12.15
10.14
8.94
8.25
7.63
6.87
6.00
5.24
4.78
4.63
4.70
4.76
4.64
4.28
3.69
2.93
2.06
1.13
0.12
-1.00
-2.31
-3.88
-5.76
-7.89
-10.18
-12.48
-14.65
-16.68
-18.64
-20.68
-22.88
-25.08
-26.88
-27.61
-26.63
-23.60
-18.59
-12.15
-5.09
1.72
7.54
11.90
14.64
15.89
15.99
15.41
14.69
14.24
14.33
14.99
16.00
17.05
17.88
18.35
18.50
18.43
18.28
18.08
17.76
17.16
16.07
14.33
11.89
8.93
5.72
2.59
-0.19
-2.55
-4.56
-6.41
-8.29
-10.33
-12.63
-15.24
-18.17
-21.35
-24.70
-28.09
-31.30
-33.95
-35.60
-35.69
-33.70
-29.38
-22.88
-14.79
-6.04
2.33
9.47
14.88
18.43
20.37
21.06
20.96
20.46
19.84
19.22
18.53
17.60
16.23
14.39
12.15
9.84
7.90
6.75
6.70
7.85
10.09
13.02
16.06
18.53
19.87
19.74
18.10
15.24
11.63
7.84
4.29
1.30
-1.02
-2.73
-4.04
-5.25
-6.66
-8.56
-11.14
-14.40
-18.19
-22.16
-25.83
-28.67
-30.17
-29.87
-27.58
-23.39
-17.68
-11.13
-4.42
1.82
7.24
11.68
15.09
17.39
18.53
18.50
17.42
15.57
13.35
11.22
9.51
8.40
7.89
7.87
8.23
8.90
9.83
10.94
12.10
13.10
13.69
13.64
12.83
11.26
9.13
6.77
4.45
2.34
0.39
-1.57
-3.64
-5.84
-8.05
-10.16
-12.19
-14.35
-16.93
-20.08
-23.64
-27.12
-29.83
-31.05
-30.31
-27.45
-22.67
-16.41
-9.32
-2.09
4.60
10.18
14.35
17.04
18.43
18.82
18.51
17.71
16.58
15.27
13.91
12.64
11.53
10.62
9.92
9.42
9.18
9.24
9.63
10.26
10.90
11.34
11.39
11.01
10.25
9.24
7.97
6.42
4.47
2.11
-0.55
-3.25
-5.71
-7.71
-9.22
-10.35
-11.38
-12.59
-14.31
-16.83
-20.26
-24.39
-28.63
-32.11
-34.00
-33.78
-31.40
-27.25
-21.88
-15.80
-9.42
-3.04
2.98
8.24
12.29
14.83
15.76
15.32
13.91
11.99
9.96
8.07
6.47
5.18
4.29
3.87
4.09
5.21
7.28
10.16
13.42
16.40
18.44
19.18
18.62
17.13
15.19
13.18
11.34
9.66
8.07
6.54
5.10
3.84
2.78
1.84
0.76
-0.74
-2.89
-5.70
-8.90
-12.06
-14.79
-16.98
-18.80
-20.63
-22.74
-25.07
-27.13
-28.12
-27.36
-24.50
-19.74
-13.64
-6.94
-0.27
5.91
11.22
15.26
17.66
18.26
17.22
15.13
12.80
11.01
10.23
10.37
11.04
11.70
11.99
11.91
11.72
11.73
12.13
12.79
13.35
13.47
12.92
11.74
10.15
8.51
7.14
6.16
5.53
5.03
4.43
3.52
2.29
0.79
-0.88
-2.75
-4.90
-7.43
-10.29
-13.24
-15.94
-18.05
-19.47
-20.41
-21.28
-22.44
-23.92
-25.37
-26.09
-25.39
-22.88
-18.63
-13.16
-7.18
-1.32
4.03
8.72
12.76
16.20
18.96
20.88
21.81
21.74
20.86
19.58
18.42
17.78
17.82
18.40
19.18
19.75
19.84
19.41
18.67
17.92
17.37
17.08
16.92
16.65
16.07
15.09
13.79
12.29
10.70
9.05
7.13
4.65
1.28
-3.15
-8.51
-14.37
-20.18
-25.48
-30.01
-33.80
-36.97
-39.60
-41.67
-43.16
-44.17
-44.99
-45.87
-46.84
-47.48
-47.05
-44.79
-40.34
-33.96
-26.46
-18.85
-11.98
-6.32
-1.95
1.24
3.37
4.52
4.80
4.44
3.83
3.42
3.61
4.63
6.51
9.07
12.03
15.12
18.13
20.95
23.50
25.78
27.72
29.23
30.18
30.46
30.00
28.75
26.75
24.12
21.02
17.70
14.43
11.46
8.92
6.79
4.98
3.31
1.65
-0.06
-1.76
-3.42
-4.96
-6.39
-7.77
-9.15
-10.60
-12.19
-14.05
-16.34
-19.20
-22.50
-25.71
-27.98
-28.40
-26.38
-21.99
-15.89
-9.09
-2.52
3.34
8.41
12.79
16.51
19.30
20.82
20.86
19.57
17.47
15.22
13.34
12.05
11.24
10.65
10.08
9.52
9.12
9.10
9.57
10.47
11.51
12.39
12.82
12.73
12.20
11.41
10.49
9.49
8.40
7.16
5.79
4.33
2.87
1.45
0.02
-1.51
-3.26
-5.30
-7.59
-9.93
-12.09
-13.84
-15.13
-16.10
-17.06
-18.35
-20.14
-22.37
-24.72
-26.70
-27.81
-27.60
-25.84
-22.52
-17.82
-12.13
-5.97
0.02
5.17
8.94
11.10
11.76
11.39
10.58
9.84
9.45
9.29
9.10
8.59
7.70
6.61
5.65
5.14
5.13
5.51
6.09
6.68
7.23
7.76
8.26
8.63
8.72
8.32
7.32
5.74
3.73
1.52
-0.59
-2.39
-3.75
-4.67
-5.29
-5.84
-6.57
-7.70
-9.34
-11.44
-13.84
-16.29
-18.56
-20.47
-21.91
-22.78
-23.01
-22.43
-20.93
-18.43
-14.98
-10.73
-5.96
-0.99
3.81
8.05
11.42
13.71
14.91
15.15
14.69
13.78
12.58
11.14
9.53
7.90
6.50
5.63
5.51
6.12
7.22
8.41
9.30
9.66
9.45
8.83
8.01
7.20
6.48
5.84
5.12
4.20
2.94
1.36
-0.46
-2.41
-4.43
-6.59
-8.90
-11.29
-13.54
-15.36
-16.61
-17.44
-18.24
-19.50
-21.45
-23.88
-26.15
-27.39
-26.88
-24.28
-19.81
-14.02
-7.67
-1.47
4.06
8.61
12.07
14.47
15.90
16.46
16.25
15.42
14.17
12.74
11.40
10.35
9.63
9.15
8.78
8.38
7.94
7.57
7.42
7.62
8.17
8.92
9.59
9.89
9.61
8.64
7.03
4.97
2.68
0.40
-1.64
-3.31
-4.64
-5.84
-7.26
-9.19
-11.75
-14.74
-17.78
-20.47
-22.59
-24.15
-25.30
-26.12
-26.55
-26.34
-25.16
-22.75
-19.01
-14.08
-8.30
-2.20
3.62
8.61
12.37
14.76
15.90
16.01
15.37
14.18
12.63
10.88
9.20
7.82
6.88
6.40
6.25
6.37
6.68
7.22
7.98
8.83
9.53
9.85
9.61
8.77
7.35
5.47
3.24
0.81
-1.61
-3.80
-5.59
-6.94
-7.97
-8.93
-10.07
-11.52
-13.31
-15.38
-17.65
-20.05
-22.41
-24.40
-25.54
-25.28
-23.22
-19.30
-13.89
-7.57
-1.07
5.04
10.33
14.53
17.50
19.15
19.57
18.97
17.68
16.07
14.49
13.15
12.09
11.20
10.33
9.37
8.33
7.39
6.77
6.64
6.99
7.64
8.29
8.66
8.64
8.26
7.61
6.70
5.45
3.75
1.58
-0.87
-3.29
-5.34
-6.84
-7.90
-8.79
-9.91
-11.59
-13.94
-16.86
-19.97
-22.82
-24.87
-25.74
-25.17
-23.13
-19.72
-15.15
-9.74
-3.87
2.00
7.41
11.91
15.27
17.40
18.44
18.63
18.23
17.45
16.44
15.25
13.93
12.59
11.39
10.47
9.92
9.72
9.81
10.11
10.56
11.09
11.64
12.10
12.25
11.92
11.00
9.54
7.71
5.76
3.88
2.16
0.53
-1.16
-2.99
-4.98
-7.07
-9.17
-11.18
-13.04
-14.82
-16.60
-18.49
-20.52
-22.64
-24.59
-26.01
-26.47
-25.64
-23.42
-19.89
-15.35
-10.14
-4.63
0.90
6.19
10.95
14.93
17.87
19.60
20.14
19.62
18.32
16.53
14.52
12.49
10.67
9.28
8.54
8.61
9.46
10.91
12.53
13.93
14.84
15.20
15.16
14.89
14.44
13.69
12.42
10.46
7.92
5.16
2.66
0.77
-0.42
-1.18
-1.96
-3.16
-4.95
-7.18
-9.52
-11.61
-13.28
-14.60
-15.86
-17.39
-19.43
-21.99
-24.84
-27.46
-29.21
-29.45
-27.78
-24.12
-18.82
-12.48
-5.81
0.54
6.13
10.66
14.00
16.06
16.86
16.57
15.54
14.19
12.97
12.20
11.91
11.93
11.95
11.72
11.20
10.54
10.05
10.02
10.49
11.31
12.20
12.81
12.92
12.40
11.19
9.35
7.02
4.48
2.06
0.06
-1.38
-2.40
-3.25
-4.23
-5.47
-6.87
-8.24
-9.43
-10.51
-11.77
-13.58
-16.14
-19.38
-22.87
-26.05
-28.36
-29.36
-28.85
-26.78
-23.26
-18.45
-12.66
-6.31
0.09
6.00
10.98
14.73
17.17
18.38
18.58
18.01
16.93
15.59
14.15
12.76
11.52
10.55
9.93
9.68
9.77
10.07
10.45
10.84
11.24
11.67
12.10
12.39
12.38
11.90
10.95
9.64
8.15
6.63
5.16
3.72
2.26
0.75
-0.84
-2.53
-4.36
-6.32
-8.32
-10.21
-11.79
-13.01
-13.98
-14.99
-16.47
-18.74
-21.82
-25.38
-28.72
-31.02
-31.63
-30.17
-26.68
-21.53
-15.33
-8.74
-2.41
3.14
7.61
10.95
13.29
14.84
15.80
16.20
16.04
15.30
14.13
12.83
11.75
11.11
10.94
11.04
11.21
11.32
11.42
11.68
12.21
12.96
13.74
14.24
14.19
13.46
12.11
10.34
8.39
6.48
4.70
3.04
1.40
-0.27
-2.03
-3.90
-5.93
-8.17
-10.60
-13.11
-15.47
-17.44
-18.92
-19.99
-20.98
-22.30
-24.26
-26.92
-29.98
-32.88
-34.96
-35.65
-34.67
-32.02
-28.00
-22.98
-17.38
-11.51
-5.61
0.12
5.50
10.31
14.44
17.82
20.44
22.35
23.58
24.15
24.16
23.79
23.32
23.08
23.27
23.95
25.02
26.32
27.63
28.74
29.43
29.52
28.88
27.56
25.76
23.76
21.83
20.04
18.28
16.37
14.18
11.75
9.26
6.89
4.65
2.36
-0.33
-3.70
-7.77
-12.29
-16.70
-20.44
-23.20
-24.95
-25.93
-26.48
-26.95
-27.57
-28.44
-29.50
-30.52
-31.06
-30.60
-28.69
-25.11
-20.05
-13.95
-7.43
-1.01
4.93
10.16
14.51
17.76
19.64
19.96
18.81
16.58
13.92
11.46
9.66
8.67
8.31
8.30
8.43
8.66
9.07
9.78
10.78
11.81
12.51
12.49
11.59
9.92
7.85
5.82
4.19
3.14
2.52
2.05
1.38
0.33
-1.09
-2.64
-4.05
-5.20
-6.20
-7.34
-8.85
-10.72
-12.69
-14.35
-15.43
-15.89
-16.11
-16.57
-17.68
-19.57
-22.04
-24.66
-26.88
-28.20
-28.18
-26.49
-23.00
-17.82
-11.44
-4.60
1.84
7.25
11.26
13.94
15.55
16.39
16.62
16.27
15.32
13.85
12.15
10.57
9.45
8.94
8.95
9.23
9.55
9.83
10.11
10.50
10.99
11.49
11.81
11.78
11.36
10.60
9.62
8.47
7.14
5.59
3.86
2.05
0.27
-1.41
-3.03
-4.71
-6.52
-8.38
-10.08
-11.42
-12.29
-12.83
-13.38
-14.26
-15.67
-17.59
-19.80
-22.05
-24.05
-25.51
-26.04
-25.14
-22.42
-17.73
-11.39
-4.16
2.95
8.98
13.37
16.03
17.29
17.65
17.52
17.01
16.01
14.41
12.30
10.07
8.20
7.07
6.79
7.11
7.69
8.30
8.89
9.59
10.46
11.36
11.96
11.91
11.04
9.44
7.47
5.51
3.78
2.31
0.99
-0.39
-1.99
-3.86
-5.94
-8.02
-9.94
-11.58
-12.92
-14.08
-15.25
-16.67
-18.52
-20.83
-23.42
-25.91
-27.72
-28.28
-27.18
-24.33
-19.96
-14.59
-8.78
-3.05
2.21
6.78
10.49
13.28
15.13
16.10
16.32
15.96
15.17
14.05
12.75
11.41
10.23
9.44
9.21
9.56
10.31
11.12
11.60
11.50
10.83
9.82
8.82
8.10
7.75
7.64
7.50
7.10
6.31
5.13
3.62
1.87
-0.08
-2.21
-4.47
-6.69
-8.68
-10.24
-11.30
-11.97
-12.56
-13.48
-15.11
-17.58
-20.69
-23.86
-26.36
-27.42
-26.55
-23.68
-19.11
-13.41
-7.22
-1.20
4.11
8.32
11.24
12.92
13.59
13.59
13.22
12.71
12.11
11.43
10.66
9.90
9.26
8.92
8.98
9.41
10.06
10.67
11.03
11.06
10.89
10.79
10.95
11.44
11.95
12.05
11.34
9.74
7.53
5.19
3.14
1.50
0.05
-1.55
-3.51
-5.76
-8.01
-10.01
-11.69
-13.23
-14.92
-16.95
-19.28
-21.69
-23.82
-25.35
-26.00
-25.56
-23.86
-20.81
-16.47
-11.10
-5.19
0.61
5.71
9.68
12.40
13.99
14.70
14.78
14.41
13.69
12.75
11.76
10.96
10.57
10.69
11.22
11.97
12.70
13.29
13.71
14.00
14.18
14.15
13.82
13.15
12.16
10.93
9.59
8.18
6.70
5.19
3.64
2.06
0.37
-1.56
-3.85
-6.48
-9.18
-11.56
-13.24
-14.14
-14.56
-15.06
-16.25
-18.34
-21.09
-23.85
-25.82
-26.38
-25.23
-22.44
-18.28
-13.13
-7.40
-1.55
3.96
8.75
12.54
15.27
17.04
18.05
18.49
18.49
18.07
17.23
16.03
14.60
13.19
12.13
11.65
11.83
12.52
13.42
14.14
14.47
14.34
13.90
13.36
12.89
12.51
12.11
11.53
10.65
9.44
7.98
6.37
4.63
2.74
0.64
-1.69
-4.10
-6.36
-8.23
-9.52
-10.31
-10.80
-11.27
-11.96
-12.96
-14.26
-15.84
-17.72
-20.00
-22.68
-25.48
-27.85
-29.00
-28.25
-25.31
-20.38
-14.15
-7.47
-1.14
4.31
8.63
11.79
13.84
14.87
15.02
14.47
13.49
12.35
11.27
10.40
9.84
9.72
10.05
10.77
11.66
12.43
12.85
12.89
12.73
12.58
12.55
12.44
11.94
10.72
8.71
6.19
3.66
1.58
0.16
-0.70
-1.30
-1.92
-2.72
-3.68
-4.74
-5.90
-7.19
-8.66
-10.29
-11.96
-13.53
-14.92
-16.20
-17.51
-19.03
-20.83
-22.79
-24.58
-25.72
-25.76
-24.39
-21.59
-17.58
-12.73
-7.49
-2.22
2.79
7.30
11.02
13.70
15.16
15.43
14.73
13.42
11.90
10.45
9.25
8.37
7.83
7.63
7.70
7.98
8.37
8.84
9.38
10.01
10.66
11.18
11.30
10.78
9.55
7.74
5.70
3.78
2.24
1.14
0.35
-0.31
-1.10
-2.22
-3.76
-5.69
-7.79
-9.80
-11.54
-13.04
-14.46
-16.05
-17.94
-20.08
-22.25
-24.11
-25.34
-25.66
-24.91
-23.03
-20.10
-16.32
-11.98
-7.44
-2.95
1.35
5.46
9.29
12.67
15.32
16.96
17.52
17.13
16.10
14.77
13.37
12.02
10.77
9.74
9.11
9.07
9.69
10.86
12.21
13.33
13.87
13.72
13.01
12.01
10.95
9.94
8.93
7.80
6.48
4.95
3.28
1.56
-0.15
-1.81
-3.42
-4.99
-6.52
-8.02
-9.48
-10.89
-12.19
-13.36
-14.45
-15.53
-16.80
-18.41
-20.46
-22.83
-25.18
-26.95
-27.57
-26.59
-23.84
-19.49
-14.03
-8.05
-2.19
3.07
7.42
10.82
13.30
15.00
16.05
16.51
16.45
15.95
15.16
14.27
13.42
12.68
12.03
11.41
10.88
10.58
10.68
11.30
12.35
13.56
14.55
15.06
14.95
14.30
13.27
11.98
10.47
8.69
6.62
4.37
2.15
0.22
-1.25
-2.17
-2.75
-3.28
-4.08
-5.31
-6.89
-8.55
-9.96
-10.98
-11.76
-12.73
-14.34
-16.83
-20.10
-23.71
-27.01
-29.37
-30.40
-29.95
-28.11
-25.07
-21.09
-16.41
-11.30
-6.01
-0.84
3.84
7.63
10.13
11.10
10.54
8.74
6.29
3.74
1.58
-0.01
-1.13
-2.02
-2.97
-4.13
-5.57
-7.29
-9.29
-11.58
-14.16
-17.04
-20.23
-23.77
-27.63
-31.77
-36.10
-40.51
-45.04
-49.81
-55.00
-60.82
-67.33
-74.44
-81.89
-89.37
-96.63
-103.48
-109.82
-115.52
-120.46
-124.57
-127.84
-130.27
-131.59
-131.04
-127.48
-119.53
-106.17
-87.06
-62.85
-35.08
-5.85
22.48
47.64
67.70
81.25
87.49
86.55
79.67
69.20
58.39
50.66
48.70
53.58
64.31
78.03
90.99
99.74
102.24
98.26
89.21
77.47
65.72
56.39
51.41
52.01
58.52
70.18
85.19
100.96
114.77
124.45
128.92
128.33
123.89
117.33
110.34
104.14
99.20
95.35
91.95
88.17
83.22
76.41
67.41
56.33
43.90
31.38
20.33
12.16
7.60
6.51
8.05
11.16
14.98
19.13
23.58
28.35
33.33
38.35
43.39
48.73
54.91
62.37
71.07
80.21
88.39
93.97
95.66
93.12
87.06
79.31
72.26
68.24
68.62
72.99
78.79
81.64
76.39
58.95
28.02
-13.94
-61.07
-105.89
-141.67
-164.48
-174.05
-173.05
-165.36
-154.44
-142.29
-129.70
-117.04
-105.01
-94.86
-87.64
-83.35
-80.41
-75.96
-67.14
-52.40
-32.34
-9.57
12.37
30.42
43.02
50.15
52.83
52.21
49.19
44.34
38.25
31.64
25.16
19.05
13.04
6.67
-0.18
-6.84
-12.05
-14.55
-13.72
-9.73
-3.08
6.06
18.19
34.08
53.93
76.42
98.62
116.68
127.14
128.19
120.35
106.09
88.78
71.52
56.21
43.44
32.89
23.97
16.36
10.09
5.34
2.05
-0.26
-2.49
-5.53
-9.94
-15.74
-22.40
-29.08
-35.02
-39.79
-43.38
-46.17
-48.66
-51.21
-53.92
-56.60
-59.00
-61.00
-62.71
-64.33
-66.09
-67.99
-69.89
-71.60
-72.99
-74.09
-74.93
-75.54
-75.82
-75.63
-74.81
-73.22
-70.85
-67.69
-63.82
-59.50
-55.06
-50.93
-47.40
-44.62
-42.55
-41.10
-40.17
-39.77
-39.88
-40.39
-41.15
-42.03
-43.09
-44.58
-46.79
-49.72
-52.86
-55.20
-55.54
-53.05
-47.66
-40.11
-31.61
-23.38
-16.24
-10.53
-6.25
-3.25
-1.47
-0.84
-1.28
-2.60
-4.61
-7.10
-9.95
-13.00
-16.02
-18.72
-20.92
-22.68
-24.47
-26.95
-30.67
-35.64
-41.12
-45.63
-47.35
-44.59
-36.25
-22.41
-4.29
15.87
35.41
51.98
64.17
71.81
75.83
77.70
78.87
80.32
82.41
85.03
87.76
90.08
91.43
91.26
89.14
84.88
78.72
71.25
63.29
55.62
48.70
42.56
36.90
31.27
25.34
19.06
12.69
6.66
1.46
-2.53
-5.15
-6.53
-7.09
-7.40
-8.02
-9.26
-11.18
-13.59
-16.26
-18.98
-21.75
-24.68
-27.94
-31.70
-35.96
-40.55
-45.05
-48.83
-51.12
-51.18
-48.62
-43.53
-36.52
-28.44
-20.16
-12.19
-4.79
1.91
7.72
12.26
15.13
16.16
15.56
13.82
11.49
9.07
6.72
4.49
2.35
0.44
-1.04
-1.84
-1.85
-1.21
-0.28
0.46
0.60
-0.09
-1.57
-3.57
-5.79
-7.94
-9.99
-12.06
-14.44
-17.40
-21.03
-25.30
-29.92
-34.48
-38.44
-41.16
-41.95
-40.24
-35.79
-28.86
-20.28
-11.15
-2.59
4.67
10.38
14.69
17.89
20.18
21.57
21.88
20.96
18.83
15.69
11.96
8.21
4.98
2.68
1.52
1.36
1.88
2.60
3.21
3.54
3.62
3.47
3.08
2.29
0.92
-1.04
-3.42
-5.88
-8.15
-10.20
-12.27
-14.69
-17.66
-21.04
-24.25
-26.45
-26.82
-24.88
-20.64
-14.69
-7.85
-0.92
5.57
11.32
16.20
20.03
22.60
23.78
23.63
22.51
20.96
19.53
18.46
17.69
16.95
15.93
14.53
12.87
11.12
9.33
7.31
4.76
1.45
-2.51
-6.66
-10.35
-13.05
-14.59
-15.29
-15.76
-16.61
-18.17
-20.44
-23.11
-25.80
-28.20
-30.10
-31.32
-31.61
-30.62
-28.03
-23.65
-17.61
-10.31
-2.45
5.22
12.03
17.55
21.62
24.24
25.52
25.57
24.44
22.24
19.16
15.54
11.84
8.48
5.81
4.03
3.11
2.86
3.00
3.15
3.06
2.56
1.71
0.70
-0.29
-1.13
-1.84
-2.52
-3.36
-4.55
-6.26
-8.60
-11.63
-15.23
-19.03
-22.41
-24.53
-24.70
-22.54
-18.21
-12.36
-5.91
0.36
5.97
10.76
14.74
17.92
20.23
21.54
21.83
21.25
20.09
18.61
16.99
15.21
13.18
10.86
8.34
5.87
3.73
2.09
0.94
0.05
-0.83
-1.93
-3.33
-4.88
-6.33
-7.38
-7.90
-7.96
-7.89
-8.18
-9.30
-11.50
-14.70
-18.40
-21.78
-23.93
-24.09
-21.88
-17.47
-11.53
-4.96
1.40
6.97
11.62
15.48
18.78
21.64
24.00
25.65
26.41
26.17
24.92
22.81
19.99
16.66
13.10
9.62
6.64
4.49
3.36
3.19
3.63
4.19
4.32
3.64
2.01
-0.39
-3.14
-5.74
-7.79
-9.14
-9.96
-10.72
-11.92
-13.94
-16.83
-20.25
-23.53
-25.84
-26.39
-24.65
-20.51
-14.31
-6.74
1.30
8.97
15.61
20.85
24.57
26.84
27.84
27.75
26.75
25.06
22.87
20.40
17.87
15.47
13.28
11.36
9.66
8.18
6.89
5.81
4.90
4.10
3.29
2.40
1.39
0.29
-0.80
-1.82
-2.77
-3.78
-5.06
-6.90
-9.49
-12.92
-17.02
-21.42
-25.48
-28.45
-29.58
-28.33
-24.58
-18.67
-11.32
-3.40
4.25
11.03
16.55
20.68
23.40
24.79
25.04
24.41
23.22
21.81
20.31
18.68
16.72
14.23
11.22
7.95
4.92
2.63
1.38
1.16
1.64
2.34
2.77
2.65
1.94
0.75
-0.73
-2.35
-4.05
-5.81
-7.61
-9.40
-11.15
-12.87
-14.64
-16.46
-18.22
-19.52
-19.82
-18.55
-15.42
-10.51
-4.35
2.30
8.67
14.17
18.46
21.39
22.97
23.25
22.35
20.47
17.88
14.98
12.10
9.57
7.54
5.98
4.73
3.60
2.47
1.41
0.57
0.11
0.05
0.20
0.30
0.10
-0.50
-1.43
-2.63
-4.04
-5.74
-7.82
-10.33
-13.21
-16.29
-19.33
-22.05
-24.12
-25.20
-24.92
-23.00
-19.33
-14.12
-7.84
-1.14
5.32
10.96
15.45
18.63
20.51
21.22
20.93
19.86
18.24
16.27
14.12
11.85
9.54
7.25
5.12
3.36
2.16
1.63
1.63
1.89
2.00
1.64
0.65
-0.92
-2.83
-4.81
-6.65
-8.28
-9.73
-11.13
-12.63
-14.37
-16.48
-18.96
-21.69
-24.25
-26.03
-26.31
-24.49
-20.34
-14.10
-6.47
1.53
8.90
14.90
19.19
21.87
23.26
23.67
23.35
22.40
20.86
18.80
16.33
13.63
10.86
8.20
5.85
4.01
2.89
2.61
3.04
3.84
4.47
4.45
3.58
1.93
-0.15
-2.18
-3.82
-4.88
-5.44
-5.72
-6.08
-6.97
-8.72
-11.44
-14.88
-18.44
-21.29
-22.64
-21.94
-19.02
-14.11
-7.69
-0.40
7.12
14.18
20.20
24.64
27.14
27.61
26.30
23.77
20.70
17.69
15.05
12.80
10.77
8.74
6.68
4.67
2.98
1.79
1.14
0.90
0.80
0.53
-0.05
-0.95
-2.04
-3.16
-4.26
-5.37
-6.64
-8.18
-10.05
-12.14
-14.30
-16.40
-18.35
-20.05
-21.27
-21.60
-20.52
-17.63
-12.96
-7.01
-0.69
5.09
9.69
12.93
14.98
16.16
16.69
16.57
15.75
14.21
12.12
9.78
7.51
5.47
3.65
1.92
0.10
-1.82
-3.71
-5.29
-6.29
-6.58
-6.29
-5.79
-5.54
-5.91
-6.97
-8.56
-10.35
-12.16
-14.03
-16.20
-18.90
-22.04
-25.19
-27.59
-28.50
-27.39
-24.10
-18.92
-12.41
-5.30
1.69
7.99
13.22
17.19
19.81
21.04
20.88
19.44
17.05
14.16
11.27
8.70
6.51
4.57
2.73
1.00
-0.43
-1.32
-1.63
-1.57
-1.51
-1.74
-2.37
-3.26
-4.17
-5.02
-5.98
-7.37
-9.46
-12.36
-15.88
-19.64
-23.26
-26.32
-28.48
-29.33
-28.49
-25.65
-20.75
-14.06
-6.18
2.11
10.00
16.82
22.18
25.92
28.07
28.76
28.17
26.55
24.12
21.15
17.93
14.77
11.96
9.73
8.24
7.45
7.22
7.27
7.30
7.07
6.43
5.33
3.81
2.00
0.08
-1.83
-3.63
-5.34
-7.08
-9.07
-11.53
-14.63
-18.28
-22.14
-25.57
-27.81
-28.16
-26.22
-21.95
-15.70
-8.03
0.38
8.87
16.86
23.86
29.41
33.10
34.70
34.20
31.87
28.27
24.15
20.22
17.02
14.77
13.40
12.63
12.19
11.90
11.70
11.60
11.54
11.38
10.89
9.88
8.25
6.09
3.64
1.18
-1.11
-3.19
-5.19
-7.29
-9.63
-12.28
-15.28
-18.56
-22.02
-25.35
-28.02
-29.30
-28.50
-25.20
-19.49
-11.99
-3.74
4.18
10.91
16.02
19.46
21.43
22.14
21.78
20.43
18.21
15.33
12.17
9.10
6.49
4.49
3.07
2.08
1.40
1.02
0.98
1.34
2.01
2.72
3.16
3.03
2.20
0.73
-1.20
-3.33
-5.39
-7.20
-8.74
-10.15
-11.79
-14.03
-17.16
-21.17
-25.70
-30.03
-33.31
-34.74
-33.85
-30.55
-25.13
-18.11
-10.14
-1.84
6.21
13.48
19.50
23.96
26.67
27.62
26.98
25.02
22.18
18.91
15.72
12.99
10.99
9.72
9.05
8.75
8.63
8.57
8.55
8.55
8.52
8.34
7.82
6.84
5.29
3.16
0.55
-2.32
-5.15
-7.64
-9.66
-11.31
-12.92
-14.90
-17.56
-20.99
-25.00
-29.21
-33.07
-36.01
-37.42
-36.81
-33.85
-28.53
-21.20
-12.52
-3.38
5.39
13.15
19.47
24.22
27.42
29.21
29.77
29.25
27.83
25.69
23.08
20.36
17.92
16.06
14.94
14.51
14.59
14.99
15.52
16.10
16.67
17.16
17.40
17.20
16.42
15.03
13.19
11.09
8.86
6.49
3.90
1.04
-2.02
-5.01
-7.65
-9.77
-11.44
-12.96
-14.73
-17.04
-20.06
-23.70
-27.74
-31.80
-35.32
-37.64
-37.96
-35.75
-30.81
-23.45
-14.47
-4.84
4.50
12.86
19.77
24.99
28.35
29.85
29.64
28.10
25.80
23.34
21.20
19.58
18.42
17.49
16.61
15.72
14.98
14.64
14.86
15.59
16.57
17.41
17.75
17.39
16.32
14.64
12.58
10.30
7.95
5.61
3.30
1.05
-1.14
-3.26
-5.34
-7.39
-9.42
-11.40
-13.29
-15.09
-16.92
-19.03
-21.72
-25.22
-29.42
-33.78
-37.41
-39.25
-38.52
-34.91
-28.72
-20.71
-11.78
-2.78
5.67
13.08
19.01
23.11
25.18
25.27
23.86
21.65
19.40
17.66
16.61
16.09
15.77
15.30
14.52
13.48
12.36
11.42
10.86
10.80
11.22
12.00
12.88
13.59
13.83
13.39
12.18
10.22
7.70
4.89
2.12
-0.35
-2.43
-4.23
-5.95
-7.83
-9.95
-12.23
-14.51
-16.63
-18.56
-20.41
-22.39
-24.72
-27.57
-30.97
-34.79
-38.68
-42.03
-44.09
-44.07
-41.47
-36.19
-28.67
-19.76
-10.46
-1.68
6.01
12.36
17.44
21.39
24.33
26.31
27.31
27.31
26.40
24.77
22.73
20.62
18.73
17.25
16.29
15.85
15.94
16.55
17.62
18.96
20.32
21.35
21.74
21.27
19.96
17.96
15.60
13.19
10.94
8.97
7.27
5.77
4.36
2.94
1.43
-0.26
-2.19
-4.42
-6.93
-9.62
-12.34
-14.87
-17.00
-18.71
-20.06
-21.33
-22.83
-24.89
-27.65
-31.10
-34.99
-38.81
-41.86
-43.32
-42.36
-38.44
-31.58
-22.44
-12.18
-2.10
6.83
14.13
19.82
24.11
27.12
28.85
29.17
28.08
25.86
23.02
20.13
17.64
15.74
14.45
13.70
13.42
13.56
14.08
14.88
15.79
16.62
17.13
17.14
16.56
15.44
13.93
12.20
10.42
8.61
6.74
4.74
2.57
0.20
-2.31
-4.88
-7.40
-9.78
-11.95
-13.90
-15.71
-17.46
-19.23
-21.05
-22.86
-24.66
-26.54
-28.65
-31.22
-34.32
-37.77
-41.03
-43.29
-43.72
-41.67
-36.94
-29.83
-21.04
-11.48
-2.08
6.48
13.78
19.60
23.89
26.58
27.67
27.26
25.59
23.10
20.35
17.81
15.79
14.27
13.07
12.02
11.06
10.38
10.23
10.83
12.13
13.83
15.49
16.66
17.12
16.81
15.85
14.41
12.59
10.47
8.09
5.53
2.94
0.45
-1.83
-3.91
-5.87
-7.87
-10.05
-12.44
-14.99
-17.52
-19.82
-21.75
-23.31
-24.69
-26.24
-28.37
-31.36
-35.18
-39.43
-43.31
-45.75
-45.76
-42.69
-36.55
-27.97
-17.99
-7.79
1.68
9.87
16.56
21.74
25.49
27.86
28.85
28.50
26.90
24.30
21.10
17.81
14.97
12.99
12.09
12.20
13.03
14.22
15.42
16.45
17.24
17.77
17.99
17.81
17.15
16.09
14.78
13.44
12.23
11.06
9.75
8.05
5.80
3.04
-0.01
-3.09
-5.97
-8.50
-10.69
-12.55
-14.14
-15.44
-16.54
-17.62
-19.04
-21.23
-24.54
-28.99
-34.14
-39.13
-42.87
-44.32
-42.87
-38.46
-31.53
-22.88
-13.37
-3.80
5.19
13.12
19.63
24.50
27.70
29.33
29.65
28.96
27.56
25.78
23.80
21.81
19.89
18.09
16.47
15.14
14.27
14.02
14.42
15.33
16.48
17.51
18.14
18.22
17.75
16.80
15.48
13.89
12.13
10.26
8.30
6.23
3.96
1.40
-1.50
-4.69
-8.00
-11.24
-14.21
-16.85
-19.22
-21.45
-23.76
-26.34
-29.25
-32.37
-35.32
-37.48
-38.09
-36.56
-32.63
-26.57
-19.04
-10.91
-2.96
4.30
10.58
15.81
19.85
22.54
23.74
23.42
21.78
19.22
16.20
13.14
10.36
8.03
6.29
5.21
4.84
5.12
5.88
6.84
7.65
8.06
7.94
7.37
6.56
5.73
4.92
3.98
2.59
0.50
-2.30
-5.55
-8.79
-11.60
-13.89
-15.82
-17.78
-20.14
-23.14
-26.78
-30.85
-34.99
-38.67
-41.19
-41.80
-39.90
-35.17
-27.87
-18.75
-8.91
0.51
8.67
15.14
19.93
23.27
25.42
26.56
26.73
25.97
24.38
22.18
19.70
17.29
15.20
13.55
12.41
11.81
11.79
12.32
13.27
14.33
15.13
15.41
15.03
14.11
12.86
11.47
10.06
8.58
6.98
5.20
3.29
1.31
-0.65
-2.54
-4.43
-6.41
-8.67
-11.36
-14.60
-18.41
-22.60
-26.76
-30.26
-32.31
-32.20
-29.48
-24.11
-16.56
-7.65
1.64
10.39
17.95
23.97
28.36
31.17
32.52
32.60
31.60
29.83
27.62
25.29
23.11
21.23
19.68
18.46
17.54
16.93
16.69
16.86
17.44
18.29
19.18
19.78
19.75
18.92
17.29
15.09
12.63
10.18
7.85
5.57
3.21
0.66
-1.98
-4.51
-6.67
-8.26
-9.28
-9.88
-10.36
-11.04
-12.29
-14.46
-17.83
-22.52
-28.29
-34.44
-39.88
-43.36
-43.84
-40.91
-34.81
-26.42
-16.86
-7.22
1.64
9.16
14.95
18.77
20.51
20.27
18.43
15.56
12.30
9.16
6.34
3.84
1.56
-0.46
-2.00
-2.74
-2.38
-0.95
1.23
3.58
5.49
6.58
6.80
6.39
5.70
5.01
4.39
3.75
2.90
1.69
0.10
-1.80
-3.86
-5.93
-7.94
-9.88
-11.79
-13.77
-15.94
-18.42
-21.38
-24.89
-28.83
-32.75
-35.86
-37.15
-35.72
-31.12
-23.57
-13.94
-3.48
6.57
15.22
21.88
26.31
28.46
28.45
26.59
23.37
19.48
15.64
12.45
10.26
9.08
8.70
8.82
9.18
9.60
10.01
10.34
10.48
10.33
9.81
8.90
7.70
6.41
5.31
4.64
4.47
4.68
4.93
4.81
3.98
2.28
-0.21
-3.27
-6.58
-9.93
-13.16
-16.20
-19.05
-21.72
-24.26
-26.79
-29.43
-32.21
-34.91
-36.95
-37.51
-35.77
-31.32
-24.32
-15.52
-6.07
2.92
10.68
16.88
21.64
25.22
27.83
29.53
30.28
30.03
28.93
27.21
25.24
23.27
21.43
19.72
18.05
16.40
14.87
13.70
13.16
13.40
14.33
15.60
16.72
17.25
16.95
15.84
14.16
12.16
10.10
8.10
6.23
4.51
2.97
1.60
0.39
-0.74
-1.85
-2.95
-4.05
-5.16
-6.38
-7.94
-10.03
-12.67
-15.61
-18.36
-20.41
-21.46
-21.59
-21.21
-20.94
-21.32
-22.69
-25.14
-28.55
-32.52
-36.48
-39.62
-41.03
-39.93
-35.93
-29.18
-20.40
-10.61
-0.88
7.94
15.28
20.86
24.59
26.48
26.67
25.43
23.15
20.32
17.40
14.72
12.44
10.64
9.31
8.47
8.12
8.18
8.38
8.38
7.78
6.40
4.32
1.93
-0.23
-1.73
-2.47
-2.69
-2.93
-3.75
-5.51
-8.22
-11.63
-15.39
-19.13
-22.66
-25.87
-28.87
-31.92
-35.46
-39.96
-45.64
-52.10
-58.13
-61.79
-60.89
-53.78
-40.05
-20.84
1.34
23.45
42.74
57.53
67.37
72.84
74.97
74.84
73.21
70.51
66.99
62.76
57.97
52.68
46.93
40.71
34.09
27.21
20.40
14.13
8.96
5.35
3.55
3.41
4.38
5.59
6.18
5.53
3.50
0.39
-3.34
-7.23
-11.09
-14.85
-18.58
-22.23
-25.63
-28.53
-30.75
-32.26
-33.23
-34.09
-35.37
-37.64
-41.29
-46.27
-52.03
-57.48
-61.24
-62.05
-59.16
-52.59
-43.05
-31.70
-19.79
-8.32
2.02
10.78
17.60
22.21
24.49
24.62
23.17
20.96
18.84
17.41
16.81
16.76
16.84
16.71
16.29
15.75
15.37
15.35
15.68
16.18
16.53
16.47
15.85
14.74
13.33
11.96
10.78
9.83
8.88
7.60
5.69
3.01
-0.36
-4.16
-8.11
-11.98
-15.56
-18.73
-21.43
-23.73
-25.85
-28.11
-30.83
-34.08
-37.64
-40.98
-43.30
-43.86
-42.04
-37.57
-30.60
-21.68
-11.62
-1.36
8.29
16.73
23.65
28.97
32.69
34.82
35.35
34.36
32.13
29.10
25.87
22.96
20.73
19.28
18.50
18.20
18.21
18.43
18.82
19.29
19.73
19.90
19.58
18.62
17.00
14.88
12.53
10.23
8.23
6.59
5.25
3.98
2.49
0.48
-2.25
-5.75
-9.80
-14.02
-17.95
-21.19
-23.58
-25.25
-26.54
-27.90
-29.73
-32.27
-35.49
-39.10
-42.50
-44.89
-45.39
-43.23
-38.01
-29.89
-19.58
-8.22
2.99
12.98
21.07
27.00
30.80
32.66
32.84
31.64
29.37
26.40
23.13
19.98
17.30
15.34
14.24
14.01
14.57
15.79
17.46
19.31
21.01
22.20
22.60
22.06
20.63
18.57
16.24
13.98
11.99
10.26
8.63
6.92
5.01
2.87
0.53
-2.01
-4.79
-7.86
-11.15
-14.47
-17.50
-19.96
-21.71
-22.77
-23.43
-24.12
-25.32
-27.47
-30.80
-35.22
-40.19
-44.80
-47.94
-48.58
-46.11
-40.45
-32.10
-21.93
-10.94
-0.08
9.86
18.30
24.85
29.29
31.64
32.11
31.15
29.30
27.08
24.90
22.94
21.25
19.76
18.50
17.58
17.17
17.40
18.24
19.47
20.72
21.70
22.24
22.31
21.94
21.15
19.98
18.44
16.68
14.86
13.17
11.65
10.13
8.40
6.23
3.64
0.89
-1.65
-3.69
-5.26
-6.70
-8.51
-11.02
-14.24
-17.74
-20.94
-23.36
-24.84
-25.70
-26.47
-27.79
-30.11
-33.58
-37.92
-42.44
-46.13
-47.87
-46.74
-42.36
-34.99
-25.48
-14.99
-4.61
4.91
13.10
19.77
24.85
28.25
29.96
30.07
28.85
26.68
24.00
21.26
18.80
16.86
15.53
14.80
14.60
14.87
15.52
16.42
17.44
18.36
18.99
19.22
19.03
18.48
17.62
16.44
14.90
12.97
10.73
8.37
6.12
4.14
2.49
1.06
-0.28
-1.68
-3.21
-4.95
-6.93
-9.22
-11.81
-14.62
-17.44
-19.99
-22.07
-23.69
-25.07
-26.61
-28.75
-31.73
-35.45
-39.38
-42.65
-44.22
-43.17
-39.07
-32.11
-23.06
-13.02
-3.05
6.05
13.84
20.12
24.81
27.86
29.24
29.09
27.71
25.59
23.17
20.81
18.72
16.97
15.60
14.72
14.42
14.69
15.42
16.33
17.15
17.70
17.93
17.97
17.92
17.82
17.57
17.01
16.05
14.72
13.17
11.56
9.95
8.24
6.26
3.88
1.13
-1.74
-4.42
-6.66
-8.45
-9.90
-11.23
-12.59
-14.03
-15.54
-17.05
-18.60
-20.26
-22.17
-24.45
-27.18
-30.24
-33.32
-35.87
-37.15
-36.41
-33.06
-26.98
-18.52
-8.52
2.03
12.17
21.19
28.69
34.49
38.53
40.85
41.62
41.06
39.51
37.28
34.58
31.60
28.49
25.45
22.74
20.62
19.27
18.65
18.57
18.72
18.82
18.68
18.21
17.40
16.17
14.50
12.35
9.82
7.12
4.52
2.23
0.29
-1.35
-2.90
-4.56
-6.47
-8.70
-11.16
-13.73
-16.24
-18.58
-20.76
-22.88
-25.11
-27.57
-30.28
-33.21
-36.30
-39.52
-42.87
-46.26
-49.36
-51.60
-52.26
-50.73
-46.71
-40.44
-32.59
-24.08
-15.71
-8.04
-1.30
4.40
8.98
12.31
14.25
14.80
14.14
12.64
10.72
8.74
6.94
5.40
4.14
3.15
2.51
2.37
2.91
4.22
6.22
8.59
10.82
12.39
12.98
12.56
11.45
10.06
8.72
7.51
6.31
4.88
3.09
0.90
-1.61
-4.34
-7.21
-10.12
-12.99
-15.67
-18.03
-20.06
-21.88
-23.84
-26.30
-29.50
-33.31
-37.15
-40.05
-40.92
-39.01
-34.13
-26.82
-18.04
-8.91
-0.29
7.35
13.83
19.20
23.38
26.25
27.62
27.38
25.63
22.74
19.27
15.83
12.89
10.66
9.17
8.28
7.86
7.87
8.36
9.37
10.76
12.26
13.41
13.85
13.39
12.17
10.51
8.75
7.08
5.47
3.74
1.67
-0.82
-3.65
-6.63
-9.48
-12.05
-14.28
-16.27
-18.17
-20.12
-22.24
-24.63
-27.39
-30.62
-34.31
-38.15
-41.47
-43.26
-42.53
-38.57
-31.34
-21.57
-10.56
0.25
9.68
17.14
22.62
26.45
28.98
30.34
30.48
29.30
26.92
23.75
20.41
17.54
15.59
14.60
14.37
14.55
14.89
15.30
15.84
16.58
17.49
18.36
18.87
18.77
17.97
16.56
14.81
12.97
11.20
9.47
7.67
5.64
3.28
0.65
-2.20
-5.15
-8.14
-11.05
-13.80
-16.24
-18.28
-19.99
-21.66
-23.77
-26.75
-30.75
-35.40
-39.81
-42.76
-43.15
-40.35
-34.40
-26.00
-16.16
-5.95
3.78
12.45
19.69
25.30
29.19
31.45
32.26
31.96
30.87
29.26
27.32
25.15
22.88
20.67
18.75
17.27
16.36
15.98
16.05
16.43
16.98
17.62
18.19
18.51
18.36
17.57
16.09
14.04
11.71
9.38
7.25
5.34
3.45
1.30
-1.31
-4.43
-7.90
-11.36
-14.48
-17.03
-19.08
-20.89
-22.81
-25.15
-28.05
-31.47
-35.22
-39.01
-42.38
-44.72
-45.32
-43.56
-39.12
-32.19
-23.44
-13.80
-4.26
4.42
11.81
17.67
21.91
24.48
25.44
24.99
23.44
21.24
18.82
16.52
14.55
13.05
12.08
11.64
11.59
11.75
11.96
12.12
12.28
12.54
13.00
13.62
14.16
14.30
13.78
12.53
10.67
8.51
6.33
4.25
2.15
-0.26
-3.22
-6.77
-10.66
-14.39
-17.49
-19.69
-21.14
-22.30
-23.79
-26.08
-29.41
-33.65
-38.38
-42.93
-46.51
-48.27
-47.43
-43.54
-36.59
-27.14
-16.18
-4.89
5.63
14.62
21.67
26.68
29.77
31.13
31.00
29.73
27.69
25.27
22.85
20.67
18.90
17.60
16.75
16.35
16.37
16.77
17.45
18.26
18.99
19.44
19.47
19.00
18.07
16.74
15.11
13.27
11.35
9.44
7.58
5.73
3.71
1.30
-1.68
-5.22
-9.10
-12.91
-16.20
-18.71
-20.52
-21.99
-23.62
-25.94
-29.21
-33.43
-38.27
-43.12
-47.10
-49.23
-48.59
-44.67
-37.55
-27.93
-16.93
-5.78
4.50
13.31
20.41
25.81
29.58
31.76
32.37
31.52
29.41
26.42
23.04
19.77
17.02
15.07
13.95
13.52
13.52
13.67
13.81
13.92
14.06
14.29
14.54
14.62
14.30
13.40
11.89
9.94
7.80
5.64
3.54
1.40
-0.93
-3.52
-6.32
-9.18
-11.92
-14.47
-16.84
-19.07
-21.22
-23.32
-25.44
-27.72
-30.35
-33.50
-37.12
-40.90
-44.19
-46.19
-46.07
-43.25
-37.55
-29.22
-19.01
-7.97
2.75
12.16
19.56
24.69
27.61
28.53
27.78
25.68
22.64
19.19
15.96
13.55
12.29
12.10
12.56
13.17
13.57
13.77
14.05
14.80
16.19
18.08
20.06
21.60
22.30
22.04
20.94
19.26
17.32
15.29
13.20
10.95
8.41
5.52
2.37
-0.83
-3.80
-6.41
-8.64
-10.73
-13.00
-15.76
-19.18
-23.26
-27.75
-32.18
-35.87
-37.94
-37.57
-34.18
-27.65
-18.45
-7.56
3.83
14.52
23.63
30.67
35.47
38.09
38.71
37.61
35.13
31.76
28.04
24.50
21.56
19.37
17.86
16.87
16.18
15.76
15.61
15.78
16.22
16.72
17.03
16.87
16.09
14.69
12.82
10.64
8.33
5.93
3.40
0.68
-2.28
-5.45
-8.71
-11.92
-14.93
-17.79
-20.63
-23.73
-27.38
-31.72
-36.65
-41.74
-46.26
-49.40
-50.34
-48.50
-43.71
-36.18
-26.50
-15.55
-4.28
6.42
15.86
23.55
29.20
32.68
34.01
33.32
30.96
27.43
23.36
19.37
15.99
13.51
11.98
11.28
11.22
11.58
12.20
12.94
13.62
14.08
14.20
13.91
13.18
11.97
10.19
7.82
4.83
1.34
-2.45
-6.28
-9.94
-13.30
-16.34
-19.12
-21.71
-24.30
-27.15
-30.56
-34.74
-39.64
-44.73
-49.05
-51.38
-50.64
-46.27
-38.40
-27.83
-15.80
-3.62
7.62
17.24
24.95
30.71
34.57
36.57
36.70
35.04
31.88
27.75
23.37
19.47
16.52
14.69
13.86
13.75
14.13
14.83
15.71
16.56
17.05
16.82
15.65
13.59
10.99
8.29
5.81
3.55
1.22
-1.54
-5.00
-9.09
-13.47
-17.67
-21.34
-24.40
-27.09
-29.86
-33.18
-37.37
-42.35
-47.58
-52.10
-54.65
-54.08
-49.64
-41.30
-29.76
-16.31
-2.45
10.55
21.78
30.82
37.54
42.01
44.34
44.71
43.45
41.03
38.00
34.84
31.92
29.39
27.29
25.63
24.47
23.90
23.99
24.70
25.79
26.89
27.63
27.74
27.12
25.78
23.84
21.39
18.57
15.53
12.43
9.42
6.56
3.75
0.75
-2.70
-6.72
-11.20
-15.73
-19.84
-23.13
-25.52
-27.27
-28.96
-31.19
-34.43
-38.87
-44.37
-50.52
-56.60
-61.62
-64.43
-63.88
-59.21
-50.27
-37.77
-23.10
-7.92
6.26
18.46
28.27
35.73
40.97
44.04
44.91
43.68
40.73
36.77
32.66
29.16
26.69
25.25
24.57
24.30
24.17
24.09
24.06
24.13
24.22
24.23
24.03
23.54
22.71
21.55
20.03
18.11
15.79
13.06
10.00
6.72
3.37
0.15
-2.81
-5.42
-7.75
-10.01
-12.43
-15.17
-18.19
-21.27
-24.07
-26.40
-28.27
-29.98
-31.97
-34.67
-38.36
-43.10
-48.59
-54.12
-58.65
-60.83
-59.46
-53.78
-43.89
-30.79
-16.11
-1.57
11.47
22.24
30.57
36.61
40.58
42.63
42.92
41.66
39.23
36.06
32.61
29.28
26.33
23.94
22.27
21.43
21.48
22.39
24.01
26.02
27.99
29.47
30.04
29.52
27.90
25.45
22.60
19.84
17.52
15.74
14.24
12.56
10.22
6.97
2.98
-1.27
-5.14
-8.18
-10.27
-11.68
-12.89
-14.45
-16.71
-19.75
-23.38
-27.22
-30.86
-33.96
-36.44
-38.48
-40.51
-43.10
-46.71
-51.50
-57.19
-62.96
-67.57
-69.63
-67.90
-61.69
-51.09
-37.06
-21.18
-5.24
9.23
21.23
30.43
36.94
41.08
43.20
43.61
42.61
40.55
37.84
34.90
32.07
29.56
27.43
25.72
24.45
23.73
23.70
24.43
25.83
27.59
29.31
30.46
30.69
29.85
28.04
25.56
22.84
20.23
17.92
15.85
13.77
11.35
8.41
5.00
1.40
-2.00
-4.90
-7.23
-9.15
-10.96
-12.95
-15.20
-17.69
-20.29
-22.94
-25.59
-28.28
-30.99
-33.73
-36.61
-39.87
-43.87
-48.75
-54.26
-59.52
-63.18
-63.77
-60.23
-52.30
-40.59
-26.45
-11.51
2.68
15.01
24.88
32.17
37.03
39.73
40.52
39.63
37.28
33.85
29.82
25.82
22.33
19.70
17.98
17.05
16.75
17.00
17.80
19.05
20.51
21.76
22.33
21.94
20.56
18.46
16.01
13.55
11.21
8.97
6.67
4.16
1.35
-1.77
-5.15
-8.67
-12.20
-15.61
-18.77
-21.58
-24.02
-26.16
-28.15
-30.13
-32.28
-34.80
-37.91
-41.77
-46.34
-51.19
-55.44
-57.85
-57.25
-52.88
-44.73
-33.54
-20.60
-7.29
5.21
16.16
25.17
32.13
37.01
39.81
40.60
39.52
36.91
33.19
28.95
24.76
21.17
18.52
16.91
16.17
15.97
16.06
16.25
16.56
17.07
17.80
18.61
19.26
19.43
18.92
17.65
15.66
13.09
10.07
6.72
3.20
-0.31
-3.63
-6.64
-9.35
-11.91
-14.54
-17.35
-20.41
-23.60
-26.74
-29.65
-32.18
-34.35
-36.34
-38.51
-41.34
-45.28
-50.43
-56.33
-61.89
-65.53
-65.72
-61.40
-52.45
-39.71
-24.76
-9.36
4.95
17.17
26.85
33.94
38.59
41.01
41.44
40.20
37.76
34.64
31.37
28.37
25.83
23.81
22.26
21.16
20.62
20.80
21.81
23.58
25.76
27.79
29.07
29.23
28.21
26.31
24.00
21.74
19.73
17.92
16.06
13.91
11.35
8.41
5.24
2.04
-1.11
-4.15
-7.12
-10.03
-12.93
-15.88
-18.90
-21.98
-25.03
-27.92
-30.54
-32.92
-35.28
-37.97
-41.35
-45.62
-50.60
-55.68
-59.80
-61.74
-60.40
-55.16
-46.08
-33.97
-20.13
-6.00
7.17
18.51
27.60
34.27
38.52
40.39
40.10
38.03
34.79
31.08
27.52
24.45
21.98
20.05
18.59
17.65
17.38
17.89
19.17
20.99
22.94
24.55
25.46
25.51
24.78
23.45
21.76
19.86
17.79
15.53
13.00
10.23
7.26
4.27
1.43
-1.18
-3.57
-5.89
-8.31
-10.94
-13.69
-16.39
-18.82
-20.90
-22.73
-24.61
-26.85
-29.67
-33.14
-37.23
-41.86
-46.87
-51.88
-56.15
-58.61
-58.05
-53.61
-45.07
-33.15
-19.22
-4.94
8.23
19.38
28.13
34.45
38.42
40.15
39.74
37.50
33.99
29.92
26.06
22.97
20.91
19.79
19.32
19.16
19.15
19.29
19.71
20.58
21.90
23.46
24.89
25.73
25.65
24.53
22.57
20.11
17.53
15.08
12.77
10.48
8.04
5.41
2.66
-0.11
-2.81
-5.50
-8.24
-11.10
-14.03
-16.90
-19.53
-21.84
-23.82
-25.57
-27.19
-28.84
-30.72
-33.04
-36.07
-40.05
-45.02
-50.66
-56.26
-60.71
-62.77
-61.41
-56.05
-46.92
-34.90
-21.34
-7.65
5.04
16.05
25.10
32.07
36.87
39.34
39.44
37.39
33.78
29.50
25.49
22.44
20.63
19.94
20.00
20.49
21.23
22.21
23.47
24.93
26.38
27.57
28.28
28.45
28.09
27.25
25.87
23.95
21.47
18.58
15.49
12.42
9.41
6.44
3.44
0.45
-2.32
-4.65
-6.46
-7.91
-9.40
-11.37
-14.03
-17.24
-20.57
-23.54
-25.81
-27.40
-28.63
-30.02
-32.07
-35.15
-39.38
-44.55
-50.05
-54.95
-58.07
-58.30
-54.88
-47.61
-37.02
-24.17
-10.41
2.96
14.93
24.88
32.49
37.71
40.61
41.37
40.30
37.82
34.46
30.78
27.32
24.49
22.52
21.44
21.13
21.35
21.95
22.77
23.77
24.93
26.13
27.20
27.92
28.09
27.60
26.47
24.74
22.52
19.86
16.80
13.42
9.85
6.31
2.99
0.08
-2.38
-4.43
-6.24
-8.06
-10.11
-12.55
-15.43
-18.63
-21.89
-24.93
-27.51
-29.67
-31.71
-34.04
-37.14
-41.25
-46.21
-51.48
-56.13
-59.07
-59.31
-56.15
-49.43
-39.56
-27.45
-14.36
-1.57
9.86
19.28
26.46
31.48
34.52
35.77
35.40
33.63
30.74
27.21
23.55
20.26
17.69
16.05
15.37
15.54
16.37
17.56
18.83
19.91
20.66
21.04
21.10
20.89
20.41
19.63
18.43
16.77
14.63
12.09
9.27
6.25
3.09
-0.16
-3.46
-6.70
-9.79
-12.64
-15.24
-17.61
-19.82
-22.00
-24.26
-26.78
-29.75
-33.32
-37.54
-42.18
-46.67
-50.19
-51.73
-50.43
-45.77
-37.80
-27.09
-14.71
-1.90
10.08
20.27
28.07
33.32
36.14
36.83
35.79
33.42
30.19
26.64
23.32
20.68
18.92
17.93
17.44
17.16
17.01
17.10
17.67
18.82
20.42
22.12
23.47
24.11
23.81
22.56
20.47
17.73
14.57
11.24
7.95
4.87
2.07
-0.50
-2.97
-5.44
-8.05
-10.85
-13.84
-16.91
-19.93
-22.70
-25.06
-27.02
-28.86
-31.05
-34.13
-38.45
-43.87
-49.64
-54.51
-56.99
-55.87
-50.58
-41.42
-29.47
-16.21
-3.14
8.56
18.25
25.73
31.12
34.65
36.51
36.83
35.73
33.41
30.21
26.57
23.05
20.10
18.01
16.88
16.69
17.34
18.73
20.68
22.87
24.87
26.21
26.59
25.96
24.56
22.74
20.81
18.90
16.97
14.86
12.51
9.89
7.10
4.20
1.20
-1.93
-5.22
-8.63
-12.02
-15.23
-18.11
-20.58
-22.73
-24.69
-26.71
-29.08
-32.02
-35.65
-39.90
-44.40
-48.50
-51.32
-51.92
-49.57
-43.94
-35.26
-24.27
-12.03
0.30
11.66
21.27
28.65
33.64
36.22
36.56
34.95
31.82
27.77
23.52
19.75
16.99
15.39
14.74
14.63
14.64
14.60
14.65
15.07
16.06
17.59
19.34
20.83
21.63
21.52
20.45
18.53
15.91
12.77
9.34
5.91
2.78
0.16
-1.91
-3.63
-5.29
-7.19
-9.43
-11.95
-14.55
-16.96
-18.97
-20.52
-21.71
-22.87
-24.53
-27.16
-31.03
-35.91
-41.01
-45.13
-46.90
-45.27
-39.82
-30.88
-19.47
-6.96
5.23
15.99
24.60
30.82
34.70
36.53
36.62
35.24
32.61
28.99
24.75
20.35
16.32
13.12
11.02
10.09
10.22
11.18
12.70
14.46
16.12
17.32
17.81
17.44
16.27
14.47
12.31
10.00
7.69
5.41
3.12
0.72
-1.95
-5.04
-8.61
-12.61
-16.74
-20.58
-23.75
-26.06
-27.67
-29.07
-30.84
-33.48
-37.21
-41.88
-47.00
-51.82
-55.42
-56.82
-55.18
-50.00
-41.37
-30.04
-17.22
-4.35
7.36
17.15
24.74
30.21
33.75
35.48
35.46
33.85
30.95
27.30
23.52
20.13
17.49
15.72
14.79
14.65
15.19
16.29
17.74
19.28
20.56
21.32
21.37
20.70
19.41
17.67
15.67
13.56
11.43
9.22
6.79
3.93
0.48
-3.54
-7.89
-12.15
-15.90
-18.93
-21.34
-23.45
-25.77
-28.73
-32.54
-37.10
-41.93
-46.22
-48.91
-48.94
-45.55
-38.57
-28.57
-16.70
-4.37
7.18
17.13
25.16
31.28
35.61
38.19
39.05
38.25
35.97
32.57
28.54
24.43
20.72
17.83
16.00
15.25
15.37
16.01
16.81
17.52
18.06
18.43
18.64
18.58
18.10
17.06
15.48
13.53
11.44
9.37
7.27
4.93
2.13
-1.19
-4.83
-8.40
-11.54
-14.14
-16.37
-18.56
-21.12
-24.27
-28.02
-32.08
-35.92
-38.76
-39.74
-38.07
-33.33
-25.60
-15.58
-4.31
7.06
17.61
26.79
34.30
40.02
43.84
45.69
45.66
44.05
41.35
38.07
34.66
31.39
28.44
25.94
24.04
22.80
22.08
21.53
20.73
19.29
17.13
14.45
11.63
9.07
6.95
5.24
3.68
1.91
-0.39
-3.39
-7.07
-11.15
-15.20
-18.82
-21.81
-24.25
-26.59
-29.41
-33.20
-38.01
-43.41
-48.43
-51.82
-52.42
-49.43
-42.73
-32.89
-21.05
-8.68
2.82
12.39
19.46
23.90
25.80
25.18
21.77
15.06
4.53
-9.91
-27.50
-46.46
-64.26
-78.36
-87.06
-90.20
-89.25
-86.74
-85.14
-85.76
-88.26
-90.88
-91.42
-88.42
-81.84
-73.06
-64.26
-57.34
-53.36
-52.35
-53.64
-56.41
-60.15
-64.65
-69.76
-75.14
-80.13
-84.04
-86.48
-87.54
-87.51
-86.28
-82.84
-75.52
-63.03
-45.43
-24.64
-3.75
14.44
28.69
39.70
49.19
58.45
67.36
74.60
78.60
78.82
76.06
71.94
67.93
64.58
61.53
58.09
53.96
49.40
45.10
41.85
40.03
39.59
40.01
40.52
40.35
38.96
36.19
32.27
27.76
23.19
18.94
15.16
11.80
8.72
5.81
2.97
0.02
-3.32
-7.36
-12.28
-17.85
-23.36
-27.71
-29.63
-28.20
-23.06
-14.62
-3.85
7.94
19.47
29.74
38.13
44.35
48.41
50.44
50.67
49.36
46.79
43.27
39.15
34.88
30.89
27.56
25.07
23.29
21.91
20.48
18.71
16.49
13.95
11.25
8.53
5.79
2.82
-0.76
-5.39
-11.28
-18.32
-26.06
-33.83
-40.75
-45.80
-47.96
-46.31
-40.13
-29.16
-13.77
4.72
24.20
42.12
56.46
66.04
70.81
71.67
70.18
67.94
66.25
65.81
66.74
69.10
71.89
72.94
69.64
60.51
46.50
31.11
19.38
15.95
24.35
44.20
71.16
98.75
121.52
137.52
148.55
158.97
173.48
197.04
230.57
269.93
307.09
333.30
342.08
330.96
301.90
260.65
218.04
183.70
162.58
153.69
151.89
150.84
145.17
131.99
94.22
27.23
-59.51
-147.68
-222.07
-276.89
-312.49
-331.01
-334.77
-326.92
-309.43
-286.33
-263.26
-245.23
-234.46
-229.89
-228.78
-228.38
-226.69
-220.04
-205.77
-184.40
-157.44
-128.12
-99.81
-75.12
-54.96
-38.40
-22.30
-4.66
13.43
28.06
34.51
30.27
15.86
-5.53
-29.78
-52.89
-72.71
-88.91
-101.87
-111.78
-116.38
-113.25
-100.56
-77.55
-44.35
-2.47
44.81
92.37
133.53
161.36
170.10
156.85
122.65
72.64
15.45
-38.10
-76.69
-90.90
-75.44
-31.35
33.59
106.15
170.82
213.65
225.86
205.72
158.37
94.33
26.33
-33.79
-77.49
-100.51
-102.52
-85.98
-55.16
-15.76
26.12
64.76
95.60
116.18
126.70
129.50
128.03
125.26
121.49
115.35
104.15
84.74
54.47
12.48
-39.26
-95.78
-149.85
-194.28
-221.55
-226.12
-207.09
-170.15
-126.84
-91.66
-77.52
-91.09
-131.49
-187.97
-244.08
-284.49
-301.19
-294.73
-271.55
-239.38
-194.62
-140.19
-82.24
-26.54
22.75
60.09
80.30
79.42
56.70
16.54
-33.73
-83.75
-123.77
-144.82
-143.14
-120.78
-82.76
-37.25
5.87
36.03
47.40
41.11
24.22
5.95
-5.51
-2.41
18.00
52.87
94.77
136.80
175.46
210.18
241.04
268.07
296.07
330.66
376.07
432.67
497.40
564.23
624.26
666.53
655.33
571.41
423.52
246.93
81.72
-47.11
-134.20
-187.17
-218.23
-237.94
-248.53
-249.31
-240.66
-226.18
-210.80
-198.32
-190.26
-186.58
-186.45
-185.80
-181.75
-174.56
-168.39
-166.18
-168.24
-171.16
-169.37
-157.80
-132.70
-95.30
-52.10
-12.39
16.25
30.96
34.07
30.58
25.20
21.09
18.60
16.21
12.12
5.92
-1.31
-7.64
-11.97
-13.54
-12.35
-9.23
-5.26
-1.36
2.11
5.04
7.46
9.01
9.13
7.14
2.88
-2.94
-8.83
-13.00
-14.20
-12.16
-7.84
-2.87
0.98
2.57
1.80
-0.53
-3.19
-5.14
-5.90
-5.65
-4.91
-4.31
-4.21
-4.60
-5.13
-5.44
-5.26
-4.62
-3.80
-3.24
-3.37
-4.48
-6.59
-9.46
-12.66
-15.79
-18.53
-20.63
-21.88
-22.00
-20.74
-17.94
-13.72
-8.54
-3.10
1.84
5.74
8.40
9.92
10.63
10.87
10.86
10.67
10.32
9.79
9.17
8.59
8.25
8.23
8.48
8.83
9.02
8.90
8.45
7.83
7.27
6.99
7.05
7.39
7.81
8.12
8.18
7.92
7.36
6.56
5.60
4.53
3.31
1.89
0.17
-1.90
-4.27
-6.78
-9.18
-11.20
-12.63
-13.33
-13.22
-12.26
-10.43
-7.77
-4.40
-0.53
3.47
7.18
10.23
12.41
13.68
14.22
14.25
14.03
13.71
13.33
12.87
12.27
11.49
10.53
9.48
8.46
7.61
7.04
6.74
6.61
6.44
6.06
5.33
4.21
2.76
1.05
-0.79
-2.67
-4.46
-6.12
-7.66
-9.20
-10.93
-13.00
-15.46
-18.18
-20.88
-23.26
-25.02
-25.97
-25.94
-24.83
-22.57
-19.22
-14.99
-10.30
-5.63
-1.49
1.81
4.14
5.65
6.67
7.56
8.67
10.16
11.97
13.87
15.56
16.75
17.32
17.32
16.85
16.06
15.06
13.90
12.63
11.31
10.00
8.76
7.58
6.43
5.24
3.98
2.62
1.23
-0.06
-1.06
-1.58
-1.51
-0.93
-0.11
0.57
0.75
0.24
-0.92
-2.51
-4.30
-6.14
-7.97
-9.71
-11.14
-11.86
-11.40
-9.48
-6.12
-1.74
3.00
7.44
11.08
13.69
15.29
16.06
16.23
16.09
15.89
15.90
16.30
17.13
18.25
19.40
20.26
20.56
20.17
19.10
17.53
15.70
13.88
12.29
11.07
10.28
9.91
9.90
10.11
10.38
10.53
10.37
9.81
8.90
7.76
6.56
5.41
4.33
3.25
2.09
0.84
-0.45
-1.68
-2.75
-3.70
-4.62
-5.62
-6.81
-8.18
-9.71
-11.33
-13.01
-14.73
-16.41
-17.91
-19.02
-19.62
-19.70
-19.41
-18.97
-18.48
-17.83
-16.73
-14.87
-12.11
-8.64
-4.89
-1.34
1.68
4.03
5.79
7.08
7.99
8.51
8.61
8.33
7.81
7.27
6.94
6.93
7.22
7.66
8.07
8.36
8.50
8.55
8.61
8.71
8.80
8.78
8.55
8.08
7.38
6.56
5.68
4.77
3.82
2.77
1.56
0.21
-1.19
-2.50
-3.64
-4.58
-5.42
-6.29
-7.29
-8.40
-9.49
-10.47
-11.31
-12.11
-13.08
-14.39
-16.08
-18.02
-19.98
-21.68
-22.94
-23.58
-23.51
-22.61
-20.77
-17.91
-14.08
-9.53
-4.66
-0.04
3.85
6.65
8.30
8.99
9.03
8.80
8.53
8.34
8.21
8.06
7.85
7.62
7.46
7.46
7.64
7.94
8.25
8.47
8.56
8.55
8.50
8.45
8.39
8.24
7.92
7.39
6.65
5.75
4.77
3.73
2.65
1.53
0.38
-0.74
-1.80
-2.80
-3.76
-4.75
-5.83
-6.99
-8.18
-9.34
-10.45
-11.56
-12.76
-14.15
-15.75
-17.48
-19.17
-20.64
-21.72
-22.25
-22.03
-20.86
-18.55
-15.04
-10.51
-5.38
-0.22
4.38
8.06
10.72
12.50
13.66
14.40
14.80
14.82
14.44
13.67
12.65
11.60
10.74
10.23
10.12
10.32
10.64
10.87
10.87
10.61
10.14
9.59
9.06
8.59
8.14
7.63
7.01
6.25
5.37
4.42
3.42
2.36
1.22
-0.01
-1.31
-2.65
-3.95
-5.17
-6.27
-7.21
-7.98
-8.62
-9.18
-9.82
-10.68
-11.88
-13.44
-15.28
-17.23
-19.09
-20.63
-21.62
-21.83
-21.04
-19.09
-15.97
-11.88
-7.19
-2.41
1.96
5.56
8.22
9.97
10.99
11.44
11.50
11.25
10.77
10.13
9.45
8.87
8.48
8.33
8.36
8.44
8.46
8.33
8.06
7.75
7.52
7.43
7.48
7.60
7.63
7.47
7.05
6.37
5.46
4.40
3.20
1.93
0.60
-0.73
-2.03
-3.29
-4.48
-5.62
-6.70
-7.75
-8.79
-9.85
-10.98
-12.20
-13.56
-15.05
-16.71
-18.55
-20.53
-22.45
-24.04
-24.85
-24.48
-22.68
-19.45
-15.08
-10.03
-4.84
0.07
4.38
7.96
10.76
12.81
14.14
14.83
14.96
14.66
14.13
13.54
13.00
12.56
12.18
11.81
11.40
10.96
10.55
10.21
9.94
9.73
9.52
9.27
8.96
8.60
8.16
7.60
6.86
5.87
4.64
3.20
1.63
0.07
-1.42
-2.77
-4.02
-5.22
-6.45
-7.67
-8.81
-9.74
-10.42
-10.91
-11.41
-12.20
-13.50
-15.36
-17.61
-19.90
-21.81
-22.94
-23.00
-21.84
-19.46
-15.99
-11.70
-6.96
-2.18
2.22
5.95
8.87
11.00
12.43
13.26
13.56
13.37
12.75
11.82
10.76
9.80
9.14
8.84
8.86
9.06
9.29
9.42
9.44
9.39
9.39
9.50
9.72
9.88
9.76
9.20
8.13
6.68
5.06
3.49
2.09
0.81
-0.49
-1.94
-3.58
-5.32
-7.00
-8.46
-9.62
-10.59
-11.52
-12.58
-13.89
-15.41
-17.04
-18.62
-19.98
-20.97
-21.42
-21.14
-19.94
-17.68
-14.35
-10.11
-5.34
-0.48
4.04
7.93
11.06
13.42
15.00
15.78
15.76
15.01
13.75
12.28
10.91
9.90
9.32
9.17
9.31
9.63
9.99
10.32
10.54
10.62
10.59
10.46
10.26
9.97
9.55
8.95
8.14
7.18
6.12
5.06
4.01
2.95
1.80
0.50
-1.00
-2.66
-4.37
-5.98
-7.37
-8.47
-9.38
-10.28
-11.36
-12.78
-14.58
-16.68
-18.92
-21.08
-22.91
-24.12
-24.43
-23.58
-21.45
-18.08
-13.68
-8.54
-3.07
2.34
7.30
11.45
14.49
16.31
17.01
16.87
16.29
15.63
15.07
14.62
14.18
13.64
12.99
12.30
11.73
11.37
11.25
11.28
11.35
11.35
11.23
11.03
10.81
10.61
10.40
10.05
9.42
8.40
6.98
5.24
3.36
1.52
-0.13
-1.51
-2.62
-3.54
-4.36
-5.18
-6.03
-6.94
-7.87
-8.78
-9.66
-10.56
-11.55
-12.70
-14.09
-15.69
-17.46
-19.30
-21.06
-22.55
-23.56
-23.79
-22.95
-20.85
-17.46
-13.00
-7.90
-2.71
2.06
6.06
9.13
11.24
12.49
12.96
12.76
12.02
10.95
9.74
8.62
7.73
7.08
6.64
6.32
6.09
5.93
5.84
5.81
5.83
5.88
5.97
6.12
6.35
6.60
6.74
6.58
5.98
4.91
3.47
1.89
0.39
-0.92
-2.07
-3.18
-4.38
-5.69
-7.04
-8.29
-9.37
-10.30
-11.24
-12.35
-13.71
-15.28
-16.88
-18.28
-19.24
-19.58
-19.14
-17.78
-15.43
-12.09
-7.94
-3.27
1.55
6.14
10.21
13.52
15.96
17.42
17.93
17.55
16.54
15.24
14.07
13.40
13.39
13.99
14.93
15.84
16.40
16.49
16.25
16.07
16.39
17.52
19.42
21.67
23.62
24.63
24.32
22.82
20.76
19.05
18.47
19.34
21.32
23.57
25.03
24.94
23.19
20.39
17.82
16.96
19.22
25.40
35.19
46.50
55.34
56.67
46.15
22.18
-12.96
-53.32
-91.09
-119.15
-133.52
-134.37
-125.05
-110.03
-93.09
-76.58
-61.61
-48.70
-38.12
-30.33
-25.84
-24.41
-24.71
-24.50
-21.60
-14.60
-3.21
12.09
29.96
48.24
64.65
77.12
84.00
83.76
75.19
56.76
30.55
2.98
-19.17
-32.92
-39.48
-41.57
-41.39
-39.87
-36.88
-31.83
-25.02
-18.23
-13.75
-13.18
-16.50
-22.31
-28.84
-34.25
-37.23
-37.68
-37.74
-39.21
-44.12
-53.98
-69.43
-89.41
-110.19
-125.54
-128.59
-114.95
-84.64
-41.96
6.09
51.04
85.25
104.03
106.63
96.06
77.78
58.16
43.98
39.29
46.65
62.76
80.99
93.85
97.46
92.80
83.56
74.71
74.37
83.64
101.15
124.03
148.32
169.61
183.96
182.48
154.60
102.05
37.89
-20.60
-61.85
-83.84
-91.22
-90.66
-87.56
-83.88
-78.91
-72.40
-65.40
-59.68
-56.22
-54.64
-53.95
-53.40
-52.29
-49.98
-46.58
-42.92
-40.09
-38.60
-38.24
-38.61
-39.67
-41.40
-44.64
-49.80
-57.97
-69.64
-83.23
-94.69
-98.78
-91.34
-69.73
-38.51
-4.88
23.58
41.93
49.54
49.39
45.78
41.87
38.71
35.55
31.86
27.84
24.47
22.95
23.69
25.93
28.06
28.43
25.96
21.25
15.88
11.61
9.78
10.65
13.32
16.17
17.62
16.62
13.48
9.49
6.17
4.89
6.17
9.59
14.02
18.34
21.61
23.71
25.44
27.31
30.23
35.26
43.49
55.16
69.11
81.87
87.63
81.91
62.32
30.57
-7.71
-44.73
-73.04
-87.61
-86.78
-71.98
-46.99
-17.57
9.67
28.38
34.08
25.76
6.53
-17.52
-39.58
-54.66
-61.40
-61.35
-57.90
-54.57
-53.96
-57.18
-63.55
-70.44
-73.67
-69.40
-55.02
-31.20
-2.30
25.38
46.04
56.79
58.27
54.45
49.57
46.20
44.39
42.65
39.79
35.80
31.86
29.57
29.62
31.70
35.14
39.57
44.84
50.40
53.77
50.44
36.08
9.79
-24.06
-56.60
-78.23
-83.35
-72.87
-53.38
-33.01
-17.65
-9.06
-5.87
-6.05
-8.44
-12.95
-19.05
-24.88
-27.58
-25.08
-17.77
-8.82
-3.06
-4.50
-14.16
-29.50
-45.21
-55.39
-56.09
-47.10
-31.54
-14.14
1.22
13.02
22.34
30.95
39.17
45.73
48.80
48.16
45.62
43.90
44.33
45.96
46.33
43.59
38.17
32.42
29.04
29.01
30.86
31.65
29.06
22.42
13.03
2.88
-6.37
-13.64
-18.00
-18.30
-13.81
-5.00
5.64
13.88
15.25
6.69
-11.48
-34.75
-55.38
-64.93
-57.71
-33.85
0.01
32.95
54.19
58.10
46.45
27.12
9.58
0.40
0.72
7.10
14.51
19.54
21.83
22.88
23.66
22.77
16.97
3.08
-19.13
-45.83
-70.75
-87.63
-92.76
-86.67
-73.82
-60.21
-50.88
-48.34
-52.49
-61.65
-73.23
-84.59
-92.07
-92.20
-82.11
-60.73
-29.82
5.94
40.47
69.13
91.24
109.02
125.46
141.96
156.06
161.87
152.89
125.75
79.07
22.80
-29.99
-68.55
-87.48
-87.36
-72.90
-50.37
-25.33
-1.51
19.37
35.46
44.99
47.18
43.11
35.80
28.81
24.58
23.04
21.97
17.54
7.07
-9.05
-27.44
-43.59
-54.24
-59.24
-60.54
-60.17
-59.76
-59.97
-61.03
-63.69
-67.81
-73.00
-77.82
-79.70
-75.96
-64.89
-46.59
-22.72
2.69
25.83
43.50
53.79
56.71
54.05
48.70
43.69
41.14
41.72
44.76
48.61
51.58
52.85
52.74
52.02
52.24
53.92
57.38
63.01
70.96
80.57
90.03
96.15
94.84
82.80
59.20
26.81
-8.80
-40.02
-61.56
-71.72
-72.21
-66.83
-59.50
-53.06
-48.83
-47.03
-47.14
-48.44
-49.83
-50.00
-48.09
-44.19
-39.34
-35.22
-33.87
-36.50
-43.32
-53.19
-62.60
-66.88
-61.56
-44.33
-16.68
15.62
44.44
62.32
65.85
57.32
43.41
31.79
27.41
30.20
35.50
37.09
30.41
14.56
-7.65
-31.44
-51.55
-63.61
-65.11
-55.90
-38.29
-16.61
4.33
21.25
32.82
40.13
45.08
48.75
50.39
48.57
42.36
32.76
22.71
15.34
12.18
12.13
12.16
9.38
2.97
-5.54
-13.00
-16.38
-14.43
-8.07
0.13
7.20
11.04
11.16
8.63
5.16
2.41
1.14
1.03
1.33
1.25
0.42
-1.12
-3.16
-5.52
-8.01
-10.61
-13.05
-14.90
-15.73
-15.28
-13.80
-11.86
-10.12
-9.06
-8.72
-8.75
-8.77
-8.68
-8.79
-9.62
-11.43
-13.97
-16.34
-17.47
-16.60
-13.62
-9.36
-5.06
-1.99
-0.92
-2.01
-4.79
-8.53
-12.39
-15.55
-17.40
-17.43
-15.42
-11.51
-6.14
-0.01
6.24
11.86
16.38
19.41
20.80
20.63
19.33
17.51
15.69
14.07
12.44
10.46
7.93
5.11
2.67
1.38
1.69
3.50
6.20
9.04
11.39
12.91
13.46
12.95
11.31
8.60
5.15
1.58
-1.42
-3.44
-4.58
-5.35
-6.29
-7.86
-10.02
-12.45
-14.76
-16.63
-17.82
-18.16
-17.53
-15.95
-13.61
-10.83
-7.94
-5.03
-1.98
1.46
5.41
9.70
13.87
17.32
19.54
20.36
19.75
17.92
15.12
11.69
8.12
5.09
3.26
2.93
3.83
5.18
6.10
5.87
4.39
2.02
-0.66
-3.17
-5.30
-6.97
-8.12
-8.55
-8.08
-6.76
-5.00
-3.58
-3.23
-4.32
-6.59
-9.25
-11.29
-11.90
-10.67
-7.57
-2.94
2.75
8.91
14.85
19.89
23.41
25.10
25.03
23.69
21.83
20.23
19.43
19.54
20.29
21.17
21.67
21.60
21.16
20.83
21.09
22.07
23.29
23.86
22.81
19.61
14.46
8.11
1.41
-5.00
-10.65
-14.94
-16.85
-15.43
-10.41
-3.23
3.09
4.95
-0.19
-12.26
-28.71
-45.63
-59.64
-69.00
-73.50
-73.36
-68.19
-56.91
-38.81
-14.95
11.31
35.03
51.51
58.13
55.24
45.71
33.44
21.86
12.89
6.89
3.20
0.98
-0.28
-0.59
0.17
1.73
3.40
4.06
2.91
-0.02
-3.93
-7.46
-9.61
-10.44
-11.03
-12.92
-17.35
-24.63
-33.97
-43.51
-50.65
-52.69
-47.81
-36.10
-19.97
-3.69
8.19
12.91
10.67
4.59
-0.90
-2.33
1.26
8.13
15.06
19.25
19.73
17.45
14.46
12.60
12.41
13.26
13.59
12.02
8.07
2.28
-4.28
-10.95
-17.65
-24.49
-30.71
-34.08
-31.34
-19.86
0.38
25.79
50.10
66.89
72.02
65.51
50.96
33.61
18.03
6.60
-0.60
-4.87
-7.71
-10.23
-12.86
-15.74
-18.82
-21.98
-25.10
-27.93
-30.17
-31.41
-31.34
-29.80
-26.93
-23.29
-19.70
-17.13
-16.29
-17.33
-19.73
-22.61
-25.11
-26.85
-28.07
-29.12
-30.21
-30.87
-30.25
-27.62
-23.06
-17.47
-12.30
-8.72
-6.98
-6.28
-5.15
-2.28
2.73
8.96
14.64
17.76
16.64
10.76
1.20
-9.20
-16.30
-16.09
-6.28
12.52
36.38
58.94
73.62
75.79
64.72
43.73
18.88
-3.17
-16.61
-18.12
-7.76
11.28
34.00
55.20
70.96
78.91
78.40
70.91
59.41
46.90
35.25
24.56
13.44
0.03
-17.65
-40.42
-66.51
-92.01
-112.82
-125.89
-129.41
-122.99
-107.09
-80.89
-49.12
-20.09
0.25
11.10
15.85
19.69
27.03
42.59
64.27
86.65
103.39
109.52
101.85
81.31
54.26
26.81
10.12
13.14
38.78
82.43
133.22
176.07
197.75
192.03
160.09
109.26
48.23
-15.41
-76.13
-122.94
-149.52
-157.91
-153.70
-141.94
-125.79
-108.60
-93.87
-83.99
-79.13
-78.29
-80.11
-78.82
-70.05
-52.56
-29.07
-4.71
15.35
28.18
33.20
33.00
32.73
37.00
46.40
58.97
71.31
80.39
84.84
84.54
80.82
76.03
71.93
68.39
63.55
55.01
40.67
19.58
-8.21
-41.36
-77.34
-109.25
-128.65
-131.93
-123.61
-111.87
-102.20
-95.32
-89.13
-81.67
-73.04
-66.05
-65.20
-70.13
-77.96
-84.03
-82.90
-70.89
-47.70
-16.18
18.37
51.09
78.12
93.08
89.95
66.94
27.63
-18.90
-60.29
-85.29
-86.31
-63.36
-21.91
21.88
50.92
59.26
54.56
53.89
63.89
85.36
114.72
146.28
168.58
175.25
162.84
131.21
83.10
24.74
-32.80
-77.68
-101.63
-102.07
-80.04
-40.87
8.80
57.94
92.10
106.46
107.32
102.13
92.46
81.76
66.04
44.65
19.80
-5.00
-26.89
-47.31
-67.75
-90.15
-114.80
-140.61
-163.35
-177.45
-178.17
-164.07
-137.03
-101.59
-62.87
-24.80
9.08
32.73
42.63
47.09
51.64
58.69
65.02
68.94
69.64
66.89
61.84
56.85
53.98
53.11
53.19
52.73
50.68
46.37
39.74
31.73
23.98
17.84
12.91
8.50
4.17
0.18
-3.20
-5.66
-6.96
-6.72
-4.98
-2.84
-1.20
-0.51
-0.55
-1.16
-2.23
-3.73
-5.28
-6.31
-6.44
-5.24
-2.53
1.68
6.63
11.52
15.72
19.16
22.20
25.03
27.56
29.10
28.67
25.29
18.61
8.89
-3.06
-16.31
-30.12
-43.87
-57.16
-69.44
-80.05
-88.28
-93.56
-95.67
-94.72
-91.04
-85.00
-76.97
-67.32
-56.56
-45.37
-34.49
-24.53
-15.60
-7.51
0.38
8.66
17.69
27.44
37.41
46.90
55.12
61.47
65.60
67.61
67.96
67.45
66.99
67.36
69.03
71.97
75.77
79.62
82.60
83.73
82.11
77.07
68.19
55.49
39.51
21.34
2.45
-15.61
-31.59
-44.70
-54.76
-62.01
-66.83
-69.50
-70.15
-68.82
-65.72
-61.40
-56.74
-52.62
-49.55
-47.39
-45.40
-42.68
-38.70
-33.53
-27.88
-22.67
-18.65
-16.02
-14.53
-13.67
-13.03
-12.48
-12.06
-11.90
-11.93
-11.93
-11.60
-10.76
-9.51
-8.09
-6.98
-6.66
-7.46
-9.41
-12.22
-15.32
-18.16
-20.27
-21.39
-21.57
-21.00
-19.91
-18.48
-16.84
-15.26
-14.03
-13.35
-13.02
-12.53
-11.27
-8.86
-5.40
-1.59
1.66
3.47
3.41
1.87
-0.56
-3.44
-6.51
-9.45
-11.53
-11.65
-8.66
-1.75
9.65
24.65
41.05
56.12
67.73
75.16
78.98
80.61
81.62
84.11
88.78
94.52
99.41
101.53
100.29
96.42
91.54
87.64
87.51
91.98
99.24
106.13
108.97
105.88
96.80
82.83
57.59
21.17
-19.20
-54.80
-81.30
-100.15
-113.51
-122.44
-127.49
-129.31
-127.64
-122.75
-117.15
-110.31
-103.24
-97.29
-94.65
-97.81
-107.71
-121.02
-131.57
-132.87
-113.83
-75.02
-26.67
17.30
46.74
59.49
61.04
59.18
59.11
61.77
63.73
62.05
56.52
49.21
43.29
41.10
42.99
47.41
51.90
53.63
51.83
48.17
45.22
44.70
46.26
47.33
44.42
35.08
19.31
-1.13
-22.07
-39.21
-49.86
-53.67
-52.22
-47.74
-42.26
-37.44
-34.26
-33.01
-33.68
-35.96
-39.22
-42.52
-44.62
-44.58
-41.88
-37.01
-31.06
-25.54
-21.60
-19.56
-18.74
-17.87
-15.69
-11.41
-4.82
4.17
15.01
27.11
39.73
51.85
62.26
69.85
74.07
75.22
74.13
71.93
69.59
67.70
66.64
66.55
67.16
67.43
65.40
58.70
45.84
27.10
5.02
-16.48
-33.66
-44.43
-49.06
-49.50
-48.07
-46.07
-43.39
-38.95
-31.78
-21.92
-10.66
-0.19
7.46
11.11
10.93
8.14
4.46
1.45
-0.05
0.06
1.18
2.56
3.68
4.58
5.46
6.51
7.64
8.58
9.06
8.72
7.51
5.75
4.44
4.32
5.66
8.14
11.18
14.22
16.40
17.19
16.60
15.89
15.72
16.15
16.66
16.98
17.42
18.06
19.07
20.55
23.62
27.81
31.90
34.39
35.19
35.47
35.95
36.65
36.63
35.95
32.95
25.78
12.87
-5.71
-22.92
-31.83
-29.73
-29.10
-34.29
-46.86
-61.60
-75.99
-88.27
-97.43
-103.80
-107.89
-109.58
-106.51
-97.94
-84.74
-69.71
-55.72
-44.91
-39.05
-38.95
-44.16
-51.87
-59.62
-65.22
-67.42
-65.41
-59.12
-49.85
-39.49
-29.78
-21.01
-13.42
-7.04
-2.04
1.69
4.38
6.13
7.01
7.11
7.01
7.05
7.59
8.98
11.66
15.80
20.92
26.03
29.91
31.84
31.79
30.62
29.58
30.03
32.29
35.70
38.98
40.63
39.32
34.53
26.61
16.80
7.27
-0.23
-4.09
-2.92
3.64
14.37
26.86
38.35
46.79
52.28
55.61
58.28
61.85
66.58
70.85
71.75
66.45
53.29
33.87
9.57
-18.48
-46.76
-69.68
-82.54
-85.94
-84.90
-90.15
-101.19
-115.61
-131.19
-146.75
-156.94
-158.52
-151.48
-138.74
-124.09
-106.70
-85.05
-57.32
-21.48
24.00
80.84
146.92
215.43
276.51
323.75
351.24
354.87
334.31
277.44
190.74
96.43
20.26
-40.86
-92.30
-133.85
-162.00
-173.45
-167.65
-146.24
-116.31
-88.15
-70.61
-63.97
-64.12
-66.04
-66.13
-63.22
-56.49
-47.63
-39.91
-36.32
-35.72
-36.03
-36.19
-36.26
-36.74
-36.80
-36.06
-34.86
-33.91
-32.22
-28.87
-24.03
-18.59
-13.50
-8.82
-4.64
-1.32
0.68
1.86
2.83
3.86
5.08
6.51
8.41
10.99
14.26
18.18
22.90
28.34
34.04
39.30
43.58
46.63
48.67
50.12
51.36
52.59
53.76
54.69
55.10
54.66
53.08
50.37
46.80
43.04
39.90
37.93
37.11
36.82
36.08
34.01
30.31
25.36
20.19
15.98
13.64
13.57
15.51
18.74
22.27
25.13
26.57
26.17
23.80
19.52
13.62
6.51
-1.21
-8.81
-15.49
-20.74
-24.27
-26.22
-27.00
-26.97
-26.47
-25.56
-24.22
-22.52
-20.74
-19.30
-18.59
-18.76
-19.54
-20.42
-20.80
-20.29
-18.80
-16.53
-13.77
-10.80
-7.85
-5.12
-2.93
-1.68
-1.54
-2.47
-3.85
-4.74
-4.23
-1.79
2.55
8.04
13.62
18.22
21.24
22.70
23.14
23.33
23.76
24.42
24.70
23.66
20.52
15.06
7.81
-0.05
-7.18
-12.58
-16.06
-18.14
-19.70
-21.28
-22.80
-23.56
-22.75
-20.11
-16.05
-11.76
-8.43
-6.74
-6.61
-7.36
-8.15
-8.51
-8.59
-8.95
-10.30
-13.08
-17.29
-22.50
-28.02
-33.10
-36.92
-38.79
-38.05
-34.15
-26.87
-16.48
-3.89
9.47
21.87
31.76
38.28
41.44
42.03
41.02
39.19
36.95
34.57
32.19
29.92
27.81
25.81
23.84
21.73
19.37
16.85
14.57
12.88
11.81
11.13
10.41
9.23
7.03
3.31
-2.04
-8.07
-13.50
-17.43
-19.43
-19.57
-18.05
-15.62
-13.16
-11.32
-9.09
-5.72
-1.59
2.15
4.76
6.84
9.50
13.99
21.25
33.39
50.61
70.26
88.47
102.48
112.18
118.47
122.26
124.34
128.02
135.38
145.67
156.05
163.41
165.64
160.04
143.63
101.99
35.23
-40.71
-105.77
-149.46
-176.93
-193.53
-204.10
-209.42
-211.11
-208.35
-201.00
-191.04
-181.10
-171.91
-161.00
-140.19
-107.30
-67.56
-27.80
6.70
32.80
49.41
57.95
62.04
64.50
65.39
65.23
63.04
58.82
52.79
45.42
37.44
29.92
22.57
13.50
1.30
-13.08
-27.16
-37.51
-41.74
-39.47
-32.24
-23.26
-16.21
-13.16
-13.76
-15.85
-17.11
-16.29
-13.38
-9.13
-4.92
-2.29
-2.36
-5.42
-10.63
-16.41
-21.00
-23.06
-21.87
-17.57
-11.00
-3.06
5.66
14.94
24.65
34.12
41.93
46.41
46.35
41.87
34.49
26.62
20.58
17.50
17.12
18.27
19.85
21.53
23.87
27.60
32.76
38.32
42.53
43.98
42.27
38.43
34.20
31.02
29.28
28.18
26.31
22.51
16.56
9.26
2.20
-3.23
-6.38
-7.60
-7.96
-8.59
-10.22
-12.86
-16.03
-18.94
-21.05
-22.53
-23.94
-25.80
-28.13
-30.41
-31.67
-31.19
-28.55
-24.18
-19.69
-16.83
-16.57
-18.60
-21.57
-23.67
-23.53
-20.23
-14.15
-7.74
-3.76
-3.87
-7.80
-14.05
-20.28
-24.46
-24.30
-18.48
-8.63
1.83
8.42
6.35
-8.49
-37.08
-75.71
-114.33
-140.19
-144.29
-123.21
-79.82
-21.64
41.46
102.42
148.23
169.64
172.86
164.69
148.21
122.73
90.66
55.92
22.74
-5.98
-27.60
-40.80
-47.41
-49.75
-49.50
-47.32
-43.91
-39.96
-36.19
-31.98
-26.24
-19.29
-11.48
-2.55
8.35
21.66
37.17
53.78
70.54
86.41
99.61
108.71
113.19
113.21
109.12
101.54
91.46
80.66
71.05
63.55
58.14
53.95
49.79
44.59
37.95
30.20
22.19
14.66
7.69
0.89
-6.16
-13.52
-20.80
-27.40
-32.88
-37.22
-40.86
-44.47
-48.54
-53.18
-58.10
-62.74
-66.51
-68.93
-69.67
-68.50
-65.37
-60.49
-54.42
-48.04
-42.34
-38.14
-35.83
-35.27
-35.95
-37.23
-38.53
-39.52
-39.99
-39.85
-39.04
-37.53
-35.50
-33.29
-31.30
-29.76
-28.61
-27.43
-25.68
-23.05
-19.66
-16.10
-13.18
-11.46
-11.04
-11.43
-11.94
-11.97
-11.35
-10.29
-9.12
-8.05
-7.11
-6.25
-5.55
-5.25
-5.53
-6.40
-7.48
-8.27
-8.39
-7.85
-7.10
-6.73
-7.24
-8.79
-11.17
-13.89
-16.40
-18.23
-19.11
-19.01
-18.04
-16.38
-14.23
-11.79
-9.37
-7.29
-5.96
-5.60
-6.22
-7.48
-8.87
-9.92
-10.41
-10.42
-10.19
-9.97
-9.80
-9.62
-9.28
-8.78
-8.17
-7.53
-6.95
-6.38
-5.71
-4.84
-3.80
-2.65
-1.59
-0.79
-0.36
-0.31
-0.61
-1.22
-2.08
-3.21
-4.59
-6.14
-7.74
-9.23
-10.53
-11.67
-12.80
-14.12
-15.80
-17.93
-20.38
-22.83
-24.74
-25.52
-24.69
-22.03
-17.72
-12.28
-6.41
-0.78
4.16
8.30
11.74
14.70
17.33
19.65
21.57
23.01
24.00
24.67
25.27
26.01
27.03
28.38
30.03
31.92
33.99
36.23
38.61
41.07
43.49
45.68
47.43
48.50
48.71
47.97
46.46
44.56
42.81
41.72
41.51
42.08
42.93
43.50
43.44
42.66
41.17
38.64
34.20
26.71
15.32
-0.07
-18.79
-39.86
-62.31
-85.23
-107.27
-126.35
-139.77
-145.07
-141.07
-128.51
-109.71
-87.54
-64.32
-41.24
-18.75
2.60
21.61
36.31
44.74
45.74
39.58
27.82
12.89
-2.48
-15.66
-24.38
-27.01
-22.83
-12.53
1.78
16.98
29.98
38.89
43.81
46.58
49.54
53.82
58.37
60.36
56.87
46.81
31.83
15.57
1.80
-7.52
-12.77
-16.08
-19.64
-24.31
-29.22
-32.69
-33.46
-31.67
-28.81
-26.78
-26.90
-29.12
-32.21
-34.45
-34.38
-31.54
-26.39
-20.13
-13.96
-8.70
-4.54
-1.11
2.18
5.72
9.42
12.73
14.93
15.56
14.70
12.96
11.28
10.48
10.92
12.39
14.28
15.91
16.89
17.17
17.06
16.98
17.20
17.78
18.46
18.92
18.91
18.36
17.39
16.25
15.21
14.37
13.70
13.10
12.43
11.59
10.64
9.62
8.53
7.33
5.81
3.87
1.47
-1.16
-3.66
-5.68
-6.92
-7.34
-7.01
-6.03
-4.42
-2.17
0.66
3.84
6.85
9.15
10.34
10.52
10.15
9.90
10.15
10.85
11.66
12.14
12.13
11.74
11.21
10.63
9.97
9.12
8.14
7.39
7.31
8.16
9.75
11.46
12.58
12.65
11.77
10.29
8.76
7.45
6.39
5.44
4.46
3.46
2.48
1.52
0.43
-0.90
-2.57
-4.44
-6.23
-7.67
-8.57
-8.99
-9.09
-9.06
-8.99
-8.82
-8.38
-7.43
-5.84
-3.68
-1.22
1.17
3.13
4.52
5.40
5.99
6.55
7.20
7.89
8.40
8.49
8.01
7.00
5.68
4.37
3.42
3.04
3.32
4.11
5.16
6.12
6.74
6.98
6.88
6.56
6.11
5.56
4.90
4.18
3.44
2.70
1.88
0.82
-0.54
-2.18
-3.87
-5.37
-6.53
-7.38
-8.13
-9.03
-10.19
-11.48
-12.55
-13.02
-12.63
-11.32
-9.27
-6.77
-4.07
-1.32
1.33
3.68
5.46
6.43
6.48
5.80
4.79
3.91
3.47
3.48
3.71
3.86
3.76
3.47
3.16
3.03
3.10
3.25
3.31
3.27
3.27
3.49
3.89
4.24
4.20
3.49
2.20
0.72
-0.48
-1.03
-0.91
-0.37
0.12
0.16
-0.49
-1.86
-3.77
-5.93
-7.97
-9.54
-10.42
-10.57
-10.17
-9.46
-8.60
-7.52
-6.12
-4.30
-2.14
0.09
2.13
3.86
5.32
6.63
7.74
8.36
8.17
7.03
5.21
3.33
2.12
2.02
2.97
4.50
5.92
6.75
6.90
6.60
6.20
5.88
5.74
5.66
5.57
5.46
5.38
5.33
5.17
4.73
3.82
2.60
1.40
0.67
0.57
1.02
1.68
2.04
1.80
0.94
-0.02
-0.51
0.10
1.75
4.21
7.09
10.08
13.10
16.15
19.63
23.54
27.79
31.59
34.57
36.63
37.96
39.01
39.99
41.86
44.93
49.61
55.16
60.67
64.47
64.15
57.04
40.53
14.46
-21.63
-61.47
-101.20
-136.36
-163.67
-182.15
-192.99
-199.28
-202.29
-202.65
-198.70
-188.08
-167.92
-136.62
-94.42
-39.79
16.69
71.59
119.57
155.43
174.68
175.80
160.75
134.61
104.05
74.72
51.65
36.16
27.59
23.93
23.40
24.51
26.08
27.01
25.98
23.30
19.15
14.34
9.77
6.32
4.35
3.67
3.62
3.18
2.31
0.85
-0.85
-2.34
-3.16
-3.18
-2.73
-2.39
-2.80
-3.92
-5.54
-7.22
-8.55
-9.31
-9.63
-9.73
-9.85
-10.07
-10.23
-10.23
-10.06
-9.84
-9.73
-9.86
-10.19
-10.67
-11.27
-12.08
-13.19
-14.51
-15.69
-16.20
-15.51
-13.41
-10.09
-6.19
-2.46
0.55
2.65
4.02
4.99
5.82
6.50
6.91
6.92
6.54
5.98
5.48
5.22
5.25
5.54
5.91
6.21
6.32
6.21
5.99
5.78
5.72
5.84
6.06
6.21
6.16
5.86
5.30
4.47
3.32
1.86
0.14
-1.59
-3.06
-4.03
-4.47
-4.53
-4.44
-4.43
-4.64
-5.13
-5.98
-7.20
-8.75
-10.40
-11.80
-12.56
-12.40
-11.27
-9.37
-7.02
-4.50
-2.02
0.34
2.51
4.45
6.06
7.23
7.89
8.00
7.65
6.99
6.29
5.71
5.32
5.06
4.80
4.53
4.30
4.27
4.54
5.05
5.62
6.01
6.09
5.85
5.33
4.58
3.66
2.59
1.48
0.41
-0.56
-1.43
-2.31
-3.21
-4.09
-4.75
-5.00
-4.77
-4.23
-3.76
-3.82
-4.76
-6.55
-8.79
-10.92
-12.44
-13.10
-12.93
-12.15
-10.96
-9.41
-7.40
-4.82
-1.80
1.31
4.03
5.95
6.93
7.16
7.00
6.79
6.66
6.57
6.44
6.22
5.97
5.77
5.70
5.79
5.93
6.06
6.13
6.17
6.22
6.34
6.46
6.43
6.04
5.14
3.75
2.06
0.42
-0.85
-1.58
-1.86
-1.93
-2.09
-2.51
-3.14
-3.74
-4.14
-4.28
-4.37
-4.77
-5.75
-7.33
-9.24
-11.07
-12.41
-13.09
-13.07
-12.45
-11.30
-9.62
-7.45
-4.85
-2.07
0.62
2.94
4.77
6.10
7.06
7.73
8.12
8.09
7.50
6.31
4.75
3.23
2.19
1.97
2.61
3.81
5.10
6.03
6.35
6.13
5.66
5.26
5.11
5.15
5.16
4.94
4.38
3.56
2.68
1.87
1.27
0.82
0.44
0.02
-0.54
-1.29
-2.23
-3.33
-4.54
-5.81
-7.15
-8.56
-9.98
-11.29
-12.27
-12.72
-12.52
-11.75
-10.58
-9.22
-7.77
-6.14
-4.15
-1.71
1.04
3.66
5.63
6.59
6.50
5.67
4.61
3.72
3.23
3.06
3.01
2.91
2.76
2.70
2.89
3.40
4.08
4.70
5.08
5.19
5.14
5.05
4.89
4.47
3.64
2.33
0.79
-0.58
-1.39
-1.44
-0.85
-0.00
0.63
0.69
-0.03
-1.43
-3.25
-5.16
-6.79
-7.97
-8.68
-9.10
-9.46
-9.88
-10.26
-10.26
-9.61
-8.13
-5.99
-3.52
-1.08
1.14
3.12
4.84
6.17
6.83
6.63
5.57
4.06
2.67
1.94
2.06
2.85
3.85
4.64
5.00
4.98
4.79
4.60
4.50
4.44
4.37
4.22
4.02
3.80
3.56
3.20
2.60
1.65
0.37
-1.09
-2.42
-3.36
-3.78
-3.77
-3.56
-3.45
-3.66
-4.21
-5.06
-6.12
-7.38
-8.84
-10.39
-11.77
-12.58
-12.41
-11.06
-8.66
-5.68
-2.72
-0.28
1.41
2.48
3.26
4.08
5.04
5.99
6.60
6.62
6.04
5.11
4.18
3.59
3.44
3.63
3.92
4.10
4.06
3.85
3.65
3.64
3.94
4.48
5.09
5.52
5.59
5.26
4.63
3.90
3.21
2.59
1.94
1.15
0.14
-1.07
-2.31
-3.48
-4.49
-5.34
-6.11
-6.82
-7.46
-7.98
-8.43
-8.89
-9.53
-10.40
-11.31
-11.81
-11.43
-9.85
-7.17
-3.88
-0.65
1.92
3.61
4.56
5.12
5.59
6.08
6.52
6.74
6.69
6.40
6.00
5.61
5.27
5.01
4.78
4.62
4.60
4.80
5.22
5.75
6.14
6.10
5.44
4.22
2.73
1.40
0.60
0.42
0.63
0.90
0.91
0.52
-0.27
-1.39
-2.73
-4.24
-5.82
-7.32
-8.53
-9.28
-9.59
-9.60
-9.52
-9.46
-9.36
-9.00
-8.18
-6.86
-5.19
-3.47
-1.96
-0.76
0.23
1.22
2.39
3.84
5.38
6.71
7.50
7.58
7.07
6.26
5.56
5.23
5.27
5.40
5.33
4.87
4.08
3.17
2.38
1.84
1.50
1.25
1.04
0.92
0.98
1.23
1.53
1.61
1.22
0.23
-1.21
-2.81
-4.25
-5.30
-5.92
-6.21
-6.44
-6.87
-7.69
-8.90
-10.28
-11.48
-12.16
-12.10
-11.25
-9.76
-7.83
-5.64
-3.33
-1.01
1.24
3.25
4.87
5.91
6.23
5.85
4.95
3.78
2.72
2.05
1.90
2.21
2.75
3.23
3.39
3.05
2.17
0.86
-0.66
-2.06
-3.02
-3.35
-3.03
-2.26
-1.32
-0.49
0.04
0.24
0.14
-0.23
-0.90
-1.89
-3.19
-4.68
-6.16
-7.42
-8.32
-8.86
-9.19
-9.63
-10.45
-11.79
-13.49
-15.08
-15.96
-15.53
-13.42
-9.62
-4.39
1.85
8.60
15.38
21.70
27.06
31.08
33.53
34.41
33.95
32.46
30.25
27.51
24.40
21.07
17.70
14.50
11.67
9.31
7.39
5.77
4.19
2.51
0.68
-1.12
-2.63
-3.55
-3.73
-3.31
-2.63
-2.12
-2.13
-2.74
-3.78
-4.94
-5.97
-6.74
-7.29
-7.70
-8.02
-8.25
-8.37
-8.41
-8.43
-8.62
-9.16
-10.12
-11.47
-13.00
-14.34
-15.15
-15.19
-14.46
-13.15
-11.56
-9.88
-8.15
-6.26
-4.10
-1.65
0.89
3.24
5.13
6.44
7.23
7.68
7.92
7.98
7.78
7.16
6.10
4.72
3.30
2.20
1.68
1.87
2.63
3.65
4.63
5.33
5.69
5.73
5.56
5.24
4.75
4.03
3.07
1.95
0.79
-0.30
-1.32
-2.34
-3.48
-4.77
-6.12
-7.34
-8.23
-8.75
-9.00
-9.22
-9.64
-10.25
-10.82
-11.01
-10.55
-9.43
-7.92
-6.31
-4.80
-3.36
-1.82
-0.02
2.08
4.21
6.05
7.28
7.79
7.73
7.44
7.24
7.28
7.38
7.20
6.47
5.19
3.77
2.79
2.75
3.77
5.43
7.01
7.85
7.66
6.66
5.44
4.57
4.34
4.62
5.02
5.14
4.70
3.68
2.16
0.28
-1.73
-3.67
-5.28
-6.30
-6.65
-6.44
-5.97
-5.65
-5.83
-6.69
-8.19
-10.11
-12.08
-13.71
-14.58
-14.39
-13.03
-10.66
-7.66
-4.54
-1.72
0.60
2.44
3.93
5.14
5.94
6.15
5.69
4.70
3.62
2.96
3.01
3.82
5.02
6.18
6.96
7.25
7.22
7.08
6.99
6.94
6.80
6.47
5.97
5.40
4.87
4.46
4.14
3.90
3.64
3.32
2.85
2.20
1.36
0.39
-0.63
-1.62
-2.50
-3.26
-3.92
-4.53
-5.12
-5.74
-6.46
-7.31
-8.33
-9.45
-10.49
-11.22
-11.38
-10.87
-9.73
-8.09
-6.16
-4.08
-1.90
0.35
2.56
4.50
5.86
6.41
6.21
5.55
4.91
4.63
4.82
5.27
5.68
5.80
5.65
5.47
5.51
5.92
6.59
7.16
7.27
6.76
5.75
4.60
3.63
2.97
2.55
2.13
1.55
0.78
-0.03
-0.67
-1.06
-1.24
-1.42
-1.70
-2.16
-2.69
-3.23
-3.77
-4.42
-5.31
-6.45
-7.81
-9.22
-10.51
-11.53
-12.09
-12.05
-11.26
-9.73
-7.63
-5.35
-3.25
-1.53
-0.13
1.24
2.82
4.68
6.55
8.01
8.66
8.40
7.47
6.35
5.51
5.21
5.42
5.89
6.34
6.56
6.56
6.47
6.48
6.71
7.10
7.42
7.38
6.82
5.80
4.61
3.58
2.90
2.53
2.23
1.73
0.92
-0.09
-1.08
-1.84
-2.27
-2.43
-2.47
-2.59
-2.96
-3.66
-4.76
-6.20
-7.88
-9.57
-11.04
-12.10
-12.67
-12.76
-12.44
-11.74
-10.65
-9.12
-7.18
-4.97
-2.69
-0.55
1.34
2.98
4.41
5.60
6.52
7.04
7.13
6.91
6.59
6.44
6.57
6.92
7.23
7.16
6.52
5.36
3.93
2.64
1.80
1.53
1.74
2.17
2.54
2.67
2.54
2.23
1.87
1.55
1.28
0.95
0.44
-0.28
-1.20
-2.16
-2.99
-3.53
-3.73
-3.69
-3.61
-3.77
-4.46
-5.81
-7.73
-9.86
-11.71
-12.76
-12.71
-11.54
-9.55
-7.20
-4.90
-2.84
-1.02
0.67
2.32
3.92
5.34
6.44
7.12
7.32
7.08
6.49
5.67
4.81
4.05
3.50
3.14
2.94
2.87
2.91
3.12
3.48
3.93
4.31
4.46
4.33
3.93
3.40
2.84
2.28
1.71
1.04
0.22
-0.74
-1.74
-2.65
-3.31
-3.65
-3.67
-3.47
-3.25
-3.22
-3.67
-4.84
-6.83
-9.45
-12.25
-14.58
-15.89
-15.91
-14.78
-12.89
-10.70
-8.47
-6.19
-3.78
-1.17
1.51
3.96
5.90
7.17
7.78
7.87
7.64
7.19
6.61
6.00
5.43
5.03
4.86
4.92
5.18
5.51
5.79
5.92
5.83
5.54
5.09
4.54
3.94
3.31
2.71
2.21
1.91
1.78
1.71
1.50
0.98
0.03
-1.24
-2.65
-3.92
-4.84
-5.30
-5.39
-5.36
-5.58
-6.40
-8.01
-10.30
-12.86
-15.14
-16.60
-16.99
-16.34
-14.87
-12.85
-10.45
-7.73
-4.78
-1.77
1.01
3.25
4.74
5.53
5.90
6.17
6.51
6.81
6.85
6.34
5.26
3.88
2.63
1.96
2.02
2.69
3.62
4.47
5.09
5.56
6.08
6.73
7.36
7.65
7.34
6.43
5.24
4.28
3.92
4.24
4.90
5.32
5.01
3.83
2.04
0.14
-1.38
-2.30
-2.76
-3.17
-3.91
-5.18
-6.91
-8.82
-10.61
-12.02
-13.02
-13.58
-13.68
-13.24
-12.13
-10.27
-7.76
-4.84
-1.84
0.94
3.34
5.35
7.04
8.44
9.55
10.30
10.60
10.43
9.80
8.83
7.65
6.43
5.31
4.44
3.92
3.78
3.96
4.29
4.55
4.56
4.25
3.68
3.05
2.55
2.29
2.26
2.32
2.30
2.07
1.61
0.94
0.15
-0.71
-1.61
-2.54
-3.50
-4.50
-5.55
-6.71
-7.99
-9.36
-10.73
-11.93
-12.73
-12.93
-12.39
-11.13
-9.30
-7.13
-4.86
-2.66
-0.61
1.27
3.01
4.58
5.93
7.01
7.74
8.10
8.06
7.66
6.95
6.05
5.13
4.37
3.93
3.89
4.21
4.76
5.37
5.84
6.03
5.90
5.45
4.85
4.26
3.83
3.57
3.28
2.65
1.44
-0.35
-2.46
-4.56
-6.37
-7.86
-9.18
-10.51
-11.87
-13.17
-14.22
-14.95
-15.46
-15.93
-16.47
-17.05
-17.48
-17.55
-17.15
-16.33
-15.15
-13.63
-11.80
-9.76
-7.78
-6.38
-6.09
-7.32
-10.02
-13.67
-17.39
-20.32
-21.96
-22.48
-22.69
-23.71
-26.44
-31.01
-36.63
-41.81
-44.96
-45.12
-42.39
-38.02
-34.08
-32.76
-35.67
-43.07
-53.53
-63.78
-69.34
-65.53
-49.14
-19.92
18.64
59.95
96.35
121.74
133.95
135.29
131.41
128.91
132.81
145.02
164.21
186.58
207.07
220.34
221.74
208.31
179.86
139.52
93.32
48.50
11.24
-15.27
-31.31
-39.69
-43.95
-46.80
-49.54
-52.35
-55.08
-57.73
-60.39
-62.90
-64.72
-65.09
-63.61
-60.54
-56.83
-53.59
-51.58
-50.89
-50.90
-50.72
-49.56
-47.11
-43.58
-39.51
-35.61
-32.49
-30.48
-29.64
-29.67
-30.06
-30.26
-29.84
-28.71
-27.08
-25.37
-23.92
-22.84
-21.91
-20.74
-18.93
-16.29
-12.91
-9.12
-5.36
-2.07
0.49
2.28
3.41
4.11
4.50
4.60
4.39
3.85
3.18
2.67
2.62
3.20
4.28
5.56
6.64
7.25
7.31
6.99
6.48
5.98
5.52
4.98
4.27
3.33
2.25
1.16
0.12
-0.79
-1.67
-2.58
-3.50
-4.35
-5.05
-5.59
-6.07
-6.70
-7.63
-8.87
-10.16
-11.17
-11.55
-11.10
-9.80
-7.75
-5.17
-2.24
0.78
3.69
6.27
8.40
9.99
10.96
11.22
10.68
9.35
7.43
5.35
3.64
2.76
2.91
3.87
5.17
6.28
6.94
7.17
7.22
7.31
7.46
7.46
7.08
6.22
5.02
3.78
2.75
2.00
1.48
0.93
0.22
-0.67
-1.67
-2.66
-3.55
-4.32
-5.11
-6.12
-7.57
-9.56
-11.96
-14.37
-16.21
-16.96
-16.33
-14.42
-11.62
-8.47
-5.33
-2.36
0.45
3.13
5.57
7.49
8.63
8.94
8.64
8.16
7.89
8.04
8.48
8.90
9.01
8.71
8.16
7.64
7.37
7.40
7.62
7.81
7.84
7.70
7.45
7.22
7.06
6.92
6.74
6.44
5.95
5.20
4.11
2.62
0.73
-1.37
-3.35
-4.84
-5.54
-5.42
-4.77
-4.12
-4.07
-5.02
-6.99
-9.60
-12.24
-14.36
-15.69
-16.24
-16.17
-15.60
-14.50
-12.71
-10.14
-6.95
-3.49
-0.25
2.44
4.47
5.97
7.15
8.08
8.67
8.73
8.19
7.19
6.03
5.12
4.71
4.87
5.41
6.05
6.56
6.85
6.97
7.08
7.30
7.64
8.06
8.46
8.79
9.01
9.11
9.04
8.75
8.24
7.50
6.59
5.54
4.36
3.03
1.57
0.06
-1.40
-2.67
-3.70
-4.47
-5.06
-5.56
-6.02
-6.54
-7.21
-8.11
-9.30
-10.78
-12.40
-13.92
-15.06
-15.55
-15.24
-14.08
-12.18
-9.74
-7.03
-4.30
-1.76
0.50
2.49
4.22
5.72
6.97
7.89
8.41
8.52
8.32
7.91
7.44
6.96
6.51
6.12
5.89
5.95
6.39
7.19
8.14
8.91
9.19
8.79
7.78
6.39
5.00
3.91
3.28
3.05
3.00
2.88
2.50
1.81
0.86
-0.17
-1.18
-2.07
-2.86
-3.57
-4.22
-4.78
-5.21
-5.59
-6.13
-7.13
-8.78
-11.05
-13.59
-15.80
-17.09
-17.06
-15.70
-13.32
-10.45
-7.53
-4.85
-2.48
-0.40
1.43
3.04
4.40
5.50
6.33
6.89
7.19
7.25
7.15
6.97
6.81
6.72
6.70
6.71
6.72
6.74
6.82
7.00
7.25
7.45
7.45
7.14
6.57
5.91
5.40
5.17
5.24
5.40
5.39
5.06
4.37
3.46
2.47
1.37
0.02
-1.69
-3.66
-5.59
-7.10
-7.97
-8.30
-8.45
-8.82
-9.59
-10.66
-11.70
-12.38
-12.55
-12.31
-11.89
-11.45
-10.95
-10.13
-8.74
-6.67
-4.08
-1.26
1.38
3.55
5.10
6.00
6.44
6.52
6.42
6.26
6.14
6.13
6.29
6.60
6.96
7.22
7.21
6.88
6.28
5.58
5.02
4.76
4.87
5.18
5.50
5.62
5.48
5.19
4.89
4.69
4.50
4.06
3.11
1.63
-0.18
-1.93
-3.28
-4.18
-4.85
-5.67
-6.88
-8.47
-10.13
-11.52
-12.46
-13.00
-13.39
-13.80
-14.22
-14.42
-14.08
-13.06
-11.45
-9.47
-7.37
-5.31
-3.32
-1.39
0.45
2.14
3.55
4.63
5.38
5.89
6.30
6.71
7.16
7.59
7.88
7.94
7.76
7.45
7.21
7.18
7.37
7.65
7.82
7.69
7.17
6.29
5.12
3.77
2.32
0.89
-0.40
-1.45
-2.21
-2.73
-3.09
-3.36
-3.59
-3.78
-4.00
-4.37
-5.10
-6.35
-8.07
-9.99
-11.71
-12.82
-13.18
-12.87
-12.14
-11.20
-10.10
-8.68
-6.74
-4.18
-1.13
2.04
4.88
7.04
8.42
9.14
9.48
9.61
9.53
9.12
8.31
7.16
5.90
4.82
4.06
3.66
3.45
3.27
3.06
2.85
2.74
2.77
2.91
3.02
3.00
2.78
2.40
1.93
1.40
0.74
-0.17
-1.37
-2.83
-4.31
-5.50
-6.17
-6.25
-6.00
-5.85
-6.23
-7.33
-8.98
-10.72
-12.03
-12.51
-12.05
-10.80
-9.03
-6.96
-4.78
-2.60
-0.55
1.28
2.79
3.94
4.78
5.37
5.74
5.87
5.71
5.23
4.54
3.79
3.17
2.75
2.46
2.18
1.86
1.57
1.46
1.68
2.19
2.83
3.35
3.56
3.43
3.07
2.72
2.56
2.68
3.06
3.56
4.02
4.32
4.40
4.24
3.90
3.41
2.83
2.17
1.53
1.00
0.59
0.19
-0.42
-1.50
-3.11
-5.04
-6.86
-8.12
-8.64
-8.55
-8.25
-8.15
-8.45
-9.02
-9.53
-9.58
-8.93
-7.55
-5.61
-3.33
-0.93
1.45
3.71
5.74
7.42
8.54
8.97
8.70
7.94
7.03
6.30
5.94
5.92
6.07
6.16
6.11
5.90
5.63
5.33
4.99
4.56
4.03
3.43
2.82
2.11
1.21
0.04
-1.34
-2.72
-3.91
-4.85
-5.65
-6.49
-7.46
-8.49
-9.41
-10.07
-10.46
-10.76
-11.22
-11.96
-12.92
-13.89
-14.58
-14.76
-14.24
-12.94
-10.83
-8.03
-4.79
-1.50
1.47
3.91
5.75
7.10
8.13
8.95
9.57
9.93
9.97
9.74
9.33
8.91
8.62
8.49
8.44
8.37
8.22
8.07
8.04
8.25
8.65
9.07
9.28
9.06
8.38
7.39
6.32
5.39
4.74
4.36
4.07
3.57
2.58
0.97
-1.13
-3.36
-5.24
-6.41
-6.79
-6.66
-6.45
-6.62
-7.42
-8.87
-10.73
-12.70
-14.45
-15.65
-16.06
-15.49
-13.91
-11.42
-8.30
-4.91
-1.59
1.40
3.92
5.95
7.51
8.64
9.40
9.84
10.04
9.96
9.55
8.75
7.56
6.08
4.52
3.16
2.24
1.89
2.14
2.92
4.06
5.36
6.56
7.50
8.09
8.34
8.39
8.40
8.47
8.51
8.29
7.56
6.25
4.43
2.41
0.52
-1.05
-2.30
-3.47
-4.86
-6.72
-9.19
-12.22
-15.56
-18.83
-21.55
-23.25
-23.57
-22.37
-19.80
-16.22
-12.17
-8.19
-4.66
-1.74
0.64
2.71
4.68
6.65
8.53
10.04
10.91
11.04
10.54
9.76
9.02
8.55
8.38
8.41
8.60
8.96
9.53
10.25
10.83
10.86
10.06
8.46
6.52
4.91
4.21
4.55
5.53
6.41
6.43
5.23
2.96
0.15
-2.48
-4.41
-5.47
-5.80
-5.70
-5.45
-5.29
-5.44
-6.14
-7.53
-9.63
-12.23
-14.86
-17.00
-18.14
-18.02
-16.66
-14.29
-11.26
-7.92
-4.57
-1.44
1.32
3.63
5.50
6.97
8.09
8.83
9.12
8.94
8.41
7.68
6.98
6.48
6.25
6.34
6.69
7.23
7.82
8.28
8.42
8.15
7.50
6.64
5.81
5.20
4.87
4.76
4.71
4.52
4.00
3.01
1.52
-0.33
-2.26
-3.92
-5.05
-5.64
-5.90
-6.18
-6.73
-7.61
-8.65
-9.69
-10.63
-11.51
-12.36
-13.01
-13.13
-12.33
-10.47
-7.85
-5.12
-2.87
-1.34
-0.31
0.71
2.09
3.82
5.52
6.70
7.14
6.99
6.71
6.69
7.07
7.68
8.20
8.43
8.40
8.28
8.20
8.15
7.88
7.22
6.13
4.85
3.78
3.22
3.32
3.84
4.41
4.62
4.25
3.31
1.97
0.51
-0.92
-2.25
-3.45
-4.49
-5.32
-5.98
-6.62
-7.55
-8.98
-10.97
-13.29
-15.54
-17.29
-18.26
-18.43
-17.91
-16.85
-15.28
-13.13
-10.36
-7.05
-3.48
0.01
3.11
5.64
7.60
9.07
10.12
10.79
11.13
11.12
10.87
10.49
10.12
9.86
9.80
9.94
10.16
10.29
10.10
9.45
8.43
7.27
6.35
5.90
6.00
6.42
6.83
6.88
6.44
5.60
4.61
3.73
3.04
2.38
1.47
0.12
-1.67
-3.61
-5.30
-6.47
-7.02
-7.20
-7.28
-7.53
-8.05
-8.80
-9.72
-10.81
-12.16
-13.86
-15.81
-17.69
-19.02
-19.27
-18.14
-15.59
-11.91
-7.66
-3.41
0.35
3.36
5.61
7.23
8.33
8.98
9.20
9.00
8.53
7.99
7.60
7.46
7.55
7.76
7.94
8.03
7.99
7.91
7.83
7.83
7.93
8.12
8.30
8.34
8.12
7.56
6.72
5.73
4.73
3.86
3.19
2.65
2.09
1.30
0.08
-1.61
-3.59
-5.54
-7.09
-8.02
-8.34
-8.32
-8.33
-8.67
-9.48
-10.66
-12.03
-13.36
-14.45
-15.07
-14.97
-13.98
-12.00
-9.15
-5.76
-2.26
1.00
3.78
5.96
7.52
8.39
8.54
8.07
7.24
6.43
5.94
5.90
6.16
6.46
6.57
6.50
6.49
6.82
7.62
8.74
9.69
9.95
9.26
7.72
5.82
4.18
3.21
3.01
3.28
3.59
3.62
3.29
2.75
2.15
1.53
0.75
-0.34
-1.79
-3.44
-5.01
-6.26
-7.15
-7.79
-8.32
-8.91
-9.59
-10.37
-11.27
-12.34
-13.53
-14.68
-15.49
-15.69
-15.11
-13.79
-11.92
-9.66
-7.14
-4.37
-1.38
1.69
4.56
6.89
8.42
9.10
9.12
8.81
8.40
7.96
7.43
6.69
5.78
4.86
4.18
3.94
4.22
4.86
5.66
6.39
6.92
7.23
7.36
7.35
7.21
6.88
6.27
5.35
4.12
2.70
1.30
0.09
-0.80
-1.42
-1.93
-2.51
-3.26
-4.14
-5.02
-5.82
-6.54
-7.34
-8.39
-9.78
-11.46
-13.22
-14.81
-16.03
-16.72
-16.77
-16.15
-14.82
-12.88
-10.46
-7.80
-5.10
-2.48
0.03
2.45
4.77
6.83
8.43
9.38
9.61
9.31
8.71
8.10
7.59
7.15
6.72
6.26
5.87
5.62
5.51
5.42
5.18
4.67
4.00
3.33
2.88
2.74
2.78
2.76
2.40
1.57
0.33
-1.10
-2.44
-3.51
-4.32
-5.04
-5.88
-6.95
-8.11
-9.12
-9.77
-10.01
-10.09
-10.38
-11.16
-12.37
-13.62
-14.37
-14.20
-13.01
-11.04
-8.66
-6.23
-3.88
-1.58
0.77
3.15
5.43
7.32
8.58
9.09
8.94
8.34
7.57
6.81
6.17
5.66
5.25
4.98
4.87
4.96
5.23
5.63
6.06
6.44
6.68
6.69
6.39
5.76
4.82
3.67
2.40
1.11
-0.15
-1.32
-2.41
-3.44
-4.48
-5.65
-7.05
-8.70
-10.52
-12.33
-13.88
-14.98
-15.52
-15.50
-15.01
-14.14
-12.94
-11.42
-9.57
-7.37
-4.88
-2.21
0.47
2.94
4.96
6.31
6.81
6.37
5.14
3.46
1.83
0.75
0.56
1.30
2.71
4.44
6.16
7.79
9.36
10.99
12.61
13.95
14.58
14.26
13.11
11.56
10.21
9.41
9.20
9.20
8.99
8.35
7.36
6.36
5.56
4.98
4.37
3.39
1.92
0.09
-1.87
-3.88
-6.19
-9.23
-13.29
-18.23
-23.34
-27.65
-30.36
-31.13
-30.35
-28.82
-27.39
-26.63
-26.58
-26.81
-26.70
-25.82
-24.17
-22.31
-21.10
-21.40
-23.61
-27.50
-32.22
-36.61
-39.79
-41.36
-41.68
-41.60
-42.15
-44.29
-48.63
-55.29
-63.63
-71.97
-77.47
-76.58
-66.10
-44.48
-12.93
24.52
62.06
94.02
116.75
129.47
134.01
133.39
130.45
126.96
123.58
120.50
117.91
116.05
114.88
113.70
111.14
105.66
96.18
82.71
66.35
48.70
31.21
14.46
-1.98
-19.23
-38.43
-60.12
-83.74
-107.50
-128.54
-143.32
-148.44
-141.71
-123.24
-95.83
-64.49
-34.87
-11.27
4.70
14.40
21.05
27.80
36.16
45.56
54.04
59.75
62.13
62.30
62.27
63.60
66.39
69.05
69.07
64.36
54.39
40.50
25.18
10.85
-1.08
-10.52
-18.16
-24.69
-30.28
-34.69
-37.60
-39.10
-39.65
-39.82
-39.87
-39.54
-38.21
-35.26
-30.42
-23.99
-16.69
-9.46
-3.18
1.48
4.36
5.92
7.41
10.45
16.44
25.72
37.07
47.99
55.46
57.27
52.91
43.71
32.25
21.13
12.11
5.73
1.57
-1.12
-2.87
-3.96
-4.57
-4.92
-5.34
-6.12
-7.43
-9.26
-11.55
-14.32
-17.67
-21.73
-26.51
-31.87
-37.52
-43.22
-48.73
-53.98
-58.98
-63.85
-68.79
-73.78
-78.39
-81.28
-80.12
-72.13
-55.14
-29.05
3.45
37.20
66.14
85.38
92.96
90.10
80.23
67.23
53.90
41.48
30.04
19.36
9.62
1.41
-4.44
-7.26
-6.44
-1.42
8.19
22.13
39.09
56.43
70.85
79.39
80.50
74.50
63.16
48.96
34.10
20.22
8.39
-0.70
-6.65
-9.57
-10.25
-10.10
-10.63
-12.94
-17.40
-23.66
-30.97
-38.51
-45.57
-51.51
-55.82
-58.12
-58.27
-56.57
-53.58
-49.93
-46.11
-42.29
-38.44
-34.46
-30.41
-26.57
-23.34
-20.98
-19.53
-18.69
-17.99
-17.00
-15.48
-13.55
-11.56
-9.90
-8.79
-8.21
-7.83
-7.29
-6.36
-5.05
-3.60
-2.31
-1.35
-0.72
-0.21
0.36
1.08
1.81
2.28
2.21
1.53
0.32
-1.17
-2.66
-3.97
-5.07
-6.01
-6.85
-7.69
-8.63
-9.81
-11.38
-13.30
-15.31
-16.92
-17.62
-17.14
-15.55
-13.23
-10.61
-7.93
-5.17
-2.20
0.94
3.86
5.92
6.44
5.00
1.57
-3.47
-9.42
-15.38
-20.32
-23.21
-23.32
-20.35
-14.63
-6.96
1.66
10.44
18.96
27.08
34.74
41.59
47.07
50.47
51.23
49.25
44.91
39.08
32.85
27.21
22.75
19.50
17.01
14.58
11.65
7.97
3.79
-0.34
-3.69
-5.67
-5.92
-4.39
-1.35
2.77
7.40
11.98
15.98
18.99
20.72
20.97
19.67
16.91
13.04
8.60
4.31
0.82
-1.43
-2.36
-2.28
-1.74
-1.39
-1.69
-2.85
-4.69
-6.73
-8.36
-8.93
-7.96
-5.17
-0.76
4.39
8.59
9.61
5.45
-4.73
-19.88
-37.13
-52.53
-62.46
-64.90
-59.91
-49.33
-35.85
-21.96
-9.36
1.10
9.09
14.46
17.14
17.26
15.29
12.07
8.65
6.01
4.72
4.78
5.73
6.87
7.59
7.60
7.01
6.27
5.88
6.22
7.34
8.94
10.50
11.51
11.67
11.01
9.86
8.73
8.08
8.14
8.87
9.91
10.75
10.88
10.05
8.34
6.14
3.99
2.30
1.18
0.43
-0.36
-1.49
-3.08
-4.89
-6.60
-7.89
-8.67
-9.13
-9.55
-10.19
-11.17
-12.47
-14.01
-15.68
-17.36
-18.84
-19.81
-19.95
-18.97
-16.83
-13.75
-10.06
-6.10
-2.01
2.18
6.44
10.62
14.39
17.35
19.20
19.89
19.60
18.54
16.92
14.83
12.39
9.80
7.40
5.55
4.47
4.13
4.26
4.46
4.44
4.08
3.49
2.88
2.42
2.15
1.93
1.59
0.95
-0.03
-1.26
-2.65
-4.15
-5.76
-7.61
-9.76
-12.16
-14.60
-16.70
-18.08
-18.45
-17.74
-16.11
-13.89
-11.45
-9.09
-7.06
-5.52
-4.59
-4.28
-4.57
-5.31
-6.31
-7.42
-8.56
-9.78
-11.11
-12.61
-14.24
-15.91
-17.46
-18.70
-19.49
-19.77
-19.66
-19.49
-19.76
-20.96
-23.42
-27.09
-31.49
-35.84
-39.25
-41.02
-40.85
-38.75
-34.92
-29.45
-22.30
-13.35
-2.60
9.66
22.71
35.53
46.89
55.41
59.70
58.66
51.95
40.48
26.82
14.83
8.73
11.58
24.12
44.30
67.98
90.38
107.72
118.30
122.75
123.46
123.58
125.77
131.42
140.29
150.51
159.05
162.28
156.82
140.40
112.72
75.91
34.33
-6.39
-40.80
-65.13
-78.17
-81.30
-77.67
-70.78
-63.40
-56.78
-50.77
-44.49
-37.13
-28.63
-19.78
-11.75
-5.46
-1.17
1.23
1.50
-1.65
-10.35
-26.49
-50.29
-79.37
-109.18
-134.63
-152.18
-161.05
-163.14
-161.63
-159.16
-156.57
-152.69
-144.94
-130.41
-106.95
-74.14
-33.93
9.43
50.15
82.64
103.35
111.86
110.80
104.22
95.47
85.90
74.84
60.95
43.69
24.11
4.30
-13.99
-30.37
-45.95
-62.24
-79.79
-97.31
-112.13
-121.19
-122.24
-114.25
-97.18
-71.65
-39.03
-1.99
35.16
67.03
88.73
97.65
94.60
83.40
69.16
56.28
46.93
41.08
37.45
34.72
32.18
29.67
27.07
23.88
19.46
13.39
6.05
-1.60
-8.39
-13.56
-17.45
-21.26
-26.65
-34.75
-45.26
-55.80
-62.20
-59.77
-45.30
-18.98
14.97
49.22
76.04
90.02
89.97
78.82
61.90
44.48
29.84
18.83
10.40
2.85
-5.47
-15.63
-28.17
-43.07
-59.29
-74.32
-84.14
-84.22
-71.34
-45.59
-11.24
24.21
52.58
68.24
70.12
61.75
49.18
38.00
31.10
28.19
26.88
24.31
18.62
9.10
-3.96
-19.41
-35.00
-47.05
-51.06
-43.21
-22.53
8.04
41.80
70.55
87.54
89.78
78.70
59.01
36.46
15.67
-0.77
-12.26
-19.35
-23.06
-24.79
-26.37
-29.99
-37.63
-49.87
-64.88
-78.15
-83.58
-75.79
-52.86
-17.80
21.86
56.78
79.36
86.49
80.15
65.69
48.86
33.37
20.06
8.02
-3.77
-14.88
-23.53
-27.73
-26.90
-22.67
-18.47
-18.14
-24.08
-36.15
-51.50
-65.53
-73.28
-70.76
-56.04
-29.82
4.48
41.29
74.17
97.56
108.42
106.96
96.18
80.30
62.95
46.26
31.01
17.42
6.06
-2.12
-6.47
-7.29
-6.05
-4.79
-5.18
-7.81
-12.13
-16.89
-20.75
-22.88
-23.11
-21.86
-19.83
-17.79
-16.37
-15.92
-16.43
-17.56
-18.92
-20.22
-21.45
-22.82
-24.53
-26.55
-28.40
-29.36
-28.75
-26.29
-22.19
-17.18
-12.04
-7.40
-3.47
-0.18
2.69
5.24
7.32
8.72
9.27
8.98
8.10
6.97
5.90
5.05
4.40
3.79
3.11
2.31
1.49
0.93
0.89
1.65
3.36
5.99
9.16
12.09
13.57
12.41
7.90
0.30
-8.97
-17.80
-24.14
-26.81
-25.84
-22.22
-17.32
-12.22
-7.43
-3.08
0.77
3.79
5.49
5.43
3.61
0.55
-2.86
-5.65
-7.06
-6.83
-5.13
-2.36
0.97
4.37
7.45
9.91
11.59
12.49
12.86
13.03
13.31
13.83
14.42
14.76
14.53
13.54
11.82
9.50
6.75
3.74
0.67
-2.18
-4.43
-5.69
-5.81
-4.90
-3.37
-1.73
-0.50
0.07
-0.10
-0.83
-1.83
-2.77
-3.36
-3.49
-3.30
-3.11
-3.27
-4.02
-5.34
-6.98
-8.63
-10.09
-11.32
-12.37
-13.28
-13.88
-13.89
-13.05
-11.31
-8.89
-6.23
-3.78
-1.76
-0.15
1.32
2.95
4.94
7.28
9.72
11.86
13.21
13.38
12.20
9.82
6.76
3.69
1.29
-0.08
-0.35
0.19
1.17
2.27
3.27
4.10
4.68
4.94
4.73
4.03
2.90
1.50
-0.03
-1.69
-3.65
-6.10
-9.06
-12.33
-15.50
-18.08
-19.73
-20.29
-19.80
-18.41
-16.26
-13.49
-10.24
-6.71
-3.15
0.17
3.07
5.48
7.41
8.96
10.22
11.25
12.05
12.59
12.83
12.73
12.28
11.50
10.43
9.14
7.69
6.23
4.98
4.17
4.06
4.70
5.93
7.31
8.26
8.21
6.83
4.17
0.59
-3.32
-6.98
-10.03
-12.36
-14.11
-15.50
-16.71
-17.68
-18.24
-18.12
-17.19
-15.51
-13.29
-10.75
-8.01
-5.06
-1.90
1.37
4.49
7.11
8.99
10.10
10.68
11.09
11.60
12.30
13.02
13.54
13.64
13.31
12.66
11.90
11.21
10.66
10.16
9.58
8.83
7.92
7.00
6.21
5.60
5.09
4.50
3.63
2.42
0.94
-0.70
-2.44
-4.31
-6.37
-8.62
-10.88
-12.78
-13.89
-13.82
-12.44
-9.87
-6.49
-2.77
0.85
4.10
6.83
8.94
10.31
10.79
10.30
8.99
7.25
5.62
4.60
4.43
5.01
6.02
7.05
7.75
7.94
7.60
6.81
5.66
4.27
2.74
1.19
-0.19
-1.20
-1.72
-1.79
-1.63
-1.62
-2.10
-3.29
-5.11
-7.32
-9.52
-11.40
-12.84
-13.85
-14.52
-14.82
-14.55
-13.43
-11.20
-7.83
-3.56
1.00
5.19
8.40
10.32
11.04
10.95
10.57
10.24
10.09
9.95
9.65
9.11
8.41
7.73
7.20
6.85
6.53
6.15
5.68
5.27
5.11
5.32
5.84
6.36
6.46
5.80
4.33
2.23
0.00
-1.83
-2.90
-3.09
-2.69
-2.22
-2.31
-3.37
-5.50
-8.45
-11.72
-14.78
-17.19
-18.74
-19.29
-18.80
-17.32
-15.02
-12.23
-9.32
-6.58
-4.10
-1.80
0.44
2.64
4.65
6.28
7.43
8.21
8.90
9.72
10.67
11.50
11.88
11.63
10.81
9.75
8.77
8.08
7.65
7.34
7.00
6.60
6.26
6.14
6.31
6.74
7.16
7.27
6.79
5.58
3.77
1.63
-0.48
-2.30
-3.68
-4.68
-5.40
-5.97
-6.49
-7.03
-7.65
-8.43
-9.45
-10.77
-12.35
-13.99
-15.34
-16.03
-15.74
-14.38
-12.08
-9.15
-5.93
-2.65
0.56
3.65
6.52
8.93
10.60
11.29
10.99
9.92
8.48
7.14
6.23
5.88
6.05
6.57
7.26
8.00
8.67
9.17
9.42
9.36
8.99
8.34
7.43
6.25
4.78
3.11
1.41
0.00
-0.81
-0.88
-0.31
0.57
1.30
1.50
1.02
-0.15
-1.83
-3.80
-5.85
-7.76
-9.34
-10.42
-11.01
-11.32
-11.70
-12.52
-13.95
-15.87
-17.87
-19.43
-20.13
-19.75
-18.31
-15.98
-12.98
-9.54
-5.89
-2.24
1.17
4.16
6.59
8.42
9.67
10.39
10.57
10.21
9.39
8.24
6.97
5.84
5.05
4.77
5.03
5.77
6.82
7.94
8.84
9.32
9.32
8.89
8.21
7.47
6.74
6.02
5.27
4.43
3.56
2.81
2.30
2.06
1.96
1.79
1.34
0.56
-0.48
-1.62
-2.81
-4.13
-5.72
-7.59
-9.51
-11.06
-11.86
-11.74
-10.97
-10.08
-9.71
-10.31
-11.95
-14.38
-17.04
-19.30
-20.57
-20.39
-18.60
-15.35
-11.15
-6.72
-2.75
0.36
2.54
4.08
5.35
6.60
7.77
8.63
8.86
8.29
6.98
5.25
3.57
2.46
2.32
3.34
5.41
7.94
9.93
10.12
7.43
1.45
-7.22
-17.05
-26.01
-32.36
-35.13
-34.39
-30.98
-25.96
-20.07
-13.50
-5.96
2.86
12.77
22.85
31.59
37.39
39.23
37.13
32.14
25.87
19.79
14.67
10.47
6.72
2.98
-0.82
-4.35
-7.21
-9.23
-10.49
-11.27
-11.75
-11.90
-11.44
-10.10
-7.80
-4.81
-1.60
1.32
3.58
5.12
6.14
6.95
7.80
8.74
9.60
10.05
9.78
8.61
6.67
4.36
2.28
0.99
0.86
1.91
3.81
6.01
7.94
9.13
9.43
8.88
7.71
6.27
4.90
3.88
3.37
3.36
3.64
3.91
3.87
3.40
2.52
1.42
0.35
-0.59
-1.37
-2.12
-2.97
-4.03
-5.28
-6.63
-7.99
-9.23
-10.27
-11.05
-11.56
-11.85
-12.12
-12.71
-13.95
-16.04
-18.83
-21.74
-23.92
-24.53
-23.09
-19.65
-14.81
-9.42
-4.25
0.18
3.72
6.48
8.61
10.24
11.38
12.02
12.15
11.84
11.21
10.44
9.72
9.24
9.06
9.13
9.31
9.42
9.38
9.19
8.96
8.81
8.74
8.64
8.43
8.06
7.59
7.14
6.75
6.40
5.94
5.32
4.47
3.41
2.12
0.67
-0.86
-2.30
-3.48
-4.30
-4.82
-5.19
-5.57
-6.03
-6.50
-6.87
-7.13
-7.39
-7.88
-8.77
-10.06
-11.68
-13.48
-15.35
-17.17
-18.74
-19.69
-19.62
-18.24
-15.59
-12.02
-8.05
-4.20
-0.82
1.97
4.19
5.91
7.25
8.32
9.20
9.98
10.64
11.09
11.23
10.98
10.36
9.53
8.72
8.10
7.72
7.52
7.37
7.19
6.95
6.75
6.71
6.90
7.31
7.78
8.15
8.24
7.99
7.40
6.51
5.36
3.95
2.33
0.59
-1.11
-2.55
-3.55
-4.05
-4.13
-3.98
-3.82
-3.88
-4.33
-5.27
-6.70
-8.56
-10.71
-12.95
-15.10
-16.98
-18.40
-19.18
-19.13
-18.12
-16.15
-13.36
-10.11
-6.78
-3.71
-1.07
1.16
3.08
4.78
6.23
7.27
7.72
7.59
7.09
6.63
6.62
7.21
8.27
9.35
9.98
9.85
8.97
7.63
6.26
5.26
4.87
5.10
5.84
6.84
7.85
8.60
8.89
8.62
7.88
6.81
5.64
4.53
3.52
2.57
1.60
0.60
-0.29
-0.93
-1.22
-1.21
-1.12
-1.22
-1.78
-2.88
-4.44
-6.26
-8.14
-9.96
-11.69
-13.31
-14.80
-16.04
-16.90
-17.28
-17.12
-16.47
-15.42
-13.99
-12.21
-10.11
-7.73
-5.22
-2.78
-0.58
1.30
2.90
4.38
5.87
7.44
9.02
10.40
11.37
11.75
11.45
10.56
9.23
7.76
6.42
5.48
5.08
5.25
5.94
7.00
8.26
9.44
10.21
10.25
9.40
7.74
5.61
3.50
1.83
0.81
0.39
0.36
0.45
0.54
0.62
0.69
0.75
0.63
0.13
-0.89
-2.38
-4.09
-5.77
-7.27
-8.66
-10.11
-11.81
-13.72
-15.60
-17.07
-17.86
-17.89
-17.33
-16.43
-15.36
-14.11
-12.50
-10.33
-7.59
-4.48
-1.35
1.45
3.73
5.55
7.09
8.55
10.00
11.23
11.94
11.89
11.03
9.64
8.23
7.24
6.88
6.97
7.07
6.80
6.07
5.21
4.74
5.09
6.25
7.74
8.84
8.95
7.95
6.25
4.50
3.23
2.63
2.46
2.32
1.90
1.14
0.16
-0.96
-2.26
-3.88
-5.89
-8.12
-10.19
-11.69
-12.43
-12.53
-12.39
-12.45
-12.99
-13.98
-15.16
-16.14
-16.63
-16.54
-15.86
-14.71
-13.13
-11.08
-8.53
-5.50
-2.11
1.34
4.52
7.13
9.04
10.29
11.08
11.54
11.76
11.66
11.15
10.19
8.91
7.56
6.43
5.68
5.36
5.40
5.68
6.12
6.67
7.29
7.85
8.16
8.00
7.26
6.00
4.50
3.10
2.15
1.77
1.88
2.22
2.47
2.38
1.85
0.95
-0.20
-1.46
-2.80
-4.23
-5.77
-7.34
-8.81
-9.98
-10.78
-11.28
-11.75
-12.48
-13.67
-15.24
-16.87
-18.11
-18.53
-17.91
-16.31
-13.97
-11.21
-8.32
-5.48
-2.74
-0.08
2.53
5.06
7.41
9.43
10.94
11.81
12.02
11.64
10.84
9.80
8.70
7.66
6.79
6.20
5.99
6.23
6.88
7.77
8.63
9.19
9.30
8.92
8.14
7.08
5.90
4.74
3.76
3.08
2.74
2.67
2.61
2.31
1.52
0.20
-1.47
-3.25
-4.90
-6.29
-7.47
-8.49
-9.44
-10.30
-11.08
-11.81
-12.62
-13.55
-14.54
-15.39
-15.85
-15.76
-15.08
-13.86
-12.13
-9.86
-7.00
-3.59
0.12
3.79
7.04
9.65
11.53
12.71
13.22
13.03
12.14
10.69
9.00
7.50
6.49
6.04
6.04
6.32
6.76
7.39
8.28
9.40
10.55
11.42
11.70
11.22
9.96
8.04
5.70
3.25
1.04
-0.56
-1.34
-1.32
-0.81
-0.27
-0.11
-0.50
-1.40
-2.57
-3.82
-5.14
-6.66
-8.53
-10.75
-13.14
-15.37
-17.13
-18.28
-18.81
-18.83
-18.46
-17.79
-16.84
-15.57
-13.98
-11.97
-9.50
-6.52
-3.09
0.64
4.39
7.80
10.49
12.18
12.81
12.56
11.83
11.03
10.49
10.26
10.23
10.17
9.99
9.76
9.72
10.11
10.98
12.13
13.16
13.71
13.62
12.98
12.01
10.88
9.63
8.23
6.62
4.87
3.21
1.91
1.13
0.83
0.79
0.73
0.41
-0.28
-1.32
-2.64
-4.15
-5.78
-7.43
-8.99
-10.34
-11.45
-12.38
-13.29
-14.34
-15.58
-16.93
-18.21
-19.20
-19.78
-19.79
-19.15
-17.70
-15.31
-11.97
-7.79
-3.08
1.78
6.36
10.25
13.11
14.72
15.05
14.29
12.82
11.15
9.72
8.76
8.32
8.24
8.40
8.78
9.42
10.35
11.45
12.46
13.09
13.13
12.57
11.59
10.38
9.14
7.97
6.92
6.02
5.35
4.96
4.80
4.71
4.45
3.80
2.64
1.00
-0.97
-3.05
-5.07
-6.88
-8.41
-9.64
-10.64
-11.52
-12.41
-13.39
-14.48
-15.63
-16.74
-17.70
-18.39
-18.60
-18.16
-16.87
-14.62
-11.45
-7.54
-3.19
1.23
5.32
8.71
11.07
12.29
12.45
11.92
11.17
10.60
10.37
10.39
10.43
10.26
9.79
9.16
8.63
8.49
8.86
9.59
10.32
10.71
10.54
9.90
9.01
8.12
7.37
6.69
5.98
5.20
4.42
3.85
3.61
3.66
3.78
3.67
3.10
2.05
0.57
-1.27
-3.46
-5.98
-8.64
-11.14
-13.03
-13.99
-13.97
-13.25
-12.43
-12.18
-12.96
-14.81
-17.34
-19.82
-21.53
-21.97
-20.98
-18.73
-15.49
-11.55
-7.12
-2.36
2.42
6.85
10.42
12.79
13.87
13.91
13.35
12.65
12.07
11.68
11.41
11.19
11.08
11.14
11.41
11.76
11.95
11.77
11.19
10.40
9.62
9.01
8.53
7.98
7.26
6.41
5.68
5.34
5.53
6.11
6.65
6.62
5.59
3.51
0.64
-2.43
-5.05
-6.79
-7.49
-7.42
-6.98
-6.61
-6.62
-7.12
-8.03
-9.27
-10.82
-12.73
-15.11
-17.94
-20.94
-23.60
-25.25
-25.30
-23.42
-19.74
-14.82
-9.44
-4.30
0.10
3.68
6.53
8.82
10.57
11.72
12.21
12.05
11.44
10.71
10.20
10.16
10.63
11.44
12.27
12.75
12.63
11.85
10.63
9.33
8.34
7.92
8.04
8.47
8.86
8.90
8.50
7.80
7.01
6.32
5.72
5.01
3.99
2.57
0.85
-0.95
-2.71
-4.44
-6.23
-8.17
-10.11
-11.77
-12.84
-13.23
-13.23
-13.31
-13.97
-15.46
-17.65
-20.08
-22.19
-23.53
-23.83
-23.06
-21.24
-18.46
-14.79
-10.38
-5.48
-0.45
4.24
8.20
11.15
13.04
13.98
14.20
13.98
13.54
13.10
12.76
12.65
12.76
12.97
13.03
12.67
11.82
10.51
9.04
7.77
6.98
6.80
7.17
7.88
8.68
9.31
9.58
9.39
8.76
7.78
6.61
5.37
4.13
2.85
1.49
0.02
-1.52
-2.97
-4.28
-5.44
-6.53
-7.71
-9.03
-10.42
-11.70
-12.78
-13.71
-14.78
-16.27
-18.37
-20.96
-23.61
-25.74
-26.73
-26.26
-24.24
-20.87
-16.54
-11.69
-6.73
-2.01
2.21
5.74
8.44
10.28
11.38
11.94
12.25
12.54
12.94
13.42
13.82
13.98
13.80
13.27
12.49
11.59
10.68
9.88
9.29
8.93
8.77
8.67
8.45
7.97
7.26
6.41
5.57
4.80
4.02
3.15
2.17
1.14
0.16
-0.80
-1.87
-3.24
-4.96
-6.87
-8.64
-9.97
-10.76
-11.24
-11.76
-12.65
-14.03
-15.79
-17.73
-19.59
-21.17
-22.19
-22.31
-21.18
-18.60
-14.63
-9.69
-4.36
0.79
5.31
9.02
11.89
13.93
15.18
15.65
15.41
14.60
13.37
11.92
10.45
9.19
8.28
7.78
7.57
7.46
7.30
7.09
7.01
7.28
7.98
8.95
9.84
10.24
9.94
9.00
7.65
6.18
4.73
3.29
1.76
0.14
-1.54
-3.19
-4.80
-6.40
-8.03
-9.68
-11.26
-12.65
-13.87
-15.06
-16.45
-18.22
-20.34
-22.45
-24.01
-24.44
-23.36
-20.70
-16.78
-12.14
-7.33
-2.79
1.28
4.86
7.96
10.59
12.66
14.04
14.64
14.47
13.68
12.54
11.36
10.42
9.84
9.61
9.58
9.58
9.52
9.45
9.52
9.88
10.52
11.24
11.71
11.62
10.89
9.68
8.27
6.91
5.66
4.38
2.96
1.39
-0.18
-1.54
-2.65
-3.67
-4.86
-6.36
-8.13
-9.92
-11.47
-12.70
-13.71
-14.76
-16.07
-17.71
-19.53
-21.29
-22.68
-23.45
-23.33
-22.06
-19.55
-15.87
-11.36
-6.51
-1.80
2.52
6.33
9.63
12.35
14.25
15.11
14.87
13.78
12.35
11.15
10.55
10.51
10.76
10.95
10.91
10.79
10.86
11.37
12.23
13.04
13.31
12.70
11.27
9.42
7.65
6.27
5.34
4.61
3.81
2.82
1.69
0.61
-0.34
-1.24
-2.27
-3.62
-5.27
-7.02
-8.59
-9.89
-11.10
-12.61
-14.76
-17.63
-20.87
-23.73
-25.43
-25.36
-23.39
-19.86
-15.37
-10.51
-5.69
-1.03
3.44
7.67
11.48
14.60
16.77
17.90
18.06
17.46
16.34
15.01
13.65
12.47
11.57
10.98
10.65
10.53
10.57
10.73
10.92
10.96
10.70
10.02
8.99
7.84
6.82
6.11
5.71
5.46
5.18
4.75
4.16
3.42
2.52
1.36
-0.12
-1.94
-3.94
-5.90
-7.63
-9.07
-10.30
-11.42
-12.59
-13.84
-15.21
-16.71
-18.38
-20.17
-21.93
-23.39
-24.21
-24.08
-22.81
-20.35
-16.86
-12.62
-8.02
-3.44
0.79
4.51
7.71
10.42
12.68
14.41
15.39
15.32
14.07
11.76
8.90
6.20
4.37
3.73
4.12
4.98
5.62
5.59
4.85
3.70
2.58
1.74
1.17
0.62
-0.22
-1.62
-3.81
-6.96
-11.16
-16.24
-21.60
-26.38
-29.77
-31.52
-32.14
-32.73
-34.33
-37.36
-41.39
-45.50
-49.03
-52.08
-55.54
-60.65
-68.11
-77.47
-86.81
-93.06
-92.98
-84.36
-67.06
-43.22
-16.60
8.75
29.90
45.70
56.62
63.86
68.55
71.37
72.81
73.61
75.11
78.96
86.56
98.60
114.97
134.71
156.31
177.30
194.19
202.72
198.88
180.73
149.84
111.52
73.23
41.88
21.19
10.51
5.78
1.98
-4.33
-13.76
-24.48
-34.07
-41.09
-45.78
-49.50
-53.41
-57.66
-61.24
-62.89
-62.00
-59.12
-55.64
-53.19
-52.82
-54.52
-57.42
-60.21
-61.71
-61.29
-58.92
-55.08
-50.51
-45.82
-41.40
-37.34
-33.53
-29.75
-25.85
-21.81
-17.77
-13.97
-10.60
-7.68
-5.13
-2.77
-0.44
1.91
4.24
6.31
7.84
8.61
8.54
7.77
6.66
5.60
4.94
4.84
5.25
6.05
6.98
7.80
8.32
8.40
8.02
7.23
6.20
5.11
4.12
3.30
2.57
1.81
0.92
-0.11
-1.19
-2.16
-2.95
-3.57
-4.16
-4.92
-6.01
-7.50
-9.40
-11.69
-14.29
-17.07
-19.72
-21.83
-22.91
-22.59
-20.82
-17.82
-14.05
-9.97
-5.91
-1.98
1.87
5.68
9.44
13.05
16.32
19.04
20.98
21.90
21.52
19.62
16.15
11.40
5.94
0.64
-3.65
-6.34
-7.16
-6.27
-4.13
-1.40
1.18
2.96
3.63
3.29
2.44
1.74
1.78
2.75
4.42
6.31
7.91
8.91
9.29
9.13
8.58
7.66
6.40
4.83
3.08
1.31
-0.46
-2.33
-4.54
-7.20
-10.30
-13.54
-16.45
-18.51
-19.29
-18.63
-16.63
-13.61
-10.06
-6.47
-3.19
-0.37
2.00
4.02
5.75
7.19
8.30
9.05
9.55
10.00
10.67
11.64
12.84
13.97
14.72
14.90
14.56
13.92
13.19
12.43
11.56
10.44
9.05
7.56
6.28
5.37
4.84
4.38
3.62
2.26
0.30
-1.99
-4.13
-5.67
-6.38
-6.36
-5.94
-5.59
-5.64
-6.26
-7.40
-8.96
-10.77
-12.79
-14.99
-17.24
-19.33
-20.91
-21.68
-21.47
-20.41
-18.79
-16.94
-15.13
-13.39
-11.57
-9.46
-6.94
-3.96
-0.72
2.42
4.97
6.42
6.55
5.37
3.30
1.00
-0.89
-1.95
-2.11
-1.67
-1.10
-0.90
-1.36
-2.57
-4.38
-6.52
-8.68
-10.60
-12.15
-13.37
-14.44
-15.58
-17.00
-18.72
-20.66
-22.70
-24.79
-27.01
-29.61
-32.78
-36.66
-41.20
-46.15
-51.02
-55.03
-57.11
-56.02
-50.61
-40.23
-25.00
-5.91
15.37
36.88
56.86
74.04
87.84
98.27
105.83
111.30
115.57
119.48
123.61
128.06
132.29
135.10
134.93
130.21
119.94
104.02
83.42
60.03
36.16
14.07
-4.65
-19.26
-29.89
-37.22
-42.05
-45.06
-46.64
-47.04
-46.53
-45.49
-44.39
-43.60
-43.23
-43.07
-42.75
-41.94
-40.62
-39.07
-37.76
-37.06
-37.13
-37.89
-39.08
-40.44
-41.64
-42.42
-42.44
-41.39
-39.13
-35.69
-31.34
-26.45
-21.33
-16.18
-11.10
-6.17
-1.56
2.43
5.45
7.27
7.87
7.53
6.73
6.01
5.79
6.27
7.28
8.50
9.53
10.12
10.26
10.15
9.95
9.70
9.15
7.96
5.97
3.34
0.64
-1.50
-2.64
-2.79
-2.42
-2.24
-2.77
-4.15
-6.10
-8.12
-9.81
-11.07
-12.16
-13.45
-15.16
-17.20
-19.16
-20.45
-20.60
-19.37
-16.92
-13.63
-9.97
-6.33
-2.84
0.49
3.71
6.81
9.64
11.95
13.53
14.25
14.10
13.13
11.47
9.34
7.11
5.25
4.18
4.10
4.89
6.13
7.31
8.09
8.39
8.40
8.32
8.24
8.07
7.63
6.84
5.78
4.64
3.59
2.64
1.65
0.53
-0.79
-2.22
-3.58
-4.80
-5.88
-6.91
-7.99
-9.24
-10.82
-12.89
-15.48
-18.39
-21.11
-22.89
-23.02
-21.17
-17.54
-12.78
-7.69
-2.88
1.32
4.87
7.80
10.10
11.70
12.55
12.79
12.63
12.35
12.11
11.92
11.70
11.33
10.76
10.09
9.49
9.16
9.22
9.62
10.17
10.58
10.64
10.29
9.67
8.98
8.37
7.86
7.30
6.53
5.45
4.09
2.58
1.04
-0.43
-1.76
-2.94
-3.98
-4.94
-5.91
-7.01
-8.36
-10.02
-11.97
-14.07
-16.12
-17.84
-18.99
-19.40
-19.04
-17.90
-15.98
-13.27
-9.81
-5.78
-1.49
2.66
6.28
9.19
11.41
13.10
14.34
15.14
15.36
14.94
14.01
12.89
11.92
11.25
10.74
10.10
9.14
7.95
6.96
6.65
7.20
8.45
9.79
10.59
10.53
9.69
8.46
7.29
6.37
5.59
4.73
3.56
2.08
0.41
-1.26
-2.85
-4.31
-5.61
-6.76
-7.78
-8.80
-10.02
-11.60
-13.55
-15.67
-17.66
-19.28
-20.41
-21.04
-21.07
-20.31
-18.43
-15.25
-10.86
-5.74
-0.62
3.84
7.25
9.60
11.14
12.20
12.98
13.52
13.77
13.64
13.12
12.27
11.22
10.16
9.26
8.65
8.35
8.32
8.47
8.69
8.87
8.98
8.97
8.83
8.52
8.04
7.40
6.62
5.74
4.80
3.87
3.00
2.19
1.32
0.15
-1.48
-3.60
-5.95
-8.09
-9.60
-10.26
-10.25
-9.99
-9.98
-10.57
-11.82
-13.50
-15.31
-16.96
-18.31
-19.28
-19.77
-19.59
-18.45
-16.15
-12.64
-8.15
-3.21
1.53
5.51
8.40
10.23
11.26
11.88
12.31
12.62
12.70
12.42
11.75
10.83
9.83
8.95
8.30
7.86
7.59
7.41
7.24
6.98
6.60
6.13
5.66
5.36
5.35
5.59
5.87
5.93
5.59
4.85
3.91
2.95
2.05
1.12
-0.06
-1.57
-3.31
-4.96
-6.15
-6.72
-6.73
-6.49
-6.39
-6.73
-7.58
-8.87
-10.40
-12.02
-13.61
-15.04
-16.14
-16.65
-16.24
-14.65
-11.88
-8.23
-4.29
-0.65
2.27
4.41
6.00
7.35
8.62
9.73
10.40
10.41
9.76
8.71
7.68
6.99
6.75
6.80
6.90
6.87
6.68
6.46
6.35
6.41
6.62
6.80
6.79
6.46
5.78
4.84
3.79
2.77
1.90
1.18
0.56
-0.07
-0.75
-1.51
-2.32
-3.17
-4.08
-5.09
-6.24
-7.51
-8.80
-9.94
-10.85
-11.53
-12.14
-12.89
-13.92
-15.22
-16.52
-17.42
-17.54
-16.66
-14.80
-12.23
-9.27
-6.22
-3.28
-0.49
2.08
4.39
6.35
7.83
8.78
9.24
9.35
9.19
8.77
8.07
7.06
5.84
4.65
3.77
3.43
3.67
4.30
5.10
5.82
6.36
6.73
6.96
7.06
6.96
6.58
5.88
4.90
3.77
2.63
1.57
0.62
-0.21
-1.00
-1.78
-2.58
-3.38
-4.13
-4.76
-5.23
-5.55
-5.82
-6.18
-6.80
-7.82
-9.26
-11.04
-12.98
-14.83
-16.37
-17.42
-17.83
-17.53
-16.47
-14.69
-12.25
-9.30
-6.05
-2.71
0.49
3.35
5.69
7.39
8.41
8.85
8.93
8.83
8.72
8.63
8.50
8.24
7.80
7.25
6.67
6.25
6.05
6.13
6.43
6.85
7.26
7.54
7.59
7.32
6.68
5.63
4.24
2.67
1.18
0.04
-0.61
-0.84
-0.93
-1.17
-1.75
-2.58
-3.44
-4.06
-4.39
-4.63
-5.11
-6.06
-7.46
-9.03
-10.45
-11.56
-12.43
-13.21
-13.97
-14.51
-14.48
-13.58
-11.79
-9.33
-6.59
-3.88
-1.41
0.76
2.63
4.22
5.57
6.78
7.96
9.15
10.25
10.99
11.06
10.38
9.09
7.63
6.41
5.70
5.45
5.48
5.57
5.58
5.53
5.45
5.41
5.37
5.26
5.00
4.54
3.91
3.21
2.52
1.89
1.28
0.57
-0.34
-1.48
-2.79
-4.11
-5.30
-6.32
-7.23
-8.17
-9.23
-10.45
-11.81
-13.27
-14.78
-16.24
-17.49
-18.27
-18.31
-17.43
-15.63
-13.09
-10.11
-6.96
-3.91
-1.09
1.42
3.61
5.48
7.04
8.24
9.02
9.35
9.24
8.81
8.25
7.78
7.51
7.39
7.30
7.11
6.77
6.40
6.13
6.07
6.24
6.53
6.81
6.91
6.72
6.12
5.08
3.64
2.02
0.48
-0.68
-1.31
-1.53
-1.62
-1.95
-2.76
-3.99
-5.41
-6.71
-7.73
-8.57
-9.50
-10.78
-12.48
-14.49
-16.55
-18.32
-19.43
-19.63
-18.65
-16.40
-13.03
-8.92
-4.62
-0.68
2.51
4.82
6.37
7.39
8.13
8.76
9.31
9.74
9.97
9.95
9.68
9.25
8.84
8.64
8.68
8.89
9.04
8.96
8.57
8.00
7.47
7.21
7.28
7.54
7.74
7.59
6.95
5.85
4.47
3.00
1.61
0.36
-0.74
-1.70
-2.55
-3.27
-3.91
-4.56
-5.35
-6.45
-7.90
-9.68
-11.63
-13.53
-15.14
-16.14
-16.30
-15.35
-13.21
-10.02
-6.14
-2.05
1.77
4.99
7.46
9.16
10.19
10.68
10.76
10.61
10.40
10.30
10.37
10.58
10.79
10.83
10.61
10.11
9.42
8.64
7.88
7.21
6.69
6.33
6.14
6.03
5.94
5.83
5.63
5.30
4.77
3.95
2.81
1.42
-0.07
-1.49
-2.69
-3.61
-4.28
-4.77
-5.19
-5.75
-6.69
-8.18
-10.27
-12.73
-15.10
-16.90
-17.75
-17.51
-16.31
-14.41
-12.09
-9.57
-7.01
-4.44
-1.88
0.72
3.40
6.14
8.78
11.04
12.54
13.04
12.57
11.41
10.01
8.82
8.08
7.81
7.86
8.03
8.19
8.26
8.24
8.17
8.05
7.82
7.42
6.82
6.09
5.36
4.78
4.45
4.38
4.47
4.52
4.29
3.62
2.43
0.76
-1.15
-2.99
-4.46
-5.33
-5.64
-5.64
-5.75
-6.36
-7.66
-9.58
-11.77
-13.84
-15.43
-16.29
-16.32
-15.42
-13.56
-10.77
-7.29
-3.61
-0.28
2.28
3.95
5.01
5.91
7.03
8.42
9.79
10.71
10.86
10.25
9.22
8.20
7.50
7.14
6.94
6.66
6.24
5.83
5.70
6.04
6.79
7.68
8.24
8.15
7.31
5.94
4.45
3.22
2.50
2.25
2.23
2.10
1.68
0.92
-0.13
-1.38
-2.84
-4.52
-6.38
-8.23
-9.82
-10.93
-11.53
-11.79
-12.06
-12.56
-13.31
-14.04
-14.32
-13.82
-12.43
-10.27
-7.64
-4.80
-1.94
0.86
3.54
5.99
8.09
9.64
10.51
10.64
10.10
9.07
7.84
6.69
5.87
5.52
5.64
6.10
6.68
7.16
7.44
7.50
7.44
7.35
7.27
7.14
6.82
6.23
5.43
4.59
3.87
3.30
2.71
1.88
0.67
-0.79
-2.16
-3.11
-3.54
-3.61
-3.66
-3.98
-4.68
-5.62
-6.56
-7.33
-7.93
-8.48
-9.20
-10.21
-11.55
-13.12
-14.72
-16.07
-16.79
-16.61
-15.41
-13.29
-10.57
-7.65
-4.82
-2.29
-0.09
1.82
3.50
4.99
6.29
7.37
8.17
8.59
8.57
8.10
7.28
6.29
5.36
4.72
4.56
4.93
5.73
6.69
7.42
7.62
7.17
6.26
5.29
4.70
4.66
5.07
5.55
5.73
5.39
4.59
3.53
2.47
1.50
0.61
-0.26
-1.11
-1.88
-2.51
-3.11
-3.86
-4.90
-6.30
-7.83
-9.19
-10.11
-10.45
-10.33
-10.05
-10.03
-10.65
-12.11
-14.31
-16.75
-18.70
-19.39
-18.37
-15.68
-11.87
-7.70
-3.88
-0.74
1.81
3.95
5.83
7.37
8.35
8.63
8.30
7.66
7.05
6.66
6.44
6.21
5.77
5.09
4.35
3.81
3.72
4.10
4.82
5.61
6.24
6.59
6.69
6.68
6.59
6.34
5.77
4.75
3.34
1.80
0.46
-0.44
-0.86
-1.04
-1.26
-1.77
-2.62
-3.74
-4.91
-5.99
-6.94
-7.86
-8.95
-10.35
-12.10
-14.05
-15.94
-17.41
-18.10
-17.82
-16.52
-14.40
-11.82
-9.16
-6.66
-4.38
-2.21
-0.02
2.24
4.48
6.48
8.00
8.85
8.99
8.57
7.79
6.95
6.26
5.89
5.88
6.19
6.68
7.14
7.33
7.15
6.66
6.06
5.57
5.38
5.52
5.91
6.32
6.54
6.41
5.90
5.12
4.25
3.43
2.71
1.99
1.16
0.10
-1.15
-2.49
-3.80
-5.00
-6.11
-7.23
-8.38
-9.54
-10.63
-11.61
-12.53
-13.56
-14.79
-16.20
-17.50
-18.30
-18.22
-17.09
-14.97
-12.09
-8.77
-5.25
-1.75
1.52
4.29
6.38
7.69
8.34
8.59
8.75
8.98
9.31
9.62
9.79
9.77
9.65
9.51
9.41
9.29
9.12
8.86
8.62
8.48
8.54
8.74
8.90
8.86
8.51
7.86
7.00
5.98
4.81
3.46
1.97
0.48
-0.80
-1.69
-2.15
-2.36
-2.59
-3.12
-4.05
-5.26
-6.53
-7.62
-8.48
-9.24
-10.18
-11.54
-13.36
-15.41
-17.28
-18.51
-18.72
-17.81
-15.88
-13.22
-10.13
-6.89
-3.67
-0.57
2.33
4.97
7.26
9.15
10.60
11.51
11.78
11.33
10.24
8.75
7.33
6.42
6.26
6.83
7.81
8.80
9.48
9.72
9.59
9.24
8.80
8.29
7.74
7.12
6.47
5.84
5.26
4.73
4.20
3.61
2.87
1.89
0.59
-1.00
-2.75
-4.46
-5.89
-6.90
-7.50
-7.87
-8.21
-8.79
-9.82
-11.45
-13.64
-16.09
-18.23
-19.30
-18.70
-16.20
-12.10
-7.12
-2.10
2.28
5.74
8.24
9.96
11.05
11.65
11.84
11.72
11.49
11.27
11.17
11.11
10.95
10.56
9.87
8.97
8.02
7.22
6.67
6.39
6.33
6.42
6.64
6.91
7.18
7.26
6.98
6.22
5.03
3.59
2.12
0.76
-0.50
-1.74
-3.01
-4.26
-5.48
-6.71
-8.11
-9.93
-12.24
-14.93
-17.58
-19.78
-21.30
-22.28
-23.21
-24.73
-27.28
-30.88
-35.00
-38.72
-40.98
-41.02
-38.66
-34.52
-29.86
-26.24
-24.95
-26.48
-30.40
-35.40
-39.88
-42.57
-43.09
-42.18
-41.40
-42.76
-48.01
-58.07
-72.24
-87.77
-99.84
-102.81
-92.37
-67.86
-33.52
2.30
29.92
41.91
36.10
16.44
-8.69
-29.66
-38.90
-32.93
-12.67
17.67
52.34
85.57
112.81
131.64
142.24
147.39
151.66
159.79
174.80
196.47
221.10
242.52
254.32
252.14
235.16
205.97
169.39
130.76
94.43
63.14
38.14
19.56
7.05
0.14
-1.73
0.86
7.04
15.17
22.75
26.58
23.45
11.37
-9.60
-37.08
-67.12
-95.44
-118.74
-135.22
-144.69
-147.96
-146.34
-141.43
-134.94
-128.70
-124.28
-122.71
-124.30
-128.57
-134.44
-140.61
-145.93
-149.69
-151.76
-152.45
-152.03
-150.00
-144.59
-133.21
-113.63
-85.68
-52.04
-17.67
12.00
33.33
45.73
51.42
53.89
56.11
59.52
64.22
69.75
76.08
83.69
93.17
104.71
117.40
129.78
140.26
147.65
151.65
152.87
152.33
150.94
148.95
145.81
140.62
132.74
122.41
110.80
99.59
90.29
83.59
79.33
76.80
75.18
74.01
73.21
72.94
73.41
74.72
76.95
80.09
83.97
88.04
91.00
90.81
85.11
71.80
50.01
20.77
-13.02
-47.17
-77.47
-100.88
-116.35
-124.82
-128.57
-130.26
-132.09
-135.32
-140.25
-146.40
-152.82
-158.56
-162.94
-165.85
-167.60
-168.50
-168.47
-166.74
-162.18
-153.93
-142.23
-128.63
-115.60
-105.62
-100.02
-98.64
-100.00
-102.14
-103.21
-101.49
-95.32
-83.42
-65.88
-45.10
-25.77
-13.10
-9.67
-13.22
-16.59
-10.89
9.87
45.14
87.60
126.44
152.36
161.38
155.69
141.58
125.83
113.13
105.33
102.24
102.52
104.34
105.41
103.00
94.61
79.00
57.03
31.61
6.67
-14.37
-29.65
-39.15
-44.06
-45.78
-45.34
-43.30
-40.11
-36.50
-33.36
-31.29
-30.14
-29.06
-26.93
-23.06
-17.68
-12.02
-7.70
-5.90
-6.77
-9.36
-12.07
-13.36
-12.41
-9.45
-5.47
-1.75
0.76
1.78
1.73
1.42
1.66
2.87
4.92
7.29
9.27
10.33
10.27
9.30
7.88
6.45
5.32
4.51
3.89
3.22
2.34
1.14
-0.36
-2.10
-3.95
-5.77
-7.41
-8.83
-10.08
-11.32
-12.68
-14.19
-15.63
-16.60
-16.61
-15.29
-12.58
-8.76
-4.34
0.11
4.16
7.68
10.63
13.08
14.96
16.07
16.31
15.76
14.84
14.02
13.65
13.72
13.95
13.99
13.62
12.89
12.03
11.26
10.70
10.33
10.08
9.92
9.86
9.94
10.08
10.08
9.67
8.63
6.88
4.59
2.08
-0.27
-2.10
-3.20
-3.66
-3.78
-4.00
-4.73
-6.13
-8.14
-10.45
-12.67
-14.35
-15.17
-14.87
-13.41
-10.90
-7.59
-3.80
0.16
3.99
7.45
10.35
12.59
14.18
15.22
15.84
16.10
15.97
15.40
14.34
12.93
11.44
10.24
9.64
9.66
10.13
10.64
10.83
10.57
9.95
9.27
8.76
8.42
8.01
7.24
5.97
4.38
2.84
1.72
1.09
0.68
0.02
-1.26
-3.19
-5.46
-7.58
-9.21
-10.31
-11.19
-12.27
-13.81
-15.77
-17.78
-19.31
-19.82
-19.02
-16.94
-13.83
-10.13
-6.20
-2.31
1.38
4.75
7.67
9.97
11.54
12.37
12.56
12.34
11.94
11.52
11.18
10.92
10.74
10.56
10.30
9.91
9.40
8.93
8.61
8.51
8.52
8.42
8.04
7.35
6.52
5.83
5.45
5.37
5.42
5.34
5.00
4.34
3.43
2.31
1.00
-0.45
-2.02
-3.56
-4.98
-6.22
-7.33
-8.41
-9.47
-10.56
-11.64
-12.75
-14.00
-15.43
-16.94
-18.17
-18.62
-17.89
-15.85
-12.69
-8.89
-4.99
-1.50
1.30
3.37
4.82
5.86
6.70
7.46
8.20
8.85
9.28
9.34
8.93
8.03
6.81
5.52
4.46
3.86
3.81
4.25
4.97
5.72
6.28
6.56
6.52
6.18
5.53
4.59
3.40
2.13
0.98
0.13
-0.37
-0.64
-0.90
-1.34
-2.09
-3.13
-4.38
-5.74
-7.14
-8.57
-10.03
-11.50
-12.92
-14.22
-15.26
-15.92
-16.10
-15.70
-14.64
-12.91
-10.58
-7.85
-4.94
-2.11
0.45
2.65
4.52
6.12
7.48
8.60
9.37
9.68
9.51
8.94
8.12
7.25
6.43
5.72
5.11
4.62
4.39
4.49
4.99
5.69
6.25
6.29
5.62
4.35
2.86
1.55
0.65
0.11
-0.25
-0.66
-1.22
-1.95
-2.80
-3.74
-4.76
-5.80
-6.73
-7.42
-7.80
-7.96
-8.09
-8.45
-9.17
-10.24
-11.59
-13.09
-14.66
-16.21
-17.51
-18.25
-18.08
-16.71
-14.12
-10.57
-6.60
-2.78
0.47
2.97
4.79
6.17
7.32
8.33
9.15
9.70
9.93
9.83
9.48
8.92
8.20
7.39
6.59
5.96
5.64
5.68
5.96
6.24
6.29
6.01
5.52
5.02
4.75
4.82
5.13
5.43
5.44
5.00
4.06
2.74
1.24
-0.28
-1.68
-2.91
-3.97
-4.89
-5.80
-6.86
-8.18
-9.78
-11.53
-13.19
-14.53
-15.47
-16.11
-16.63
-17.20
-17.77
-18.05
-17.63
-16.15
-13.50
-9.91
-5.81
-1.71
2.02
5.13
7.49
9.01
9.68
9.55
8.85
7.95
7.21
6.91
7.12
7.62
8.13
8.35
8.17
7.66
7.02
6.45
6.10
6.01
6.16
6.50
6.94
7.39
7.67
7.72
7.41
6.78
5.84
4.60
3.04
1.20
-0.80
-2.77
-4.53
-6.05
-7.44
-8.85
-10.34
-11.78
-12.91
-13.54
-13.73
-13.79
-14.18
-15.16
-16.63
-18.08
-18.86
-18.51
-16.92
-14.36
-11.20
-7.85
-4.48
-1.14
2.13
5.25
8.03
10.29
11.84
12.55
12.37
11.41
9.94
8.40
7.26
6.87
7.28
8.21
9.21
9.85
9.96
9.70
9.33
9.16
9.27
9.54
9.75
9.67
9.20
8.34
7.14
5.66
4.05
2.43
0.93
-0.32
-1.31
-2.10
-2.79
-3.48
-4.25
-5.12
-6.06
-7.07
-8.16
-9.41
-10.89
-12.66
-14.65
-16.71
-18.54
-19.81
-20.19
-19.41
-17.43
-14.41
-10.66
-6.56
-2.41
1.59
5.34
8.70
11.44
13.27
14.06
13.87
13.02
11.89
10.76
9.77
8.88
8.16
7.74
7.82
8.51
9.67
10.92
11.77
11.83
10.99
9.49
7.70
6.11
5.02
4.54
4.60
4.92
5.24
5.30
4.94
4.15
2.98
1.55
-0.06
-1.83
-3.78
-5.85
-7.94
-9.81
-11.17
-11.88
-11.96
-11.76
-11.80
-12.55
-14.15
-16.30
-18.34
-19.52
-19.32
-17.65
-14.77
-11.16
-7.29
-3.55
-0.16
2.73
5.05
6.77
7.95
8.73
9.29
9.81
10.31
10.75
10.99
10.88
10.38
9.61
8.78
8.11
7.70
7.51
7.45
7.41
7.39
7.38
7.42
7.45
7.32
6.89
6.14
5.19
4.31
3.70
3.39
3.11
2.41
0.91
-1.46
-4.38
-7.20
-9.35
-10.48
-10.72
-10.55
-10.57
-11.25
-12.70
-14.69
-16.77
-18.44
-19.31
-19.20
-18.08
-16.04
-13.25
-9.90
-6.24
-2.48
1.19
4.51
7.31
9.48
11.03
12.04
12.61
12.82
12.67
12.14
11.24
10.09
8.92
7.94
7.31
7.02
6.96
6.99
7.04
7.09
7.24
7.50
7.81
8.03
8.00
7.63
6.94
5.99
4.88
3.63
2.22
0.60
-1.17
-2.95
-4.53
-5.74
-6.53
-7.06
-7.57
-8.30
-9.44
-10.99
-12.85
-14.81
-16.65
-18.16
-19.19
-19.64
-19.35
-18.19
-16.08
-13.09
-9.45
-5.54
-1.71
1.77
4.83
7.53
9.92
11.94
13.44
14.22
14.20
13.52
12.43
11.26
10.29
9.62
9.26
9.21
9.38
9.69
10.04
10.33
10.53
10.61
10.63
10.58
10.41
9.94
9.06
7.71
6.05
4.34
2.85
1.72
0.86
-0.02
-1.17
-2.72
-4.52
-6.30
-7.75
-8.73
-9.34
-9.77
-10.26
-10.97
-11.99
-13.45
-15.43
-17.83
-20.29
-22.16
-22.68
-21.33
-18.12
-13.59
-8.60
-3.92
0.05
3.36
6.23
8.84
11.12
12.82
13.69
13.67
12.96
11.88
10.76
9.79
9.12
8.71
8.55
8.59
8.78
9.08
9.47
9.95
10.43
10.71
10.52
9.64
8.08
6.15
4.34
3.10
2.57
2.50
2.41
1.85
0.63
-1.05
-2.79
-4.20
-5.18
-5.90
-6.67
-7.76
-9.22
-10.89
-12.53
-13.99
-15.18
-16.15
-16.91
-17.32
-17.16
-16.12
-14.05
-10.98
-7.21
-3.21
0.52
3.68
6.15
8.09
9.73
11.24
12.61
13.60
13.93
13.38
12.06
10.34
8.70
7.53
6.94
6.74
6.65
6.46
6.22
6.16
6.54
7.42
8.61
9.68
10.17
9.78
8.51
6.70
4.74
3.03
1.70
0.63
-0.42
-1.65
-3.07
-4.58
-6.09
-7.61
-9.26
-11.15
-13.25
-15.37
-17.24
-18.70
-19.77
-20.57
-21.19
-21.53
-21.26
-20.05
-17.69
-14.31
-10.28
-6.06
-2.02
1.70
5.12
8.30
11.21
13.69
15.42
16.17
15.84
14.64
12.98
11.36
10.15
9.49
9.26
9.25
9.27
9.26
9.23
9.24
9.25
9.19
8.93
8.45
7.82
7.15
6.58
6.10
5.61
4.97
4.00
2.65
1.01
-0.76
-2.48
-4.06
-5.56
-7.07
-8.71
-10.44
-12.19
-13.80
-15.18
-16.36
-17.44
-18.49
-19.43
-20.02
-19.89
-18.73
-16.50
-13.50
-10.26
-7.24
-4.60
-2.18
0.41
3.35
6.55
9.50
11.55
12.28
11.72
10.36
8.89
7.93
7.72
8.14
8.84
9.48
9.89
10.00
9.86
9.46
8.86
8.07
7.16
6.24
5.37
4.65
4.07
3.62
3.28
2.99
2.64
2.05
1.08
-0.35
-2.11
-3.93
-5.51
-6.68
-7.48
-8.19
-9.12
-10.51
-12.39
-14.60
-16.80
-18.59
-19.57
-19.45
-18.09
-15.63
-12.44
-9.01
-5.75
-2.86
-0.21
2.41
5.17
8.02
10.69
12.83
14.11
14.37
13.65
12.15
10.25
8.40
6.99
6.30
6.35
6.96
7.80
8.58
9.17
9.57
9.81
9.86
9.61
8.94
7.84
6.46
5.10
4.00
3.23
2.65
2.05
1.18
-0.04
-1.58
-3.24
-4.84
-6.18
-7.21
-7.97
-8.57
-9.17
-9.93
-10.98
-12.42
-14.26
-16.40
-18.54
-20.29
-21.21
-20.98
-19.49
-16.83
-13.28
-9.15
-4.81
-0.58
3.27
6.51
9.01
10.70
11.54
11.57
10.93
9.82
8.63
7.78
7.61
8.21
9.37
10.66
11.62
11.93
11.57
10.73
9.75
8.92
8.41
8.23
8.41
8.84
9.40
9.82
9.77
9.00
7.42
5.27
3.00
1.10
-0.15
-0.77
-1.08
-1.44
-2.11
-3.09
-4.19
-5.25
-6.19
-7.11
-8.14
-9.36
-10.70
-12.06
-13.37
-14.69
-16.11
-17.76
-19.56
-21.20
-22.20
-22.04
-20.38
-17.21
-12.86
-7.86
-2.84
1.72
5.51
8.44
10.54
11.91
12.70
12.99
12.87
12.39
11.63
10.75
9.96
9.44
9.20
9.08
8.76
8.04
6.98
5.93
5.32
5.42
6.13
7.04
7.63
7.59
6.93
5.98
5.06
4.36
3.81
3.22
2.38
1.28
0.05
-1.18
-2.37
-3.64
-5.06
-6.71
-8.40
-9.84
-10.76
-11.03
-10.86
-10.65
-10.91
-11.96
-13.84
-16.17
-18.29
-19.42
-18.97
-16.70
-12.80
-7.88
-2.70
1.95
5.53
7.89
9.13
9.65
9.83
9.94
10.06
10.12
9.99
9.63
9.02
8.23
7.38
6.56
5.88
5.45
5.37
5.66
6.27
7.04
7.76
8.26
8.43
8.27
7.82
7.12
6.19
5.07
3.86
2.66
1.53
0.49
-0.59
-1.78
-3.17
-4.70
-6.20
-7.53
-8.56
-9.35
-10.08
-10.97
-12.21
-13.88
-15.86
-17.98
-20.06
-21.93
-23.41
-24.26
-24.19
-22.95
-20.49
-16.95
-12.73
-8.31
-4.14
-0.58
2.18
4.02
5.02
5.35
5.28
5.15
5.15
5.33
5.47
5.24
4.33
2.64
0.36
-2.06
-4.05
-5.17
-5.29
-4.71
-4.02
-3.88
-4.74
-6.70
-9.38
-12.21
-14.59
-16.19
-17.06
-17.60
-18.47
-20.46
-24.28
-30.23
-37.72
-44.94
-48.87
-46.18
-34.47
-13.59
13.79
42.82
68.11
85.64
94.03
94.66
90.61
85.14
80.56
77.80
76.75
76.95
78.02
79.81
82.24
85.11
87.99
90.33
91.54
91.10
88.55
83.63
76.36
67.22
57.11
47.16
38.35
31.25
25.89
21.95
18.96
16.46
13.92
10.66
5.86
-1.25
-10.91
-22.55
-34.73
-45.64
-53.70
-58.18
-59.37
-58.39
-56.61
-55.26
-55.05
-56.19
-58.52
-61.76
-65.63
-69.87
-74.21
-78.31
-81.73
-84.05
-84.97
-84.51
-82.98
-80.83
-78.39
-75.65
-72.25
-67.70
-61.74
-54.53
-46.75
-39.31
-33.04
-28.44
-25.52
-24.00
-23.39
-23.18
-22.93
-22.31
-21.13
-19.37
-17.19
-14.85
-12.57
-10.41
-8.28
-6.05
-3.65
-1.19
1.13
3.09
4.60
5.75
6.69
7.57
8.39
9.02
9.24
8.89
7.91
6.43
4.68
2.92
1.31
-0.14
-1.49
-2.93
-4.59
-6.56
-8.80
-11.10
-13.11
-14.36
-14.45
-13.19
-10.67
-7.20
-3.20
0.92
4.87
8.51
11.75
14.55
16.85
18.58
19.69
20.15
20.04
19.49
18.73
18.00
17.48
17.19
17.08
16.98
16.79
16.52
16.33
16.30
16.44
16.60
16.52
16.07
15.19
13.99
12.58
11.03
9.37
7.60
5.80
4.05
2.40
0.77
-1.01
-3.08
-5.47
-8.00
-10.35
-12.20
-13.29
-13.52
-12.90
-11.47
-9.24
-6.23
-2.54
1.61
5.84
9.73
12.96
15.38
17.03
17.98
18.27
17.89
16.86
15.34
13.67
12.27
11.45
11.28
11.58
11.98
12.17
12.04
11.67
11.24
10.84
10.37
9.68
8.63
7.29
5.82
4.42
3.16
2.05
0.96
-0.14
-1.22
-2.24
-3.21
-4.27
-5.65
-7.50
-9.71
-11.89
-13.52
-14.16
-13.65
-12.08
-9.74
-6.88
-3.72
-0.39
2.98
6.20
9.05
11.39
13.11
14.17
14.50
13.97
12.54
10.31
7.68
5.20
3.45
2.85
3.47
5.00
6.89
8.54
9.59
10.07
10.38
11.06
12.51
14.68
17.11
19.15
20.27
20.31
19.47
18.10
16.36
14.20
11.36
7.68
3.31
-1.32
-5.60
-9.05
-11.54
-13.23
-14.52
-15.82
-17.40
-19.27
-21.19
-22.67
-23.20
-22.42
-20.24
-16.88
-12.80
-8.48
-4.30
-0.47
2.93
5.91
8.41
10.33
11.55
12.01
11.82
11.23
10.56
10.09
9.90
9.91
9.96
9.90
9.69
9.42
9.22
9.19
9.24
9.21
8.91
8.27
7.34
6.31
5.39
4.65
4.03
3.34
2.43
1.26
-0.05
-1.34
-2.45
-3.31
-3.98
-4.52
-5.05
-5.71
-6.62
-7.84
-9.38
-11.13
-12.95
-14.67
-16.13
-17.13
-17.39
-16.61
-14.56
-11.23
-6.97
-2.36
1.97
5.59
8.40
10.57
12.37
13.94
15.23
15.99
16.04
15.27
13.81
11.86
9.68
7.42
5.09
2.69
0.31
-1.63
-2.52
-1.81
0.59
4.10
7.63
9.97
10.42
9.01
6.49
3.85
1.79
0.50
-0.26
-0.91
-1.71
-2.66
-3.59
-4.33
-4.82
-5.12
-5.33
-5.57
-5.92
-6.41
-7.00
-7.64
-8.25
-8.78
-9.26
-9.81
-10.60
-11.80
-13.43
-15.26
-16.90
-17.87
-17.80
-16.59
-14.44
-11.82
-9.20
-6.92
-5.07
-3.46
-1.84
-0.03
1.94
3.82
5.30
6.16
6.38
6.12
5.62
5.06
4.52
4.00
3.50
3.11
3.01
3.34
4.17
5.39
6.73
7.92
8.73
9.12
9.13
8.87
8.45
7.87
7.14
6.25
5.21
4.10
2.95
1.86
0.75
-0.37
-1.53
-2.69
-3.77
-4.66
-5.33
-5.89
-6.54
-7.51
-8.94
-10.78
-12.81
-14.69
-16.13
-16.94
-17.10
-16.61
-15.51
-13.84
-11.63
-8.94
-5.94
-2.81
0.25
3.09
5.62
7.73
9.31
10.27
10.56
10.30
9.66
8.91
8.23
7.67
7.21
6.78
6.40
6.16
6.20
6.60
7.28
8.02
8.58
8.75
8.48
7.84
6.96
5.95
4.84
3.64
2.34
0.99
-0.34
-1.56
-2.64
-3.61
-4.52
-5.45
-6.44
-7.50
-8.62
-9.75
-10.91
-12.09
-13.35
-14.71
-16.17
-17.63
-18.89
-19.77
-20.11
-19.82
-18.83
-17.04
-14.40
-10.92
-6.80
-2.41
1.71
5.12
7.54
9.01
9.76
10.14
10.38
10.52
10.45
10.03
9.22
8.17
7.19
6.64
6.73
7.48
8.61
9.68
10.24
10.04
9.11
7.81
6.57
5.77
5.51
5.62
5.81
5.77
5.38
4.63
3.61
2.39
0.96
-0.69
-2.56
-4.56
-6.54
-8.36
-9.96
-11.35
-12.65
-13.93
-15.25
-16.64
-18.08
-19.52
-20.78
-21.67
-21.93
-21.36
-19.88
-17.56
-14.63
-11.44
-8.37
-5.80
-3.91
-2.63
-1.72
-0.83
0.35
1.87
3.60
5.30
6.80
8.16
9.62
11.47
13.90
16.86
20.13
23.39
26.36
28.77
30.35
30.78
29.75
27.05
22.79
17.32
11.30
5.48
0.46
-3.43
-6.15
-7.91
-9.05
-9.95
-10.96
-12.26
-13.83
-15.46
-16.86
-17.73
-18.02
-18.00
-18.12
-18.93
-20.73
-23.39
-26.31
-28.68
-29.79
-29.45
-28.03
-26.27
-24.85
-24.06
-23.64
-22.96
-21.44
-18.96
-15.95
-13.22
-11.59
-11.57
-13.28
-16.51
-20.72
-24.87
-27.21
-25.36
-16.84
-0.19
24.05
53.00
82.17
106.97
124.31
133.48
135.90
133.88
129.23
122.56
113.34
100.69
84.31
64.91
44.02
23.42
4.53
-11.88
-25.64
-36.88
-45.71
-52.12
-56.07
-57.67
-57.39
-55.99
-54.37
-53.28
-52.98
-53.12
-52.88
-51.28
-47.65
-41.92
-34.77
-27.32
-20.71
-15.70
-12.50
-10.74
-9.82
-9.13
-8.33
-7.38
-6.45
-5.73
-5.31
-5.08
-4.80
-4.20
-3.12
-1.60
0.16
1.86
3.19
3.96
4.13
3.82
3.24
2.64
2.20
2.01
1.96
1.83
1.37
0.42
-0.97
-2.64
-4.31
-5.82
-7.15
-8.40
-9.66
-10.98
-12.34
-13.64
-14.78
-15.53
-15.66
-14.88
-12.98
-9.96
-6.06
-1.71
2.58
6.43
9.61
12.06
13.75
14.64
14.68
13.90
12.51
10.94
9.66
8.97
8.91
9.22
9.53
9.47
8.92
8.04
7.12
6.47
6.25
6.34
6.37
5.94
4.77
2.86
0.57
-1.57
-3.08
-3.76
-3.76
-3.60
-3.93
-5.31
-7.97
-11.72
-15.99
-20.02
-23.10
-24.86
-25.40
-25.19
-24.79
-24.55
-24.37
-23.73
-21.97
-18.72
-14.17
-9.11
-4.67
-1.90
-1.43
-3.34
-7.20
-11.95
-15.71
-15.79
-9.19
6.28
30.60
60.85
91.81
117.62
133.93
139.43
135.56
125.34
111.54
95.81
78.78
61.01
43.71
28.46
16.47
7.70
0.77
-6.25
-14.66
-24.47
-34.48
-43.07
-49.07
-52.30
-53.42
-53.43
-53.11
-52.86
-52.67
-52.41
-51.93
-51.10
-49.77
-47.72
-44.74
-40.72
-35.85
-30.53
-25.31
-20.60
-16.52
-12.90
-9.46
-6.00
-2.51
0.74
3.46
5.40
6.56
7.12
7.30
7.37
7.50
7.82
8.46
9.45
10.73
12.03
12.95
13.14
12.46
11.08
9.45
8.07
7.31
7.25
7.66
8.16
8.37
7.99
6.97
5.45
3.73
2.15
0.96
0.17
-0.36
-0.86
-1.52
-2.37
-3.27
-4.08
-4.74
-5.36
-6.16
-7.33
-8.90
-10.76
-12.68
-14.43
-15.83
-16.80
-17.20
-16.92
-15.86
-13.94
-11.22
-7.87
-4.17
-0.44
3.04
6.04
8.44
10.19
11.35
11.96
12.13
11.98
11.61
11.12
10.60
10.11
9.70
9.38
9.13
8.94
8.79
8.71
8.79
9.03
9.42
9.77
9.87
9.55
8.78
7.71
6.63
5.83
5.43
5.40
5.52
5.50
5.10
4.25
3.04
1.63
0.24
-1.04
-2.13
-3.05
-3.75
-4.20
-4.41
-4.54
-4.88
-5.68
-7.07
-8.88
-10.79
-12.48
-13.84
-15.00
-16.14
-17.36
-18.47
-19.11
-18.89
-17.63
-15.40
-12.53
-9.36
-6.20
-3.18
-0.37
2.22
4.58
6.70
8.50
9.88
10.75
11.03
10.78
10.18
9.50
9.03
8.90
9.09
9.45
9.79
10.01
10.11
10.21
10.38
10.66
10.92
10.97
10.59
9.67
8.25
6.57
4.98
3.79
3.17
3.03
3.08
2.97
2.47
1.57
0.47
-0.60
-1.41
-1.95
-2.31
-2.66
-3.12
-3.74
-4.54
-5.59
-6.94
-8.54
-10.20
-11.64
-12.66
-13.25
-13.64
-14.18
-15.15
-16.53
-18.04
-19.20
-19.61
-19.03
-17.49
-15.20
-12.44
-9.40
-6.28
-3.20
-0.28
2.37
4.69
6.62
8.16
9.24
9.80
9.75
9.11
8.00
6.70
5.59
4.97
4.98
5.58
6.56
7.68
8.71
9.55
10.15
10.46
10.46
10.13
9.54
8.82
8.10
7.45
6.87
6.28
5.67
5.07
4.55
4.14
3.80
3.43
2.90
2.21
1.39
0.50
-0.44
-1.49
-2.71
-4.07
-5.41
-6.52
-7.20
-7.47
-7.55
-7.86
-8.73
-10.30
-12.42
-14.72
-16.80
-18.44
-19.57
-20.26
-20.60
-20.55
-19.97
-18.66
-16.55
-13.69
-10.28
-6.59
-2.89
0.64
3.85
6.60
8.72
10.07
10.63
10.50
9.94
9.25
8.65
8.28
8.15
8.19
8.30
8.34
8.21
7.85
7.32
6.80
6.52
6.62
7.11
7.74
8.22
8.32
8.00
7.44
6.92
6.63
6.53
6.34
5.75
4.58
2.91
1.06
-0.61
-1.93
-2.89
-3.72
-4.60
-5.56
-6.45
-7.04
-7.20
-7.05
-6.87
-7.00
-7.64
-8.73
-10.10
-11.60
-13.19
-14.94
-16.83
-18.64
-19.86
-19.84
-18.14
-14.69
-9.97
-4.83
-0.13
3.51
5.95
7.47
8.46
9.25
9.89
10.29
10.31
9.98
9.47
9.04
8.89
9.07
9.44
9.78
9.89
9.69
9.27
8.84
8.66
8.81
9.20
9.53
9.43
8.73
7.52
6.14
5.02
4.43
4.29
4.30
4.06
3.33
2.21
1.02
0.12
-0.34
-0.56
-0.93
-1.85
-3.41
-5.37
-7.30
-8.78
-9.63
-9.98
-10.10
-10.25
-10.53
-10.95
-11.52
-12.35
-13.58
-15.31
-17.38
-19.38
-20.72
-20.91
-19.73
-17.30
-13.94
-10.11
-6.15
-2.33
1.18
4.24
6.76
8.67
10.02
10.91
11.41
11.58
11.40
10.88
10.11
9.32
8.72
8.51
8.69
9.09
9.49
9.73
9.80
9.83
9.98
10.29
10.65
10.89
10.84
10.39
9.55
8.39
7.01
5.57
4.21
3.09
2.25
1.72
1.39
1.15
0.89
0.55
0.07
-0.57
-1.41
-2.47
-3.81
-5.43
-7.22
-9.01
-10.55
-11.66
-12.32
-12.70
-13.11
-13.87
-15.14
-16.83
-18.59
-19.97
-20.54
-20.03
-18.41
-15.81
-12.45
-8.60
-4.58
-0.74
2.62
5.30
7.22
8.45
9.16
9.50
9.63
9.60
9.47
9.27
9.05
8.86
8.82
8.99
9.34
9.70
9.86
9.63
9.00
8.18
7.52
7.30
7.61
8.23
8.77
8.89
8.51
7.75
6.89
6.07
5.27
4.33
3.10
1.64
0.17
-1.08
-1.97
-2.60
-3.17
-3.91
-4.89
-6.01
-7.13
-8.16
-9.15
-10.19
-11.40
-12.78
-14.26
-15.69
-16.96
-17.96
-18.64
-18.89
-18.59
-17.55
-15.61
-12.74
-9.08
-5.00
-1.03
2.21
4.27
4.96
4.51
3.47
2.56
2.27
2.67
3.26
3.23
1.91
-0.84
-4.37
-7.53
-9.12
-8.56
-6.22
-3.36
-1.56
-2.07
-5.33
-10.93
-17.79
-24.44
-29.23
-30.56
-27.32
-19.49
-8.46
3.12
12.31
17.01
16.93
13.50
9.01
5.22
2.38
-0.79
-6.26
-15.41
-27.91
-41.36
-51.82
-55.21
-48.94
-33.43
-12.45
7.94
21.49
24.11
15.29
-1.82
-21.81
-38.94
-48.91
-49.56
-40.75
-23.71
-0.52
26.18
53.36
77.87
97.04
109.33
114.88
115.34
113.40
111.78
112.26
115.27
119.91
124.35
126.44
124.26
116.61
103.71
87.64
72.07
61.04
57.07
59.55
64.62
66.75
61.62
48.37
30.26
12.96
1.88
-0.46
4.70
12.98
18.65
16.66
4.08
-18.96
-49.42
-81.93
-110.40
-129.62
-136.67
-131.41
-116.15
-94.73
-71.53
-50.61
-35.00
-26.19
-23.72
-25.23
-27.18
-25.91
-19.11
-6.74
8.75
23.12
31.64
30.59
18.39
-3.90
-32.68
-62.66
-88.27
-105.25
-111.88
-109.16
-99.98
-87.46
-73.70
-59.05
-42.60
-23.28
-0.98
22.88
45.67
64.26
75.85
78.57
71.91
57.16
37.61
18.21
4.20
-0.63
4.41
16.73
31.70
44.75
53.10
56.16
54.71
49.65
41.24
29.38
14.38
-2.58
-19.81
-36.05
-51.39
-67.01
-84.54
-104.68
-126.57
-147.77
-164.67
-173.34
-170.54
-154.73
-126.74
-89.95
-49.43
-10.39
23.40
50.47
71.36
87.49
99.91
108.71
113.32
113.17
108.26
99.01
85.81
68.69
47.46
22.39
-5.21
-32.98
-58.07
-77.97
-91.25
-97.76
-98.68
-96.05
-92.40
-90.01
-90.10
-92.00
-93.09
-89.61
-78.39
-58.37
-31.53
-2.02
25.55
48.01
64.49
75.75
82.53
84.47
80.38
69.72
54.23
38.07
26.34
22.51
26.59
35.25
43.77
48.39
47.87
43.29
36.49
28.73
20.42
12.17
5.95
5.05
12.51
28.86
50.90
72.57
87.53
92.21
87.27
76.93
66.48
59.54
56.55
54.91
50.52
39.69
20.51
-6.39
-37.73
-68.20
-91.65
-102.91
-99.64
-83.42
-59.30
-34.06
-13.84
-2.24
0.26
-4.43
-13.37
-23.89
-34.02
-42.56
-48.67
-51.91
-52.28
-50.46
-47.80
-45.92
-46.14
-48.94
-53.77
-59.24
-63.74
-65.93
-65.27
-62.06
-57.25
-51.99
-47.16
-43.13
-39.68
-36.14
-31.76
-26.01
-18.91
-10.99
-3.14
3.74
9.06
12.74
15.08
16.60
17.74
18.73
19.59
20.25
20.70
21.01
21.28
21.59
21.90
22.17
22.39
22.70
23.23
24.09
25.15
26.10
26.57
26.33
25.40
24.04
22.61
21.36
20.34
19.47
18.55
17.45
16.10
14.47
12.53
10.30
7.87
5.45
3.28
1.53
0.16
-1.05
-2.45
-4.33
-6.79
-9.62
-12.42
-14.67
-15.91
-15.83
-14.28
-11.36
-7.35
-2.64
2.30
7.07
11.41
15.17
18.29
20.71
22.44
23.48
23.94
23.96
23.72
23.36
22.93
22.42
21.80
21.10
20.42
19.91
19.69
19.79
20.11
20.48
20.71
20.64
20.23
19.50
18.55
17.49
16.40
15.27
14.03
12.62
10.99
9.23
7.47
5.88
4.51
3.31
2.07
0.63
-1.12
-3.06
-5.00
-6.75
-8.19
-9.38
-10.45
-11.62
-13.09
-15.02
-17.43
-20.20
-22.97
-25.26
-26.57
-26.50
-24.89
-21.82
-17.59
-12.57
-7.22
-1.88
3.13
7.61
11.44
14.54
16.87
18.39
19.10
19.09
18.49
17.54
16.43
15.32
14.26
13.29
12.49
11.94
11.74
11.91
12.34
12.88
13.32
13.52
13.40
12.96
12.25
11.34
10.36
9.40
8.53
7.76
7.04
6.28
5.39
4.30
3.02
1.57
0.02
-1.52
-2.95
-4.23
-5.32
-6.26
-7.14
-8.06
-9.14
-10.50
-12.19
-14.21
-16.46
-18.68
-20.56
-21.74
-21.92
-20.96
-18.87
-15.83
-12.06
-7.87
-3.53
0.68
4.53
7.89
10.71
13.03
14.86
16.12
16.64
16.32
15.22
13.66
12.14
11.11
10.83
11.18
11.85
12.50
12.93
13.16
13.33
13.50
13.58
13.32
12.49
11.05
9.21
7.41
6.08
5.45
5.42
5.63
5.63
5.08
3.93
2.38
0.75
-0.68
-1.85
-2.88
-4.02
-5.42
-7.04
-8.67
-10.04
-11.01
-11.63
-12.14
-12.82
-13.89
-15.41
-17.26
-19.22
-21.03
-22.39
-23.02
-22.65
-21.06
-18.17
-14.16
-9.41
-4.48
0.12
4.02
7.12
9.48
11.24
12.51
13.28
13.51
13.19
12.46
11.61
10.95
10.72
10.87
11.11
11.08
10.54
9.59
8.58
7.94
7.95
8.56
9.46
10.20
10.47
10.20
9.54
8.72
7.91
7.16
6.37
5.47
4.41
3.22
1.96
0.70
-0.51
-1.65
-2.73
-3.82
-4.98
-6.31
-7.80
-9.30
-10.61
-11.53
-12.07
-12.46
-13.08
-14.26
-16.11
-18.42
-20.76
-22.66
-23.79
-24.00
-23.26
-21.59
-19.01
-15.58
-11.52
-7.20
-3.04
0.62
3.64
6.10
8.18
9.99
11.50
12.56
13.03
12.86
12.16
11.15
10.07
9.07
8.27
7.78
7.69
8.07
8.88
9.93
10.85
11.25
10.85
9.66
7.97
6.27
4.96
4.27
4.09
4.12
4.02
3.54
2.66
1.52
0.32
-0.78
-1.73
-2.59
-3.47
-4.47
-5.61
-6.83
-8.01
-9.02
-9.70
-10.01
-10.04
-10.02
-10.29
-11.11
-12.57
-14.48
-16.47
-18.09
-18.98
-18.93
-17.86
-15.77
-12.78
-9.11
-5.07
-1.11
2.39
5.17
7.20
8.61
9.59
10.24
10.57
10.52
10.08
9.37
8.56
7.85
7.31
6.95
6.74
6.63
6.65
6.84
7.25
7.85
8.52
9.12
9.46
9.43
9.00
8.26
7.38
6.55
5.81
5.10
4.21
2.99
1.39
-0.41
-2.16
-3.60
-4.68
-5.52
-6.32
-7.24
-8.31
-9.43
-10.48
-11.40
-12.24
-13.10
-14.04
-15.16
-16.45
-17.87
-19.33
-20.56
-21.27
-21.12
-19.94
-17.70
-14.63
-11.06
-7.30
-3.63
-0.17
2.96
5.70
7.95
9.58
10.52
10.70
10.17
9.01
