1700166049.00
64.000000
-0.00
-0.00
-0.00
-0.00
-0.00
-0.00
-0.00
-0.00
-0.00
-0.00
0.00
0.01
0.01
-0.00
-0.03
-0.05
-0.05
0.00
0.13
0.36
0.66
1.01
1.37
1.72
2.06
2.40
2.79
3.24
3.80
4.42
5.06
5.66
6.20
6.68
7.15
7.68
8.31
9.14
10.09
11.04
11.88
12.56
13.14
13.76
14.65
15.96
17.91
20.32
22.90
25.38
27.58
29.57
31.68
34.32
37.81
42.54
48.15
54.10
59.83
64.97
69.58
74.14
79.34
85.71
93.76
103.00
112.62
121.73
129.77
136.75
143.30
150.75
157.77
166.64
177.95
191.79
206.97
220.57
228.25
225.36
208.53
176.87
132.76
80.05
23.06
-34.95
-92.44
-149.15
-205.20
-260.33
-313.71
-363.89
-409.92
-451.10
-486.80
-516.13
-537.66
-549.66
-550.39
-538.79
-514.66
-479.20
-434.52
-383.20
-327.85
-270.70
-213.46
-157.45
-103.74
-53.24
-6.96
34.26
69.84
99.59
123.70
142.65
157.05
167.46
174.39
178.21
179.28
178.04
174.96
170.52
165.08
158.82
151.77
143.92
135.33
126.26
117.11
108.35
100.26
92.87
85.85
78.72
71.08
62.80
54.20
45.87
38.41
32.19
27.11
22.73
18.44
13.74
8.32
2.04
-5.02
-12.37
-18.92
-23.00
-22.80
-17.16
-6.37
7.70
22.14
34.09
41.81
45.11
45.05
43.10
40.37
37.42
34.36
31.33
28.68
26.75
25.68
25.13
24.42
22.91
20.19
16.34
11.90
7.79
5.16
5.13
8.26
14.18
21.41
27.77
31.18
30.57
26.40
20.38
14.60
10.44
8.02
6.36
4.22
0.96
-3.03
-6.63
-8.69
-8.72
-7.15
-4.97
-3.26
-2.65
-3.00
-3.72
-4.14
-3.86
-2.96
-1.86
-1.08
-0.95
-1.54
-2.60
-3.77
-4.69
-5.09
-4.90
-4.26
-3.37
-2.50
-1.82
-1.39
-1.17
-1.05
-0.82
-0.28
0.79
2.57
5.15
8.44
12.12
15.69
18.58
20.23
20.23
18.45
15.06
10.55
5.60
0.88
-3.08
-6.24
-8.76
-10.83
-12.44
-13.43
-13.57
-12.81
-11.50
-10.28
-9.74
-10.12
-11.12
-12.13
-12.55
-12.18
-11.24
-10.30
-9.82
-9.92
-10.31
-10.45
-9.99
-8.92
-7.59
-6.51
-6.12
-6.57
-7.66
-8.95
-9.89
-10.06
-9.31
-7.90
-6.38
-5.40
-5.38
-6.34
-7.82
-9.11
-9.54
-8.75
-6.75
-3.88
-0.64
2.40
4.63
5.46
4.53
1.87
-2.07
-6.49
-10.74
-14.56
-18.21
-22.14
-26.42
-30.53
-33.36
-33.82
-31.37
-26.32
-19.72
-12.71
-6.41
-1.40
2.28
4.99
6.99
8.38
9.10
9.22
9.11
9.33
10.49
12.91
16.34
20.06
23.20
25.05
25.40
24.55
23.14
21.82
20.99
20.64
20.39
19.74
18.35
16.20
13.58
10.90
8.44
6.29
4.38
2.60
0.98
-0.39
-1.40
-2.08
-2.68
-3.56
-4.98
-6.93
-9.03
-10.66
-11.24
-10.49
-8.43
-5.39
-1.94
1.33
3.90
5.46
5.96
5.56
4.64
3.85
3.77
4.55
5.75
6.64
6.55
5.20
2.76
-0.15
-2.26
-2.47
-0.50
2.79
5.88
7.32
6.32
2.98
-1.90
-6.37
-8.67
-8.21
-5.85
-3.18
-1.52
-1.17
-1.65
-1.90
0.39
7.55
20.94
40.32
64.24
90.21
115.03
134.89
139.83
122.83
84.85
36.16
-10.04
-44.33
-63.87
-70.55
-68.46
-61.74
-52.27
-40.43
-26.44
-11.64
2.48
13.57
19.85
20.66
16.42
9.26
1.71
-4.50
-10.08
-15.06
-19.99
-25.37
-31.26
-37.44
-42.92
-46.70
-48.27
-47.98
-46.35
-44.15
-42.43
-41.18
-40.26
-39.08
-37.04
-33.66
-29.06
-23.64
-18.32
-13.96
-10.94
-9.29
-8.42
-7.66
-6.18
-3.63
0.25
5.43
11.62
18.81
27.05
36.62
47.50
59.69
70.68
77.60
78.49
73.45
64.49
53.97
45.35
38.68
33.76
30.57
29.56
31.19
34.78
39.19
42.41
42.22
36.80
26.08
11.48
-4.36
-18.72
-29.73
-36.73
-40.25
-41.30
-40.97
-39.74
-37.85
-35.53
-33.22
-31.50
-30.77
-31.11
-32.18
-33.56
-34.79
-35.73
-36.56
-37.51
-38.75
-40.27
-42.00
-43.84
-45.68
-47.26
-48.13
-48.00
-46.64
-44.10
-40.70
-36.97
-33.35
-30.12
-27.28
-24.62
-22.25
-20.29
-18.85
-17.91
-17.15
-16.07
-14.06
-10.75
-5.95
-0.08
6.45
13.38
20.72
28.74
37.76
47.82
57.29
66.27
73.27
77.05
76.88
72.88
65.96
57.77
50.02
43.89
39.75
36.78
33.85
29.95
24.56
17.69
9.87
1.70
-6.53
-14.69
-22.88
-30.80
-37.71
-42.81
-45.67
-46.11
-44.15
-39.95
-33.53
-24.86
-14.10
-1.86
10.25
18.65
20.27
15.00
5.60
-4.36
-12.32
-17.05
-18.28
-15.31
-7.20
6.66
25.47
46.38
65.17
77.81
80.29
71.77
54.70
33.47
12.78
-4.13
-16.28
-24.49
-30.20
-34.48
-37.35
-38.40
-37.56
-35.25
-32.33
-29.72
-27.92
-26.78
-25.63
-23.46
-19.57
-13.94
-7.15
-0.18
5.97
10.66
13.83
16.03
18.23
21.35
25.77
31.25
37.04
42.18
45.85
47.60
47.33
45.26
41.69
36.92
31.30
25.20
19.05
13.22
7.97
3.40
-0.46
-3.63
-6.21
-8.41
-10.61
-13.25
-16.66
-20.81
-25.25
-29.22
-31.94
-33.05
-32.69
-31.49
-30.16
-29.13
-28.39
-27.67
-26.66
-25.30
-23.87
-22.81
-22.55
-23.36
-25.32
-28.34
-32.07
-35.78
-38.41
-38.80
-36.12
-30.28
-22.17
-13.37
-5.79
-0.94
0.41
-1.59
-6.03
-11.51
-16.53
-19.79
-20.52
-18.65
-14.80
-10.09
-5.79
-2.93
-1.94
-2.65
-4.39
-6.37
-7.91
-8.78
-9.14
-9.45
-10.17
-11.59
-13.68
-16.19
-18.78
-21.25
-23.57
-25.88
-28.36
-31.08
-34.00
-36.95
-39.77
-42.37
-44.86
-47.46
-50.48
-54.19
-58.69
-63.81
-69.01
-73.44
-76.14
-76.23
-73.20
-67.00
-58.06
-47.06
-34.63
-21.15
-6.82
8.15
23.38
38.21
52.01
64.36
75.28
85.16
94.56
103.80
112.77
120.85
127.26
131.44
133.24
133.01
131.33
129.02
126.76
124.92
123.51
122.37
121.29
120.13
118.61
116.44
113.58
110.09
105.90
100.62
93.79
85.24
75.10
63.93
52.67
42.83
35.64
31.15
27.74
22.86
14.26
0.83
-16.95
-37.10
-56.10
-70.13
-76.26
-73.55
-62.80
-46.18
-27.02
-9.36
-0.28
-4.92
-22.33
-45.31
-65.78
-79.32
-85.70
-87.15
-86.34
-84.87
-82.46
-78.56
-72.30
-64.21
-55.62
-47.69
-40.88
-35.10
-29.96
-24.79
-19.23
-13.72
-9.49
-7.69
-8.43
-10.70
-13.01
-14.06
-13.06
-10.20
-6.52
-3.76
-3.40
-6.03
-11.24
-17.95
-24.82
-30.58
-34.37
-35.97
-35.89
-34.93
-33.84
-33.19
-33.37
-34.55
-36.72
-39.61
-42.75
-45.55
-47.40
-47.82
-46.64
-44.00
-40.12
-35.12
-28.93
-21.36
-12.41
-2.44
7.77
17.25
25.08
30.63
33.72
34.59
33.76
31.87
29.48
26.97
24.65
22.92
22.54
24.52
29.85
38.87
50.81
63.58
74.40
80.49
80.03
72.49
58.61
40.03
19.00
-1.90
-19.85
-32.29
-37.54
-35.51
-27.83
-17.42
-7.54
-0.67
2.17
1.48
-1.12
-3.70
-4.68
-3.32
0.36
5.64
11.51
17.02
21.48
24.65
26.59
27.57
27.97
28.14
28.36
28.86
29.77
30.97
32.21
33.12
33.45
33.17
32.44
31.59
30.92
30.62
30.74
31.23
31.96
32.71
33.29
33.55
33.43
33.00
32.35
31.46
30.15
28.05
24.79
20.24
14.63
8.53
2.57
-2.77
-7.37
-11.36
-14.98
-18.41
-21.70
-24.73
-27.39
-29.74
-31.98
-34.48
-37.59
-41.49
-46.09
-50.97
-55.41
-58.73
-60.44
-60.47
-59.22
-57.25
-55.08
-53.04
-51.12
-49.12
-46.91
-44.62
-42.60
-41.30
-40.77
-40.81
-41.01
-40.85
-39.81
-37.75
-34.99
-32.13
-29.98
-28.76
-28.33
-28.49
-28.71
-28.19
-26.34
-22.97
-18.29
-13.13
-7.79
-2.56
2.24
6.79
11.89
18.44
27.03
37.93
50.67
65.35
81.96
97.33
107.29
109.07
103.18
92.76
84.54
78.93
75.08
71.98
68.98
64.69
59.54
54.56
50.74
48.52
47.25
46.40
45.01
41.88
36.40
29.15
21.33
14.26
8.77
4.56
1.22
-1.97
-5.73
-10.29
-15.17
-19.86
-24.20
-28.47
-33.39
-39.23
-45.90
-53.09
-60.31
-66.96
-72.58
-76.81
-79.25
-79.55
-77.27
-72.29
-65.04
-56.35
-47.26
-38.77
-31.67
-26.51
-23.61
-22.97
-24.28
-26.80
-29.47
-30.93
-29.88
-25.45
-17.52
-6.84
5.08
16.39
25.41
31.11
33.32
32.56
29.75
25.75
21.16
16.27
11.25
6.29
1.60
-2.52
-5.84
-8.30
-9.94
-10.97
-11.70
-12.42
-13.33
-14.40
-15.41
-16.03
-16.11
-15.78
-15.47
-15.72
-16.88
-18.86
-21.19
-23.16
-24.18
-23.94
-22.52
-20.24
-17.45
-14.28
-10.63
-6.23
-0.86
5.42
12.19
18.80
24.63
29.39
33.21
36.45
39.43
42.13
44.14
44.92
44.09
41.69
38.07
33.78
29.17
24.37
19.32
13.93
8.32
2.83
-2.09
-6.14
-9.11
-11.00
-11.75
-11.24
-9.32
-5.85
-1.01
4.72
10.54
15.61
19.19
20.85
20.58
18.73
16.06
13.57
12.31
12.99
15.71
19.82
24.16
27.51
29.07
28.61
26.35
22.63
17.56
11.09
3.23
-5.68
-14.89
-23.49
-30.79
-36.62
-41.30
-45.46
-49.64
-54.14
-58.91
-63.69
-68.14
-71.89
-74.69
-76.43
-77.11
-76.81
-75.58
-73.37
-70.03
-65.42
-59.55
-52.76
-45.63
-38.84
-32.91
-27.99
-23.92
-20.33
-16.98
-13.79
-10.98
-8.80
-7.44
-6.86
-6.80
-6.83
-6.45
-5.28
-3.06
0.13
4.04
8.23
12.29
15.85
18.59
20.17
20.17
18.28
14.56
9.61
4.53
0.46
-1.89
-2.58
-2.31
-1.81
-1.28
-0.08
2.86
8.47
16.85
27.23
38.22
48.54
57.38
64.39
69.47
72.36
72.72
70.29
65.18
58.03
49.79
41.42
33.79
27.52
23.14
21.06
21.55
24.59
29.76
36.36
43.52
50.45
56.50
61.09
63.70
63.84
61.23
56.00
48.76
40.46
32.19
24.88
19.04
14.76
11.76
9.59
7.77
5.95
3.99
1.98
0.16
-1.17
-1.76
-1.59
-0.83
0.10
0.74
0.68
-0.24
-1.99
-4.32
-6.93
-9.52
-11.87
-13.84
-15.30
-16.09
-16.07
-15.18
-13.57
-11.54
-9.52
-7.83
-6.55
-5.53
-4.47
-3.11
-1.43
0.39
2.06
3.33
4.05
4.24
3.98
3.35
2.40
1.21
-0.15
-1.60
-3.09
-4.55
-5.89
-6.95
-7.53
-7.50
-6.84
-5.62
-4.05
-2.35
-0.76
0.54
1.42
1.86
1.92
1.81
1.74
1.85
2.10
2.26
2.02
1.20
-0.12
-1.63
-2.86
-3.54
-3.59
-3.20
-2.67
-2.25
-2.11
-2.33
-3.06
-4.42
-6.48
-9.06
-11.54
-12.92
-12.02
-8.02
-0.80
8.71
18.79
27.32
32.43
33.03
28.93
20.84
9.91
-2.46
-14.89
-26.01
-34.56
-39.56
-40.63
-38.18
-33.42
-27.96
-23.27
-20.04
-18.12
-16.70
-14.93
-12.36
-9.22
-6.14
-3.74
-2.38
-1.97
-2.25
-3.06
-4.42
-6.49
-9.34
-12.72
-16.12
-18.97
-20.95
-22.12
-22.96
-24.09
-26.05
-29.14
-33.34
-38.37
-43.73
-48.79
-53.01
-56.02
-57.74
-58.43
-58.53
-58.51
-58.77
-59.48
-60.62
-61.96
-63.12
-63.55
-62.70
-60.16
-55.86
-50.21
-43.92
-37.78
-32.29
-27.50
-23.00
-18.16
-12.34
-5.17
3.33
12.80
22.55
31.70
39.39
45.03
48.45
50.07
50.73
51.44
53.14
56.37
61.22
67.36
74.20
81.06
87.37
92.76
97.10
100.55
103.36
105.80
107.90
109.48
110.15
109.50
107.30
103.60
98.78
93.30
87.43
80.99
73.30
63.54
51.08
35.90
18.72
0.90
-15.77
-29.39
-38.32
-41.53
-38.98
-31.69
-21.67
-11.43
-3.47
0.34
-0.85
-6.58
-15.33
-24.82
-32.71
-37.23
-37.74
-35.03
-31.05
-28.19
-28.29
-31.93
-38.29
-45.67
-52.35
-57.27
-60.31
-62.09
-63.54
-65.41
-67.79
-69.97
-70.49
-67.63
-60.10
-47.73
-31.77
-14.73
0.45
11.39
17.20
18.75
18.26
18.33
20.94
26.95
36.06
47.18
58.90
69.71
78.20
83.10
83.65
79.99
73.43
66.40
61.67
61.34
65.89
73.97
82.89
89.72
92.33
89.96
83.24
73.54
62.28
50.33
37.88
24.68
10.56
-4.00
-17.83
-29.38
-37.52
-42.04
-43.89
-44.57
-45.42
-47.14
-49.69
-52.89
-56.93
-62.53
-70.54
-81.17
-93.43
-105.14
-113.58
-116.54
-113.17
-104.33
-92.21
-79.60
-68.93
-61.63
-57.95
-57.19
-58.35
-60.57
-63.42
-66.65
-69.92
-72.51
-73.51
-72.09
-67.94
-61.28
-52.62
-42.31
-30.24
-15.98
0.82
19.77
39.49
57.91
73.00
83.47
89.18
91.02
90.36
88.54
86.55
84.96
84.13
84.25
85.42
87.39
89.53
90.82
90.19
87.13
82.12
76.79
73.35
73.47
77.13
81.91
83.44
76.75
58.35
27.81
-11.66
-54.04
-92.26
-120.21
-134.26
-133.97
-121.76
-101.98
-79.66
-59.05
-42.80
-31.63
-24.65
-20.24
-16.90
-13.87
-11.10
-8.73
-6.59
-3.96
0.12
6.16
13.68
21.21
27.01
29.88
29.67
27.20
23.59
19.62
15.49
11.07
6.37
1.70
-2.44
-5.90
-9.05
-12.58
-16.85
-21.46
-25.44
-27.72
-27.90
-26.36
-23.95
-21.29
-18.28
-14.28
-8.68
-1.56
6.20
13.10
17.66
18.84
16.31
10.40
2.00
-7.71
-17.49
-26.35
-33.87
-40.21
-45.78
-50.83
-54.89
-56.83
-55.39
-49.93
-41.04
-30.48
-20.50
-12.94
-8.61
-7.15
-7.35
-7.71
-6.77
-3.45
2.95
12.49
24.46
37.34
48.93
56.74
58.69
53.81
42.69
27.45
11.13
-3.34
-14.18
-21.29
-26.00
-30.21
-35.12
-40.57
-44.98
-46.18
-42.56
-33.83
-21.32
-7.33
5.58
15.50
21.45
23.49
22.38
19.05
14.36
8.70
2.19
-5.12
-12.96
-20.64
-27.17
-31.59
-33.38
-32.58
-29.76
-25.67
-20.94
-15.77
-10.04
-3.50
3.86
11.60
18.91
24.90
28.99
31.20
32.09
32.37
32.54
32.57
31.94
30.04
26.58
21.82
16.59
11.84
8.21
5.78
3.98
1.97
-1.02
-5.34
-10.80
-16.85
-22.92
-28.67
-34.11
-39.47
-45.02
-50.88
-56.92
-62.79
-67.94
-71.76
-73.69
-73.32
-70.63
-66.06
-60.46
-54.90
-50.33
-47.22
-45.45
-44.26
-42.58
-39.44
-34.24
-26.95
-18.03
-8.17
1.97
11.83
21.03
29.25
36.14
41.33
44.51
45.55
44.63
42.13
38.53
34.24
29.47
24.30
18.90
13.75
9.70
7.85
9.14
13.90
21.59
30.86
39.92
47.18
51.62
52.99
51.56
47.90
42.67
36.52
30.05
23.86
18.34
13.50
8.90
3.77
-2.69
-10.83
-20.24
-29.81
-38.01
-43.40
-45.11
-42.87
-37.01
-28.02
-16.43
-2.81
12.01
26.76
39.80
49.33
54.00
53.38
48.17
40.06
31.30
24.06
19.91
19.50
22.46
27.63
33.33
37.88
39.90
38.66
34.11
26.80
17.57
7.41
-2.73
-11.92
-19.36
-24.42
-26.89
-26.99
-25.36
-22.73
-19.50
-15.63
-10.81
-4.94
1.42
6.88
9.71
8.48
2.88
-6.12
-16.46
-25.84
-32.37
-35.18
-34.51
-31.25
-26.59
-21.48
-16.59
-12.33
-9.02
-6.97
-6.33
-6.97
-8.43
-9.97
-10.90
-10.82
-9.82
-8.36
-7.06
-6.40
-6.63
-7.68
-9.25
-11.00
-12.63
-13.88
-14.63
-14.81
-14.36
-13.24
-11.33
-8.52
-4.88
-0.73
3.31
6.48
8.15
8.20
7.02
5.50
4.57
4.83
6.32
8.58
10.93
12.86
14.36
15.84
18.01
21.36
25.99
31.40
36.65
40.67
42.62
42.12
39.34
34.97
29.92
25.10
21.16
18.31
16.44
15.23
14.35
13.69
13.39
13.73
14.97
17.08
19.63
21.84
22.76
21.67
18.28
12.94
6.60
0.54
-3.98
-6.15
-5.91
-3.99
-1.58
0.14
0.35
-1.07
-3.69
-6.83
-9.84
-12.33
-14.24
-15.71
-16.96
-18.15
-19.30
-20.33
-21.09
-21.47
-21.41
-21.00
-20.42
-19.86
-19.50
-19.41
-19.61
-20.03
-20.45
-20.50
-19.75
-17.91
-15.03
-11.54
-8.13
-5.36
-3.42
-2.01
-0.71
0.79
2.38
3.68
4.29
4.14
3.49
2.81
2.45
2.39
2.44
2.34
2.05
1.73
1.51
1.27
0.67
-0.58
-2.22
-3.14
-1.66
3.69
13.20
25.52
37.99
47.65
52.47
52.05
47.52
40.68
33.16
25.84
19.05
12.95
7.91
4.49
3.04
3.33
4.46
5.29
4.91
2.99
-0.15
-3.80
-7.25
-10.04
-12.05
-13.52
-14.88
-16.66
-19.27
-22.88
-27.16
-31.24
-33.86
-33.73
-30.06
-22.94
-13.42
-3.26
5.65
11.80
14.52
14.02
11.25
7.47
3.85
1.21
-0.12
-0.21
0.67
2.18
4.05
6.09
8.10
9.89
11.22
11.91
11.95
11.54
11.13
11.23
12.29
14.50
17.74
21.53
25.04
27.20
26.87
23.15
15.80
5.55
-5.93
-16.34
-23.57
-26.36
-24.75
-19.98
-13.81
-7.86
-3.10
0.23
2.29
3.38
3.70
3.51
3.19
3.35
4.59
7.20
10.98
15.19
18.83
21.01
21.25
19.65
16.77
13.41
10.31
7.96
6.47
5.60
5.01
4.34
3.48
2.54
1.74
1.29
1.16
1.11
0.79
-0.11
-1.65
-3.70
-5.92
-8.06
-9.92
-11.51
-13.03
-14.81
-17.24
-20.61
-24.96
-30.01
-35.28
-40.22
-44.46
-47.78
-50.09
-51.32
-51.29
-49.79
-46.73
-42.30
-36.97
-31.36
-26.01
-21.18
-16.78
-12.53
-8.17
-3.66
0.85
5.02
8.60
11.52
13.90
15.94
17.68
18.95
19.49
19.10
17.99
16.61
15.51
14.99
15.02
15.29
15.44
15.34
15.09
14.89
14.92
15.18
15.62
16.15
16.79
17.55
18.31
18.80
18.70
17.78
16.02
13.65
11.02
8.42
6.04
4.02
2.43
1.36
0.80
0.65
0.58
0.26
-0.50
-1.60
-2.74
-3.62
-4.13
-4.41
-4.80
-5.60
-6.98
-8.84
-11.02
-13.31
-15.57
-17.63
-19.29
-20.35
-20.68
-20.32
-19.45
-18.31
-17.00
-15.48
-13.55
-11.11
-8.21
-5.07
-2.08
0.46
2.39
3.80
4.96
6.21
7.84
9.97
12.54
15.27
17.76
19.58
20.40
20.06
18.59
16.24
13.35
10.32
7.45
4.96
2.90
1.22
-0.24
-1.72
-3.44
-5.53
-7.97
-10.54
-12.87
-14.56
-15.39
-15.32
-14.52
-13.17
-11.43
-9.36
-6.97
-4.37
-1.74
0.74
3.02
5.23
7.52
9.91
12.23
14.19
15.54
16.24
16.46
16.42
16.21
15.76
14.89
13.53
11.79
9.96
8.34
7.12
6.28
5.62
4.91
4.02
2.89
1.58
0.19
-1.09
-2.06
-2.51
-2.32
-1.50
-0.20
1.33
2.83
4.03
4.75
4.85
4.22
2.88
0.93
-1.38
-3.67
-5.58
-6.84
-7.40
-7.50
-7.59
-8.14
-9.42
-11.36
-13.51
-15.22
-15.90
-15.20
-13.18
-10.21
-6.80
-3.50
-0.67
1.50
2.96
3.80
4.21
4.46
4.76
5.27
5.96
6.72
7.40
7.92
8.36
8.87
9.65
10.79
12.25
13.83
15.30
16.44
17.14
17.39
17.29
16.96
16.49
15.89
15.12
14.15
12.96
11.55
9.95
8.14
6.11
3.91
1.62
-0.62
-2.66
-4.39
-5.81
-7.01
-8.16
-9.43
-11.00
-12.97
-15.40
-18.26
-21.46
-24.82
-28.06
-30.91
-33.14
-34.57
-35.16
-35.06
-34.59
-34.21
-34.35
-35.27
-36.86
-38.74
-40.38
-41.48
-42.12
-42.79
-44.13
-46.62
-50.22
-54.41
-58.37
-61.26
-62.45
-61.54
-58.40
-53.11
-46.08
-38.22
-30.89
-25.46
-22.63
-21.82
-21.02
-17.44
-8.68
6.09
25.61
47.01
66.91
82.57
92.52
96.38
94.30
86.54
73.55
56.47
37.42
19.33
5.02
-3.75
-6.89
-5.83
-2.63
0.99
4.22
7.23
10.56
14.54
18.93
23.01
25.86
26.86
25.90
23.41
20.07
16.40
12.46
7.80
1.82
-5.86
-14.93
-24.48
-33.28
-40.40
-45.56
-49.16
-51.92
-54.35
-56.47
-57.81
-57.89
-56.56
-54.30
-52.04
-50.79
-51.08
-52.67
-54.49
-54.81
-51.69
-43.47
-29.37
-9.90
12.99
36.29
56.80
72.08
81.22
84.93
85.01
83.41
81.51
79.82
78.21
76.48
74.55
72.63
70.86
69.11
66.96
63.94
59.88
54.95
49.73
44.85
40.77
37.62
35.26
33.41
31.81
30.41
29.30
28.68
28.71
29.44
30.73
32.29
33.71
34.49
34.13
32.19
28.45
22.97
16.21
8.94
2.11
-3.42
-7.10
-8.69
-8.20
-5.65
-1.02
5.62
13.91
23.01
31.79
39.18
44.59
48.02
49.93
50.78
50.58
48.87
45.00
38.52
29.53
18.67
6.85
-5.06
-16.48
-27.14
-36.96
-45.92
-53.96
-60.90
-66.39
-70.03
-71.48
-70.70
-68.12
-64.61
-61.15
-58.37
-56.19
-53.74
-49.72
-42.86
-32.53
-18.91
-2.93
14.03
30.50
45.06
56.55
64.12
67.62
67.62
65.42
62.57
60.20
58.55
56.87
53.92
48.64
40.76
30.91
20.22
9.96
1.07
-5.88
-10.55
-12.79
-12.68
-10.69
-7.72
-4.85
-3.05
-2.80
-3.93
-5.89
-8.00
-9.77
-11.08
-12.07
-13.04
-14.27
-16.04
-18.51
-21.69
-25.32
-28.87
-31.64
-33.00
-32.68
-30.93
-28.46
-26.26
-25.26
-26.09
-28.88
-33.26
-38.43
-43.25
-46.54
-47.29
-44.94
-39.62
-32.20
-24.17
-17.23
-12.84
-11.72
-13.60
-17.22
-20.75
-22.38
-20.97
-16.38
-9.39
-1.25
6.90
14.42
21.21
27.45
33.30
38.72
43.49
47.36
50.18
51.95
52.76
52.81
52.31
51.47
50.51
49.58
48.72
47.92
47.11
46.25
45.37
44.50
43.64
42.65
41.36
39.64
37.36
34.43
30.62
25.64
19.23
11.40
2.59
-6.39
-14.58
-21.15
-25.67
-28.10
-28.74
-28.09
-26.82
-25.80
-25.99
-28.27
-33.12
-40.39
-49.22
-58.15
-65.55
-69.96
-70.55
-67.25
-60.78
-52.41
-43.62
-35.79
-29.90
-26.46
-25.51
-26.79
-29.76
-33.66
-37.58
-40.58
-41.82
-40.95
-38.07
-33.52
-27.62
-20.31
-11.31
-0.46
11.76
24.10
34.87
42.77
47.63
50.65
53.93
59.41
67.92
78.91
90.72
101.46
109.74
115.00
117.24
116.85
114.28
110.10
105.06
100.15
96.29
93.95
92.77
91.64
89.21
84.24
76.22
65.45
52.74
39.23
25.98
13.72
2.77
-7.02
-16.06
-24.66
-32.82
-40.06
-45.51
-48.35
-48.26
-45.59
-41.40
-36.97
-33.35
-30.94
-29.84
-29.73
-30.33
-31.31
-32.22
-32.37
-31.05
-27.96
-23.63
-19.46
-17.00
-17.37
-20.49
-25.08
-29.35
-31.98
-32.70
-32.40
-32.50
-34.15
-37.63
-42.65
-48.50
-54.76
-61.29
-67.97
-74.33
-79.51
-82.69
-83.67
-83.03
-81.63
-80.23
-78.62
-75.86
-70.87
-63.17
-53.29
-42.57
-32.57
-24.38
-18.34
-14.14
-11.20
-8.99
-7.06
-5.06
-2.71
0.12
3.35
6.68
9.79
12.65
15.20
17.45
19.21
20.16
20.02
18.82
16.85
14.49
11.89
8.89
5.28
0.88
-4.06
-8.99
-13.30
-16.59
-18.75
-19.90
-20.17
-19.58
-18.10
-15.77
-12.83
-9.76
-7.11
-5.37
-4.90
-5.89
-8.30
-11.84
-15.86
-19.33
-21.10
-20.22
-16.31
-9.76
-1.61
6.87
14.51
20.57
24.76
27.02
27.40
25.90
22.58
17.63
11.60
5.31
-0.26
-4.17
-5.92
-5.52
-3.51
-0.65
2.30
4.81
6.61
7.55
7.57
6.71
5.14
3.35
1.96
1.52
2.33
4.18
6.51
8.72
10.43
11.64
12.67
13.91
15.58
17.61
19.66
21.19
21.58
20.27
16.86
11.39
4.29
-3.52
-10.96
-17.11
-21.47
-23.97
-24.90
-24.60
-23.41
-21.60
-19.53
-17.71
-16.70
-16.95
-18.59
-21.48
-25.20
-29.30
-33.48
-37.48
-41.03
-43.88
-45.68
-46.13
-45.08
-42.51
-38.58
-33.56
-27.81
-21.72
-15.67
-9.95
-4.76
-0.18
3.77
7.15
10.17
13.11
16.27
19.83
23.70
27.49
30.65
32.73
33.54
33.16
31.85
29.85
27.27
24.09
20.34
16.18
11.95
7.97
4.40
1.13
-2.16
-5.76
-9.74
-13.92
-18.02
-21.76
-25.06
-27.84
-30.02
-31.39
-31.63
-30.60
-28.42
-25.55
-22.56
-19.83
-17.40
-14.94
-12.10
-8.75
-5.12
-1.63
1.48
4.32
7.34
10.92
14.99
18.93
21.81
22.84
21.89
19.53
16.82
14.80
14.10
14.79
16.50
18.73
20.86
22.25
22.18
19.92
15.04
7.70
-1.27
-10.44
-18.26
-23.52
-25.69
-24.87
-21.71
-17.00
-11.64
-6.48
-2.38
-0.02
0.11
-2.15
-6.52
-12.42
-18.93
-24.97
-29.43
-31.24
-29.73
-24.73
-16.68
-6.62
4.13
14.23
22.58
28.46
31.59
32.05
30.22
26.77
22.53
18.30
14.60
11.43
8.35
4.78
0.33
-4.83
-9.96
-14.00
-16.12
-16.08
-14.29
-11.58
-8.83
-6.64
-5.27
-4.69
-4.83
-5.49
-6.36
-7.04
-7.13
-6.51
-5.49
-4.71
-4.80
-6.12
-8.48
-11.19
-13.38
-14.40
-13.99
-12.29
-9.67
-6.56
-3.38
-0.41
2.18
4.39
6.33
8.23
10.20
12.27
14.29
16.07
17.60
19.01
20.60
22.54
24.74
26.82
28.31
28.91
28.64
27.86
27.05
26.54
26.49
26.75
27.02
26.99
26.29
24.57
21.53
16.96
10.89
3.67
-4.00
-11.28
-17.32
-21.53
-23.77
-24.21
-23.42
-22.10
-21.03
-21.01
-22.71
-26.49
-32.29
-39.53
-47.20
-54.12
-59.29
-62.17
-62.83
-61.79
-59.76
-57.36
-54.89
-52.36
-49.68
-46.77
-43.80
-40.96
-38.44
-36.30
-34.40
-32.56
-30.66
-28.66
-26.56
-24.30
-21.68
-18.49
-14.58
-10.03
-5.14
-0.35
3.88
7.20
9.49
10.79
11.37
11.52
11.47
11.33
11.07
10.62
10.03
9.40
8.86
8.40
7.83
6.80
5.00
2.36
-0.91
-4.38
-7.57
-10.07
-11.71
-12.55
-12.80
-12.79
-12.93
-13.60
-15.08
-17.50
-20.70
-24.27
-27.56
-29.81
-30.30
-28.51
-24.24
-17.69
-9.38
-0.02
9.63
18.90
27.24
34.32
40.03
44.55
48.24
51.50
54.60
57.60
60.38
62.74
64.55
65.90
67.08
68.47
70.36
72.74
75.16
76.82
76.69
73.91
68.10
59.54
49.24
38.60
29.03
21.48
16.28
13.12
11.42
10.53
9.97
9.44
8.61
7.06
4.26
-0.22
-6.58
-14.65
-23.97
-34.07
-44.48
-54.85
-64.76
-73.53
-80.23
-83.84
-83.61
-79.40
-71.84
-62.14
-51.75
-41.72
-32.46
-23.74
-15.20
-6.84
0.46
5.20
5.79
1.51
-7.03
-17.91
-28.75
-37.58
-43.48
-46.59
-47.53
-46.77
-44.38
-40.17
-34.17
-26.95
-19.60
-13.39
-9.25
-7.45
-7.74
-9.64
-12.94
-17.87
-25.02
-34.85
-47.17
-60.82
-73.80
-83.77
-88.73
-87.51
-79.99
-66.77
-48.89
-27.43
-3.42
22.15
48.29
74.04
98.68
121.78
143.21
163.02
181.09
196.83
209.05
216.01
215.93
207.68
191.38
168.71
142.53
115.94
91.24
69.22
49.31
30.40
11.79
-6.23
-22.66
-36.61
-48.09
-58.13
-68.25
-79.43
-91.42
-102.74
-111.40
-115.90
-115.88
-112.13
-105.86
-98.07
-89.04
-78.51
-66.23
-52.39
-37.84
-23.81
-11.37
-0.91
8.01
16.51
25.83
36.81
49.49
63.19
76.75
89.05
99.24
107.00
112.37
115.70
117.25
117.07
114.82
109.77
101.21
88.69
72.47
53.48
33.06
12.43
-7.71
-27.18
-45.96
-63.74
-79.86
-93.50
-104.32
-112.63
-119.16
-124.35
-127.71
-127.93
-123.68
-114.65
-102.22
-89.07
-78.06
-71.05
-68.27
-68.69
-70.80
-73.16
-74.41
-72.74
-65.63
-50.24
-24.48
11.66
55.51
102.19
145.90
181.60
206.11
218.34
219.00
209.78
192.87
170.52
144.97
118.36
92.58
69.14
49.01
32.47
19.04
7.62
-3.27
-15.13
-29.01
-45.32
-63.67
-83.15
-102.51
-120.60
-136.37
-148.88
-157.08
-159.80
-156.04
-145.25
-127.78
-104.87
-78.60
-51.47
-25.93
-3.97
13.03
24.43
30.28
31.32
28.94
24.80
20.54
17.33
15.69
15.48
16.09
16.81
17.15
17.11
17.02
17.31
18.29
19.97
22.15
24.45
26.62
28.62
31.11
34.73
39.72
45.92
52.90
60.18
67.21
73.41
78.25
82.11
85.36
88.10
90.23
91.65
92.26
91.84
90.11
86.94
83.75
81.72
81.11
81.38
81.82
81.98
81.77
81.18
80.28
80.53
82.41
84.95
86.46
85.69
82.44
77.36
71.23
55.17
26.35
-11.26
-49.55
-82.15
-106.77
-123.86
-134.79
-141.40
-145.47
-146.35
-143.71
-138.27
-131.68
-125.55
-120.85
-117.22
-114.29
-111.53
-107.23
-100.64
-92.42
-84.21
-77.52
-72.95
-70.17
-68.41
-66.74
-63.77
-58.96
-52.77
-46.25
-40.20
-34.93
-30.22
-25.83
-21.51
-16.70
-11.07
-4.40
3.57
13.37
25.64
40.69
58.13
76.75
94.88
110.56
121.96
127.79
127.43
120.86
108.48
91.23
70.68
49.13
29.22
13.25
2.44
-3.59
-6.57
-8.89
-12.62
-18.74
-27.06
-36.59
-46.26
-55.35
-63.68
-71.35
-78.37
-84.46
-89.01
-91.30
-90.78
-87.36
-81.52
-74.24
-66.70
-59.90
-54.31
-49.90
-46.21
-42.74
-39.15
-35.37
-31.46
-27.39
-22.88
-17.47
-10.71
-2.52
6.72
16.10
24.54
31.11
35.26
36.93
36.43
34.18
30.53
25.77
20.16
14.14
8.35
3.48
0.15
-1.36
-0.98
1.15
4.98
10.49
17.61
26.04
35.17
44.16
52.22
58.86
64.07
68.12
71.29
73.59
74.60
73.70
70.49
65.13
58.50
51.91
46.62
43.12
40.88
38.43
33.84
25.45
12.35
-5.35
-26.56
-49.43
-71.68
-91.05
-105.74
-114.81
-118.41
-117.65
-114.18
-109.65
-105.30
-101.76
-99.08
-96.93
-94.80
-92.17
-88.54
-83.50
-76.86
-68.73
-59.49
-49.73
-40.07
-30.93
-22.43
-14.31
-6.02
3.01
13.18
24.55
36.90
49.81
62.83
75.67
88.21
100.47
112.49
124.23
135.34
145.17
152.84
157.51
158.68
156.45
151.43
144.46
136.31
127.42
118.06
108.51
99.27
91.02
84.31
79.28
75.49
72.14
68.38
63.73
58.15
51.89
45.34
38.82
32.52
26.57
21.07
16.08
11.62
7.51
3.61
-0.09
-3.48
-6.30
-8.36
-9.56
-10.05
-10.16
-10.39
-11.26
-13.21
-16.51
-21.11
-26.60
-32.24
-37.18
-40.89
-43.30
-44.75
-45.64
-46.14
-46.06
-44.95
-42.24
-37.64
-31.58
-25.10
-19.35
-14.98
-11.82
-9.04
-5.51
0.32
9.45
21.61
35.13
47.50
56.51
60.89
60.36
55.43
48.05
40.43
34.03
28.83
23.62
16.91
7.45
-5.37
-21.09
-36.74
-48.03
-50.99
-43.43
-25.20
2.45
37.06
74.99
104.18
113.20
97.98
65.18
26.61
-8.52
-36.32
-57.23
-73.65
-87.74
-99.01
-105.55
-106.27
-102.06
-95.87
-90.83
-89.01
-90.85
-95.56
-100.90
-104.83
-106.72
-106.61
-105.73
-104.82
-103.79
-102.02
-99.05
-94.39
-87.90
-80.01
-71.44
-62.82
-53.99
-44.07
-31.96
-16.90
1.56
23.11
46.46
69.52
89.82
105.36
115.00
118.64
117.07
111.89
104.89
97.61
90.95
85.00
79.34
73.10
65.21
54.69
41.12
24.94
7.57
-8.88
-22.20
-30.87
-34.56
-34.12
-31.12
-26.97
-22.40
-17.41
-12.36
-7.94
-5.09
-4.52
-6.29
-9.88
-14.23
-18.19
-21.13
-23.12
-24.78
-26.79
-29.75
-33.74
-38.56
-43.74
-48.87
-53.66
-58.02
-61.96
-65.57
-69.20
-72.39
-75.29
-78.13
-81.00
-83.59
-85.13
-84.73
-81.76
-76.32
-69.19
-61.78
-55.31
-50.40
-46.77
-43.49
-39.41
-33.64
-25.95
-16.76
-6.95
2.71
12.05
21.57
32.33
45.45
61.51
80.19
100.30
120.13
138.07
153.07
164.79
173.32
178.80
181.15
180.27
176.33
169.93
161.97
153.14
143.55
132.60
119.44
103.56
85.54
67.05
50.24
36.82
27.29
20.81
15.75
10.44
3.63
-4.82
-14.07
-22.84
-30.09
-35.44
-38.88
-40.51
-40.29
-38.81
-36.58
-34.07
-31.72
-30.16
-30.00
-31.47
-34.17
-37.49
-41.88
-47.71
-54.85
-62.61
-70.18
-77.15
-83.45
-89.19
-94.90
-102.34
-112.44
-124.59
-136.98
-147.87
-156.58
-163.38
-168.78
-165.40
-149.56
-123.51
-94.09
-67.49
-46.65
-32.09
-24.46
-21.21
-19.98
-19.68
-19.03
-16.36
-10.21
0.04
13.02
26.55
39.19
50.42
60.03
68.84
78.10
88.59
99.67
109.14
114.34
113.52
106.00
92.12
74.03
55.64
42.36
39.75
51.76
78.91
117.17
158.14
191.70
210.31
212.04
200.99
184.63
169.45
157.68
146.64
130.75
105.31
69.75
28.04
-13.22
-47.76
-72.00
-85.60
-90.45
-89.27
-84.09
-75.74
-64.75
-52.21
-40.24
-31.75
-29.40
-34.42
-46.16
-61.68
-76.21
-85.82
-88.91
-86.26
-80.36
-74.12
-69.56
-67.88
-68.44
-68.10
-64.31
-56.04
-43.24
-26.99
-9.32
7.20
18.73
22.56
19.76
11.82
-0.21
-14.81
-30.64
-46.71
-62.29
-78.23
-94.50
-107.59
-115.54
-118.95
-119.24
-118.25
-117.62
-107.69
-83.99
-62.59
-48.55
-37.57
-28.74
-21.89
-17.14
-14.32
-12.77
-13.23
-15.80
-17.39
-16.31
-12.98
-8.03
-2.37
3.27
8.41
11.68
12.70
14.20
18.51
26.44
38.01
51.99
66.56
79.86
89.87
95.91
98.41
97.88
95.32
92.77
91.62
92.04
93.11
93.06
90.45
85.37
78.56
71.03
64.55
58.93
53.95
49.51
45.45
41.76
38.68
36.33
34.36
31.91
27.65
20.48
10.12
-3.06
-18.08
-33.60
-48.02
-59.88
-68.30
-73.23
-75.11
-74.79
-73.32
-71.63
-70.30
-69.51
-69.06
-68.49
-67.29
-64.84
-60.72
-54.97
-48.11
-41.10
-34.97
-30.54
-28.18
-27.81
-28.95
-30.96
-33.13
-34.73
-35.11
-33.91
-31.16
-27.37
-23.35
-19.88
-17.41
-15.88
-14.88
-14.03
-13.12
-12.15
-11.17
-10.02
-8.34
-5.80
-2.02
2.98
8.68
14.31
19.21
22.95
25.67
27.59
28.86
30.01
31.36
32.69
33.43
32.99
31.06
28.23
25.40
23.43
23.74
27.02
32.75
39.45
45.53
49.77
52.43
54.25
56.05
59.63
66.24
75.89
87.57
99.87
111.31
121.56
130.40
130.55
117.58
92.44
61.32
31.03
8.23
-8.87
-22.05
-32.53
-41.10
-47.23
-50.47
-51.45
-51.62
-51.98
-53.20
-54.76
-56.49
-60.08
-65.18
-71.18
-77.87
-84.11
-88.99
-91.90
-91.84
-88.51
-82.28
-73.14
-61.34
-47.60
-33.08
-19.45
-8.66
-2.10
-0.53
-3.72
-9.93
-16.86
-22.35
-25.00
-24.41
-21.18
-16.28
-10.83
-5.66
-0.94
3.42
7.46
10.98
13.80
15.59
15.99
14.77
12.13
8.79
5.60
3.24
2.08
2.65
5.05
8.65
12.31
15.15
17.05
18.58
20.69
24.41
31.32
42.03
55.40
68.68
78.79
83.54
82.21
75.64
66.26
58.75
57.53
64.90
80.19
100.50
121.99
140.77
153.71
151.22
129.14
92.19
51.56
16.89
-8.21
-24.60
-34.08
-39.04
-40.36
-37.38
-30.30
-21.30
-13.95
-11.41
-14.98
-23.84
-35.98
-49.13
-60.79
-69.81
-76.71
-82.91
-89.31
-95.45
-99.97
-101.62
-99.88
-94.64
-86.70
-77.51
-68.61
-60.82
-53.98
-47.40
-40.51
-33.19
-25.58
-18.11
-11.33
-5.51
-0.40
4.77
10.89
18.46
27.47
37.41
47.40
56.31
62.86
65.82
64.19
57.49
45.99
30.82
13.73
-3.36
-18.84
-31.74
-41.64
-48.47
-52.20
-52.77
-50.29
-45.21
-38.41
-31.06
-24.22
-18.52
-14.10
-10.75
-8.20
-6.44
-5.72
-6.47
-9.06
-13.52
-19.46
-25.99
-31.87
-35.75
-36.44
-33.24
-26.12
-15.82
-3.60
9.10
21.02
31.36
39.84
46.53
51.62
55.29
57.67
58.85
58.98
58.24
56.64
54.08
50.25
44.85
37.86
29.66
21.07
13.08
6.60
2.25
0.18
0.19
1.80
4.47
7.75
11.35
15.28
19.72
24.94
31.15
38.32
46.14
54.11
61.66
68.40
74.16
78.91
82.62
85.09
85.96
84.85
81.54
76.05
68.72
60.01
50.40
40.21
29.55
18.40
6.67
-5.69
-18.65
-32.17
-46.12
-60.24
-74.02
-86.66
-97.14
-104.43
-107.82
-107.10
-102.73
-95.68
-87.19
-78.47
-70.52
-63.99
-59.23
-56.26
-54.95
-54.99
-56.01
-57.55
-59.01
-59.68
-58.79
-55.77
-50.53
-43.56
-35.88
-28.71
-23.02
-19.28
-17.33
-16.63
-16.57
-16.73
-16.98
-17.34
-17.82
-18.28
-18.42
-17.88
-16.32
-13.57
-9.62
-4.64
0.98
6.60
11.32
14.19
14.43
11.93
7.36
2.15
-2.06
-3.96
-3.04
0.43
5.74
12.29
19.79
28.26
37.71
47.75
57.62
66.29
72.77
76.44
77.09
75.02
70.78
65.16
59.01
53.12
48.15
44.45
41.97
40.20
38.31
35.26
30.17
22.53
12.50
0.92
-10.90
-21.57
-30.09
-35.99
-39.42
-40.88
-41.01
-40.39
-39.47
-38.63
-38.09
-37.95
-38.10
-38.25
-38.03
-37.16
-35.55
-33.39
-31.09
-29.12
-27.87
-27.54
-28.08
-29.25
-30.68
-31.98
-32.72
-32.53
-31.17
-28.50
-24.65
-19.96
-14.96
-10.21
-6.10
-2.78
-0.08
2.30
4.70
7.24
9.81
12.10
13.66
14.14
13.32
11.32
8.69
6.31
5.34
6.83
11.46
19.29
29.67
41.50
53.60
65.00
75.18
83.96
91.37
97.39
101.94
104.94
106.36
106.33
105.08
102.85
99.75
95.72
90.53
83.87
75.42
64.93
52.25
37.32
20.13
0.72
-20.67
-43.33
-65.91
-86.43
-102.69
-112.94
-116.50
-113.93
-106.85
-97.21
-86.67
-76.20
-66.19
-56.72
-47.92
-40.07
-33.53
-28.53
-25.10
-23.08
-22.20
-22.11
-22.36
-22.38
-21.64
-19.76
-16.74
-13.00
-9.33
-6.70
-6.04
-7.97
-12.68
-19.77
-28.23
-36.67
-43.74
-48.39
-50.18
-49.24
-46.06
-41.27
-35.46
-29.19
-23.05
-17.62
-13.35
-10.28
-8.00
-5.74
-2.74
1.46
6.75
12.57
18.11
22.60
25.52
26.67
26.30
25.08
23.98
24.08
26.15
30.34
35.87
41.07
43.80
42.17
35.19
23.30
8.51
-6.05
-16.96
-21.55
-18.64
-8.96
5.21
20.90
35.31
46.50
53.53
56.16
54.56
49.11
40.49
29.79
18.53
8.24
0.07
-5.55
-8.98
-10.96
-12.26
-13.28
-14.18
-15.00
-15.93
-17.31
-19.40
-22.22
-25.35
-28.13
-29.90
-30.19
-28.88
-26.16
-22.52
-18.71
-15.63
-14.08
-14.60
-17.02
-20.54
-23.99
-26.30
-26.96
-26.31
-25.45
-25.83
-28.69
-34.49
-42.60
-51.50
-59.16
-63.83
-64.54
-61.50
-55.83
-49.19
-43.03
-38.17
-34.71
-32.16
-29.87
-27.32
-24.35
-21.25
-18.58
-17.05
-17.30
-19.70
-24.02
-29.74
-35.92
-41.51
-45.53
-47.30
-46.46
-43.11
-37.73
-31.04
-23.80
-16.58
-9.64
-2.98
3.48
9.65
15.14
19.17
20.69
18.70
12.62
2.65
-10.02
-23.39
-35.16
-43.50
-47.62
-47.97
-45.90
-43.09
-41.05
-40.71
-42.40
-45.78
-49.77
-52.57
-51.95
-46.00
-33.96
-16.75
3.18
22.86
40.00
53.80
64.78
73.95
81.85
88.16
91.97
92.56
89.98
85.10
79.22
73.57
68.72
64.56
60.53
56.41
52.41
49.09
46.94
46.06
46.22
46.76
46.81
45.39
42.17
37.37
31.60
25.47
19.50
14.41
10.69
8.54
7.58
7.82
9.49
12.86
18.03
24.91
34.24
46.13
59.56
71.67
81.15
87.94
93.07
97.47
101.57
107.31
115.37
124.60
130.69
132.64
131.25
128.06
123.36
116.71
111.36
110.59
116.14
124.18
134.10
145.53
157.77
168.34
175.06
182.08
194.07
213.15
233.23
252.00
268.36
282.52
293.96
273.65
207.88
105.04
19.11
-38.12
-68.82
-87.59
-100.50
-111.21
-121.49
-127.34
-126.15
-119.35
-116.27
-120.42
-131.36
-145.24
-158.87
-170.28
-175.31
-172.61
-164.23
-157.80
-155.68
-157.03
-158.81
-159.19
-157.79
-152.08
-141.27
-127.43
-116.33
-109.88
-106.99
-104.76
-101.15
-96.76
-90.46
-81.76
-71.07
-60.54
-51.04
-43.02
-36.89
-32.80
-31.74
-33.41
-36.84
-40.58
-43.78
-45.53
-45.45
-43.79
-41.31
-39.62
-39.26
-39.66
-39.65
-38.33
-35.34
-30.47
-23.30
-13.07
-0.04
15.85
34.75
55.90
76.76
93.68
103.25
103.26
92.69
69.89
34.83
-9.74
-58.44
-104.42
-140.27
-159.47
-158.25
-128.97
-75.82
-15.03
35.86
69.03
86.56
94.19
96.45
95.09
89.68
78.26
60.82
40.40
21.08
5.34
-6.70
-16.48
-25.54
-34.68
-44.40
-53.33
-58.49
-57.26
-49.38
-37.19
-24.89
-15.04
-9.10
-7.46
-8.74
-10.28
-9.58
-5.60
1.34
9.54
17.27
22.82
24.51
21.20
12.87
0.68
-12.93
-24.67
-31.07
-29.55
-19.70
-3.57
14.95
31.37
41.93
44.53
39.30
28.36
15.30
3.93
-2.61
-2.67
3.48
13.81
24.93
32.98
34.79
28.93
16.27
-0.19
-16.11
-27.26
-30.96
-26.91
-17.10
-4.89
6.47
14.81
19.46
20.92
20.22
18.22
15.44
11.95
7.83
3.43
-0.71
-4.04
-6.19
-7.27
-7.88
-8.67
-10.03
-11.71
-12.97
-12.85
-10.82
-7.10
-2.69
1.05
3.18
3.52
2.78
1.93
1.54
1.48
1.26
0.64
-0.07
-0.06
1.30
3.75
6.03
6.36
3.37
-2.89
-10.93
-18.36
-22.93
-23.35
-19.52
-12.26
-2.25
9.03
20.27
29.70
34.97
33.84
25.20
10.41
-7.11
-22.41
-30.76
-29.61
-19.85
-5.67
7.38
14.69
15.05
10.65
5.86
4.71
8.48
15.84
23.97
30.13
32.74
32.40
30.92
29.50
28.11
25.91
21.68
14.26
3.40
-10.46
-25.34
-38.65
-48.77
-55.39
-59.03
-60.92
-62.78
-63.13
-62.72
-62.09
-57.46
-47.14
-32.67
-17.89
-6.68
-0.61
1.90
4.29
10.57
22.50
37.23
48.09
48.92
36.89
13.79
-14.39
-39.79
-55.11
-56.41
-41.43
-16.07
10.85
32.35
45.90
53.04
56.83
59.91
63.04
65.06
63.92
59.62
53.20
46.80
42.47
41.08
42.42
45.53
48.97
51.02
50.95
48.96
45.90
42.56
39.09
34.90
28.73
19.94
8.52
-4.13
-15.70
-23.65
-26.43
-23.96
-17.70
-9.90
-2.66
2.57
5.51
6.75
7.19
7.51
8.00
8.57
9.10
9.43
9.35
8.66
7.14
4.70
1.35
-2.73
-7.29
-12.08
-16.82
-21.24
-25.02
-27.79
-29.19
-29.07
-27.55
-25.08
-22.30
-19.85
-18.19
-17.38
-17.20
-17.16
-16.87
-16.22
-15.41
-14.85
-14.88
-15.64
-16.84
-18.01
-18.80
-19.21
-19.56
-20.21
-21.37
-22.96
-24.85
-26.79
-28.60
-30.14
-31.29
-31.83
-31.43
-29.86
-27.19
-24.07
-21.17
-19.00
-17.85
-17.78
-18.54
-19.60
-20.42
-20.58
-20.50
-20.25
-19.61
-18.66
-18.00
-18.29
-19.77
-22.13
-24.66
-27.86
-31.26
-33.94
-35.69
-37.23
-39.03
-40.37
-39.20
-33.03
-21.73
-4.65
18.07
43.54
65.55
76.58
70.22
42.98
-4.56
-69.08
-139.99
-202.16
-241.89
-251.98
-232.70
-190.59
-136.03
-63.87
13.05
74.37
109.11
120.82
118.54
109.84
99.00
87.53
74.90
57.80
36.05
11.82
-10.36
-26.69
-33.87
-29.47
-9.96
20.70
53.05
78.93
93.52
95.43
85.84
68.74
50.60
35.10
24.10
16.50
10.82
5.64
-0.33
-7.63
-14.95
-19.09
-16.30
-3.86
18.73
50.50
89.68
132.01
171.37
202.18
221.14
227.48
222.28
207.46
185.13
157.12
124.89
89.84
53.64
18.35
-14.47
-44.26
-71.34
-96.41
-119.85
-141.44
-160.27
-175.42
-185.61
-190.36
-190.22
-186.65
-181.15
-174.71
-167.63
-159.63
-150.34
-138.71
-123.76
-105.21
-83.61
-59.75
-34.34
-7.84
20.38
45.85
63.23
70.64
70.10
64.53
55.88
45.13
32.71
19.08
4.80
-7.25
-15.66
-20.09
-21.55
-21.88
-22.76
-25.10
-28.73
-32.46
-32.81
-26.30
-12.31
7.77
31.18
54.94
76.57
94.70
108.94
121.35
133.36
144.12
150.89
150.84
142.76
127.33
106.73
83.91
64.08
51.71
48.86
55.18
68.98
87.82
108.32
126.51
127.75
104.80
63.71
18.89
-18.45
-44.46
-60.07
-68.16
-71.59
-72.47
-70.37
-65.00
-57.85
-51.73
-48.94
-50.05
-54.43
-60.59
-66.85
-70.52
-70.17
-66.54
-61.85
-58.26
-55.88
-54.16
-52.33
-49.96
-46.22
-40.73
-33.86
-26.25
-18.29
-9.80
-1.17
6.76
13.17
18.25
22.88
28.09
34.53
40.52
45.33
47.76
46.59
41.24
32.36
21.41
10.10
-0.12
-8.21
-13.25
-14.88
-13.12
-8.22
-0.74
8.36
17.58
25.14
29.34
29.42
25.58
19.20
12.30
6.82
3.84
3.05
3.34
3.47
3.06
2.30
1.82
1.95
2.55
3.13
2.83
1.32
-1.00
-3.14
-4.46
-4.83
-4.99
-5.79
-7.60
-10.70
-14.65
-18.64
-21.66
-23.29
-23.46
-22.77
-21.81
-20.91
-21.00
-22.95
-27.62
-35.51
-47.30
-60.78
-74.24
-85.78
-88.61
-78.66
-56.87
-28.94
-1.03
22.85
42.08
57.32
69.06
77.32
80.83
78.34
68.96
54.15
34.22
11.13
-13.02
-36.54
-57.51
-74.53
-83.49
-83.73
-76.88
-65.68
-52.72
-35.90
-13.67
14.34
46.48
79.69
110.08
134.88
146.27
142.15
125.32
100.52
72.39
43.91
16.76
-8.40
-30.82
-49.62
-62.82
-69.21
-69.30
-64.76
-57.91
-50.75
-44.86
-40.94
-39.10
-38.35
-37.94
-37.73
-37.84
-38.15
-38.24
-37.11
-34.21
-29.70
-23.90
-17.71
-12.07
-7.78
-5.22
-3.94
-3.38
-3.31
-3.78
-4.59
-5.25
-4.71
-2.39
1.44
5.91
9.50
10.39
7.31
0.04
-12.62
-28.51
-43.71
-56.60
-65.66
-69.38
-66.49
-56.43
-40.27
-21.20
-3.57
7.81
9.49
1.08
-15.13
-35.44
-55.98
-73.84
-87.41
-95.82
-98.97
-97.30
-91.46
-82.57
-72.20
-61.52
-51.31
-41.92
-33.00
-23.50
-11.73
4.49
26.82
55.48
89.49
125.87
160.12
187.70
205.83
214.34
215.58
213.13
210.55
211.78
218.82
230.70
243.56
252.20
251.73
238.89
212.80
175.27
132.41
91.50
58.44
36.46
26.66
28.75
41.21
61.30
73.61
66.58
38.49
-2.25
-45.13
-83.07
-112.52
-132.22
-142.57
-145.26
-140.83
-130.36
-116.12
-101.46
-89.40
-81.52
-77.90
-77.63
-79.25
-80.35
-79.05
-74.97
-69.29
-63.56
-58.66
-54.81
-51.86
-49.57
-47.01
-43.58
-39.50
-35.72
-33.17
-32.20
-32.59
-33.94
-35.40
-35.81
-34.28
-30.57
-25.16
-18.86
-12.40
-6.17
-0.30
5.30
10.77
16.02
20.63
24.00
25.86
26.51
26.85
27.94
30.52
34.46
38.96
42.86
45.25
45.83
44.98
43.46
42.11
41.69
42.92
46.55
53.14
62.73
74.27
85.62
94.06
97.17
93.84
84.70
71.74
57.58
44.41
33.40
24.56
17.25
10.63
4.28
-1.62
-6.47
-9.55
-10.55
-9.75
-8.10
-6.93
-7.49
-10.64
-16.63
-25.04
-34.93
-44.97
-53.57
-59.14
-60.53
-57.44
-50.73
-42.34
-34.84
-30.60
-31.18
-36.99
-47.45
-61.56
-78.35
-97.09
-117.05
-137.19
-155.87
-171.04
-180.64
-183.18
-178.27
-166.73
-150.43
-131.46
-111.69
-92.41
-74.40
-58.05
-43.70
-31.73
-22.50
-16.11
-11.86
-8.30
-3.93
2.25
10.29
19.37
28.11
35.24
39.93
42.60
44.54
46.99
50.39
54.38
58.08
60.42
60.61
58.12
53.43
47.83
42.81
39.73
39.83
43.95
52.15
64.31
76.39
82.78
80.62
71.04
57.10
41.94
27.85
16.16
7.34
1.32
-1.83
-1.89
0.77
4.85
8.67
10.58
9.47
5.22
-1.43
-8.91
-15.33
-19.27
-20.18
-18.24
-14.14
-9.05
-4.57
-1.70
-0.98
-2.03
-3.93
-5.54
-6.03
-5.22
-3.31
-1.00
1.43
4.36
8.54
14.45
21.69
29.11
35.26
39.10
40.19
38.70
35.15
30.03
23.50
15.67
6.90
-1.97
-9.63
-14.62
-15.90
-13.36
-8.03
-1.77
3.37
5.87
5.13
1.26
-4.77
-11.50
-17.51
-21.97
-24.73
-26.01
-26.09
-25.22
-23.70
-22.06
-21.00
-21.11
-22.80
-25.87
-29.16
-30.76
-28.87
-22.70
-12.85
-1.16
10.13
18.49
22.01
20.35
14.83
7.67
0.86
-4.36
-7.54
-8.45
-7.90
-7.35
-7.72
-9.00
-10.44
-10.96
-9.01
-2.59
10.73
30.90
54.52
75.89
88.83
88.77
74.53
49.59
17.22
-11.65
-25.36
-21.12
-6.59
6.78
12.33
9.15
-0.09
-11.30
-20.30
-25.40
-27.37
-26.24
-21.56
-12.91
-0.78
13.59
28.76
43.85
57.47
67.80
73.56
74.26
70.04
61.28
48.71
33.53
17.69
2.86
-9.62
-18.56
-23.15
-23.29
-19.81
-14.24
-8.40
-3.94
-2.34
-4.55
-10.53
-19.33
-29.31
-38.40
-44.68
-47.08
-45.88
-42.55
-39.04
-36.97
-37.18
-39.56
-42.88
-45.36
-45.78
-44.17
-41.61
-39.55
-39.15
-40.85
-44.07
-46.74
-46.02
-39.68
-27.17
-9.46
11.69
34.27
56.33
73.26
79.26
72.13
55.50
35.46
16.81
1.93
-8.74
-16.00
-21.50
-25.79
-28.16
-27.66
-23.90
-17.16
-8.24
1.90
12.42
22.20
30.57
37.70
44.25
50.58
56.48
60.82
62.29
60.09
54.30
46.33
38.43
32.64
29.72
28.96
28.42
26.92
24.82
23.50
24.27
27.47
32.05
35.79
36.18
30.80
19.69
5.47
-8.30
-19.15
-26.47
-31.32
-35.77
-41.99
-52.62
-68.08
-86.14
-103.22
-115.81
-120.76
-115.28
-97.36
-60.06
-7.58
44.47
79.54
90.30
79.07
54.00
25.10
0.95
-14.57
-23.17
-26.83
-26.54
-22.70
-16.02
-7.71
0.70
7.39
11.44
11.16
6.72
0.28
-5.39
-8.61
-9.25
-8.50
-8.03
-9.14
-12.48
-16.75
-19.14
-17.11
-10.04
0.27
10.51
17.39
18.90
14.50
5.28
-6.83
-19.73
-31.60
-40.71
-45.52
-45.31
-40.87
-34.83
-30.71
-31.45
-37.99
-48.95
-61.08
-70.74
-75.10
-72.79
-63.87
-49.40
-31.14
-11.48
6.88
21.54
31.05
35.37
35.80
34.56
33.95
35.48
39.63
45.80
52.72
58.86
62.72
62.98
58.69
49.77
37.49
24.53
14.33
9.84
12.09
19.66
29.33
37.76
43.18
45.83
47.25
48.61
49.47
47.94
42.07
31.66
18.98
8.09
2.90
5.15
13.48
24.05
32.45
35.58
32.95
26.53
19.33
13.78
10.43
7.83
3.40
-5.13
-18.30
-34.49
-50.59
-63.31
-70.57
-72.20
-69.81
-65.74
-61.71
-57.99
-53.43
-46.43
-36.12
-23.00
-8.83
4.23
14.69
22.49
28.84
35.24
42.06
48.18
51.60
50.71
45.16
36.18
26.10
17.52
12.11
9.74
8.75
7.15
3.66
-1.76
-8.31
-14.72
-19.69
-22.31
-22.33
-19.54
-12.93
-0.84
17.94
41.31
62.36
72.71
68.58
52.28
29.65
7.06
-10.78
-21.97
-27.53
-29.84
-30.86
-31.45
-31.82
-32.09
-32.47
-33.16
-34.28
-36.04
-38.20
-39.96
-40.30
-38.75
-35.73
-32.06
-28.83
-26.00
-23.55
-21.46
-19.57
-17.69
-15.80
-14.06
-12.40
-10.44
-7.77
-4.62
-1.69
0.32
1.26
1.77
2.49
3.52
4.21
3.28
-0.42
-6.51
-12.29
-13.72
-6.76
8.48
26.14
38.14
39.80
32.79
23.66
19.23
22.00
29.32
35.68
37.03
33.69
29.60
28.92
32.72
38.88
42.09
38.22
26.52
10.24
-4.77
-12.66
-10.26
1.63
18.93
35.80
47.51
51.70
48.66
40.48
29.66
17.94
5.68
-5.76
-14.66
-19.29
-19.17
-15.71
-11.83
-10.69
-14.14
-21.74
-30.82
-38.10
-40.79
-37.72
-29.32
-17.28
-3.92
8.06
15.97
17.75
12.36
0.65
-14.72
-29.98
-41.56
-47.09
-45.92
-38.85
-27.45
-13.78
-0.06
11.25
17.73
17.50
10.00
-3.47
-19.91
-35.33
-46.16
-50.27
-47.56
-39.73
-29.39
-19.15
-10.86
-5.36
-2.64
-2.21
-3.44
-5.64
-8.09
-10.00
-10.60
-9.30
-5.81
-0.22
7.07
15.47
24.26
32.62
39.52
43.87
44.80
42.01
36.11
28.44
20.72
14.48
10.52
8.77
8.45
8.55
8.25
7.16
5.34
3.13
0.83
-1.42
-3.80
-6.64
-10.36
-15.22
-21.15
-27.66
-33.90
-38.94
-42.03
-42.89
-41.73
-39.24
-36.38
-34.20
-33.80
-36.07
-41.43
-49.48
-58.67
-66.40
-69.75
-66.47
-55.93
-39.51
-20.02
-0.56
16.62
30.72
42.10
51.38
58.64
63.29
64.57
62.38
57.62
51.92
46.92
43.56
41.70
40.35
38.61
36.38
34.59
34.67
37.50
42.90
49.54
55.34
58.12
56.47
50.17
40.12
27.93
15.07
2.81
-7.91
-16.52
-22.88
-27.13
-29.65
-30.87
-30.16
-27.93
-25.45
-23.91
-23.39
-23.39
-23.37
-23.29
-23.60
-24.86
-27.49
-31.05
-34.68
-36.68
-35.96
-32.50
-27.57
-22.92
-20.01
-19.34
-19.97
-20.02
-17.60
-11.89
-2.95
7.73
18.01
25.86
29.81
29.37
24.88
17.39
8.11
-1.71
-11.00
-18.95
-25.02
-28.94
-30.53
-29.71
-26.60
-21.85
-16.55
-11.99
-9.07
-7.93
-7.99
-8.37
-8.52
-8.52
-8.86
-10.06
-12.02
-14.02
-14.93
-13.92
-10.83
-6.30
-1.42
2.70
5.30
6.08
5.09
2.70
-0.70
-4.71
-9.08
-13.60
-18.05
-22.16
-25.46
-27.55
-27.99
-26.74
-24.20
-21.15
-18.58
-17.33
-17.71
-19.35
-21.11
-21.32
-18.50
-12.02
-2.33
9.25
21.17
32.23
41.82
49.62
55.41
58.59
58.24
53.83
46.02
36.73
28.38
22.69
19.83
19.07
18.59
16.22
10.46
1.26
-9.99
-21.32
-31.01
-38.02
-40.63
-38.00
-30.79
-20.89
-10.32
-0.47
8.06
15.26
21.75
30.68
44.30
62.26
81.65
98.96
111.81
119.58
123.17
124.42
128.24
138.06
153.97
172.94
191.50
207.31
219.25
226.61
210.95
163.80
93.62
21.35
-35.42
-70.65
-87.59
-93.57
-96.07
-100.01
-103.04
-101.92
-95.21
-84.74
-73.72
-65.15
-60.31
-58.79
-58.83
-57.63
-53.40
-46.29
-38.24
-31.57
-28.40
-29.61
-35.13
-43.94
-52.79
-58.28
-58.34
-53.06
-44.42
-37.03
-34.61
-39.88
-53.45
-72.27
-90.63
-101.93
-101.41
-85.24
-58.35
-30.38
-11.16
-5.49
-10.64
-18.48
-19.64
-8.35
16.11
49.36
85.01
116.01
135.82
139.47
124.66
93.50
52.62
11.42
-22.04
-42.77
-50.79
-50.22
-44.58
-38.80
-36.16
-37.56
-42.15
-49.23
-57.62
-65.89
-71.97
-73.67
-70.08
-61.79
-51.31
-39.95
-30.88
-25.69
-22.95
-18.86
-10.17
3.55
19.99
34.97
44.17
44.73
37.73
25.05
9.96
-4.11
-14.63
-20.25
-20.78
-16.94
-9.59
0.68
13.43
28.10
43.21
56.82
66.96
72.37
72.44
67.97
60.91
53.85
49.73
51.04
56.64
64.47
72.01
76.00
77.28
73.99
63.83
45.65
17.92
-16.77
-53.50
-86.61
-113.20
-133.27
-144.03
-145.71
-140.80
-130.83
-114.55
-95.37
-72.88
-49.55
-28.43
-11.39
2.46
14.23
26.12
40.70
59.66
83.99
109.18
128.45
134.77
124.44
98.93
64.21
28.24
-2.12
-22.79
-34.38
-39.82
-42.51
-44.58
-46.24
-46.22
-43.41
-38.10
-31.73
-27.47
-26.22
-27.37
-29.09
-29.33
-26.70
-21.17
-13.89
-6.62
-1.41
0.73
-0.03
-2.46
-5.01
-6.46
-6.41
-4.89
-2.09
1.82
7.07
14.01
22.69
32.26
40.85
44.59
41.02
31.36
19.89
10.80
5.56
2.91
0.58
-3.01
-7.51
-10.77
-10.40
-5.37
3.15
12.49
19.93
24.24
25.06
22.98
19.12
14.38
9.24
4.01
-0.64
-3.26
-2.01
4.22
14.98
27.56
37.35
40.47
35.80
25.24
12.37
0.50
-8.85
-16.05
-22.25
-28.16
-33.46
-37.21
-38.67
-37.86
-35.53
-32.83
-30.75
-29.73
-29.44
-29.43
-28.43
-25.85
-21.84
-17.19
-12.90
-9.71
-7.74
-6.54
-5.33
-3.48
-1.04
1.44
3.28
3.98
3.49
2.18
0.59
-0.69
-1.17
-0.82
0.11
1.23
2.12
2.50
2.37
1.98
1.76
2.02
2.65
3.31
3.57
3.17
2.11
0.67
-0.80
-1.90
-2.39
-2.23
-1.66
-1.05
-0.75
-0.94
-1.49
-1.99
-1.77
-0.23
2.79
7.02
11.87
16.76
21.22
25.01
27.84
29.65
30.36
29.53
26.53
20.76
11.92
0.18
-13.78
-28.58
-41.65
-50.15
-52.31
-48.32
-40.28
-31.25
-24.11
-20.53
-20.49
-21.67
-21.35
-18.12
-12.68
-6.77
-1.72
2.25
5.80
9.90
16.35
26.50
40.38
56.83
74.38
91.70
107.02
117.34
112.78
86.86
43.95
0.14
-26.83
-27.84
-5.76
27.17
55.12
65.52
54.86
28.26
-4.74
-35.32
-58.20
-71.79
-76.80
-74.77
-66.98
-53.63
-35.28
-13.85
7.26
24.86
36.16
39.95
36.48
27.44
15.92
5.10
-2.85
-7.70
-10.81
-14.11
-18.87
-25.08
-31.68
-36.86
-39.81
-41.03
-42.29
-45.72
-52.68
-63.15
-75.95
-89.32
-98.80
-101.14
-94.16
-77.17
-50.92
-17.57
19.63
56.71
89.64
115.20
131.22
137.24
134.37
124.69
110.48
93.61
75.30
56.27
37.17
18.46
1.00
-14.01
-25.21
-31.37
-31.70
-26.16
-15.73
-2.27
11.64
23.57
31.85
35.84
36.00
33.38
29.20
24.49
19.93
15.75
12.10
9.09
6.73
4.81
2.81
-0.11
-4.82
-11.78
-20.78
-30.85
-40.65
-48.90
-54.81
-58.36
-60.09
-60.86
-61.47
-62.48
-64.14
-66.43
-69.04
-71.47
-73.06
-73.13
-71.12
-66.80
-60.29
-52.04
-42.71
-32.99
-23.50
-14.72
-7.03
-0.73
3.90
6.68
7.67
7.17
5.75
4.04
2.43
0.94
-0.79
-3.13
-6.11
-9.19
-11.40
-11.83
-10.10
-6.63
-2.42
1.47
4.49
6.96
9.91
14.67
22.16
32.51
44.84
57.46
68.30
75.44
77.65
74.70
67.41
57.42
46.69
36.96
29.28
23.81
19.98
16.81
13.38
9.12
3.96
-1.71
-7.22
-11.78
-14.65
-15.34
-13.81
-10.42
-5.97
-1.46
2.22
4.62
5.79
6.24
6.64
7.49
8.84
10.20
10.75
9.67
6.57
1.80
-3.56
-8.06
-10.51
-10.55
-8.92
-7.15
-6.91
-9.33
-14.59
-21.89
-29.78
-36.56
-40.83
-41.79
-39.43
-34.55
-28.51
-22.75
-18.32
-15.52
-13.87
-12.53
-10.77
-8.46
-5.99
-3.98
-2.86
-2.50
-2.39
-1.94
-0.86
0.70
2.29
3.41
3.83
3.66
3.23
2.93
3.10
3.99
5.77
8.62
12.50
17.16
21.91
25.74
27.54
26.57
22.75
16.84
10.19
4.25
-0.00
-2.34
-3.28
-3.69
-4.30
-5.30
-6.37
-6.84
-6.16
-4.09
-0.84
3.15
7.33
11.23
14.55
17.15
19.05
20.28
20.88
20.79
19.88
17.98
15.09
11.49
7.73
4.56
2.66
2.37
3.54
5.59
7.72
9.19
9.63
9.08
7.98
6.95
6.51
6.87
7.79
8.56
8.18
5.49
-0.39
-9.69
-21.58
-34.20
-44.99
-51.55
-52.49
-47.99
-39.60
-29.63
-20.22
-12.63
-7.09
-3.04
0.31
3.63
7.30
11.50
16.38
21.99
28.24
34.72
40.70
45.21
47.28
46.35
42.48
36.43
29.48
22.99
17.95
14.63
12.54
10.77
8.53
5.45
1.85
-1.50
-3.76
-4.37
-3.30
-1.10
1.40
3.25
3.80
2.83
0.60
-2.30
-5.15
-7.37
-8.60
-8.72
-7.70
-5.56
-2.34
1.84
6.59
11.21
14.85
16.66
16.12
13.17
8.24
2.18
-4.00
-9.31
-12.99
-14.66
-14.36
-12.61
-10.25
-8.31
-7.75
-9.18
-12.58
-17.19
-21.67
-24.48
-24.51
-21.58
-16.80
-12.27
-10.36
-12.69
-19.25
-28.21
-36.43
-40.69
-38.96
-31.14
-19.02
-5.54
6.29
14.30
17.68
17.06
14.32
11.94
12.38
17.33
27.05
40.18
54.07
65.64
72.35
73.04
68.22
59.71
49.90
40.92
34.01
29.29
26.00
22.94
19.11
14.08
7.97
1.15
-6.12
-13.74
-21.55
-28.91
-34.70
-37.81
-37.77
-35.35
-32.31
-30.61
-31.33
-33.97
-36.65
-36.93
-33.00
-24.45
-12.31
1.49
14.88
26.14
34.06
37.68
36.23
29.28
17.22
1.64
-14.75
-28.78
-37.77
-40.34
-36.58
-27.69
-15.22
-0.63
14.78
29.57
41.77
49.06
49.33
41.54
26.41
6.55
-14.07
-31.19
-41.44
-43.26
-37.15
-25.34
-10.91
3.07
14.28
21.48
24.33
23.15
18.59
11.56
3.37
-4.43
-10.31
-13.24
-12.94
-10.06
-6.05
-2.84
-2.12
-4.47
-9.22
-14.70
-19.07
-20.93
-19.90
-16.74
-12.95
-10.07
-8.42
-7.51
-6.60
-5.53
-4.69
-4.66
-5.83
-8.04
-10.55
-11.49
-9.25
-3.50
4.20
11.34
15.80
16.67
14.47
10.96
9.36
12.48
21.64
35.98
53.36
71.68
88.84
102.31
102.88
83.65
45.30
-2.36
-47.17
-80.57
-98.93
-102.88
-95.71
-81.53
-62.85
-41.23
-18.18
4.70
24.62
39.50
48.90
53.86
55.93
56.97
54.48
47.67
35.85
19.15
-0.33
-19.49
-35.60
-47.45
-54.88
-58.50
-59.67
-58.74
-56.18
-52.30
-47.42
-42.00
-36.62
-31.51
-26.72
-21.86
-16.86
-12.11
-8.01
-5.03
-3.60
-4.05
-6.27
-9.80
-13.63
-16.79
-18.61
-18.60
-16.58
-12.78
-7.83
-2.54
2.25
6.04
8.68
10.22
10.98
11.38
11.82
12.55
13.73
15.46
17.81
20.84
24.32
27.79
30.63
32.12
31.73
29.27
24.99
19.54
13.81
8.66
4.71
2.27
1.35
1.66
2.76
4.11
5.10
5.15
3.84
0.97
-3.29
-8.44
-13.73
-18.40
-21.91
-24.09
-25.04
-25.02
-24.20
-22.60
-20.24
-17.21
-13.79
-10.38
-7.33
-4.77
-2.63
-0.67
1.23
3.03
4.53
5.52
5.94
5.85
5.48
5.01
4.61
4.41
4.47
4.83
5.42
6.09
6.68
7.15
7.59
8.22
9.15
10.33
11.48
12.29
12.63
12.65
12.69
13.02
13.63
14.17
14.08
12.89
10.53
7.35
3.92
0.82
-1.62
-3.43
-4.92
-6.48
-8.33
-10.49
-12.76
-14.83
-16.43
-17.42
-17.80
-17.65
-16.99
-15.78
-13.95
-11.46
-8.44
-5.22
-2.21
0.16
1.65
2.33
2.49
2.53
2.79
3.33
3.97
4.45
4.62
4.59
4.70
5.26
6.44
8.08
9.87
11.40
12.30
12.34
11.36
9.32
6.31
2.65
-1.12
-4.42
-6.81
-8.18
-8.79
-9.00
-9.09
-9.11
-8.93
-8.48
-7.95
-7.73
-8.31
-9.90
-12.28
-14.83
-16.71
-17.18
-15.91
-13.06
-9.16
-4.93
-0.92
2.53
5.34
7.57
9.28
10.43
10.95
10.82
10.18
9.31
8.59
8.29
8.51
9.21
10.23
11.42
12.65
13.83
14.84
15.53
15.74
15.38
14.42
12.99
11.25
9.36
7.43
5.48
3.48
1.44
-0.51
-2.22
-3.48
-4.28
-4.77
-5.26
-6.05
-7.30
-8.95
-10.78
-12.62
-14.44
-16.36
-18.56
-21.08
-23.62
-25.65
-26.44
-25.35
-21.99
-16.32
-8.74
0.02
8.93
16.75
22.27
24.54
23.27
19.04
13.22
7.54
3.51
1.95
2.85
5.59
9.39
13.70
18.26
22.85
27.10
30.39
32.06
31.65
29.16
25.01
19.85
14.40
9.41
5.53
3.32
2.96
4.14
6.04
7.54
7.72
6.24
3.43
0.09
-2.92
-5.13
-6.50
-7.31
-7.84
-8.17
-8.17
-7.70
-6.81
-5.77
-5.03
-4.89
-5.36
-6.15
-6.84
-7.17
-7.19
-7.24
-7.66
-8.61
-9.93
-11.28
-12.37
-13.08
-13.58
-14.08
-14.72
-15.49
-16.28
-17.02
-17.69
-18.39
-19.16
-19.98
-20.72
-21.23
-21.52
-21.72
-22.06
-22.73
-23.88
-25.44
-27.23
-28.95
-30.26
-30.88
-30.67
-29.65
-27.95
-25.62
-22.53
-18.41
-13.00
-6.26
1.33
8.87
15.21
19.35
20.86
20.06
17.85
15.37
13.56
12.83
13.07
13.81
14.49
14.72
14.30
13.31
12.01
10.84
10.31
10.93
13.02
16.56
21.17
26.15
30.74
34.30
36.44
37.04
36.19
34.11
31.16
27.78
24.46
21.56
19.14
16.95
14.49
11.24
6.87
1.41
-4.81
-11.29
-17.52
-23.16
-27.95
-31.76
-34.54
-36.31
-37.26
-37.72
-38.08
-38.58
-39.11
-39.17
-38.07
-35.20
-30.44
-24.25
-17.53
-11.21
-5.84
-1.36
2.79
7.32
12.69
18.87
25.40
31.68
37.25
41.98
46.02
49.54
52.55
54.85
56.08
55.96
54.42
51.60
47.85
43.45
38.53
33.01
26.69
19.36
11.03
1.99
-7.11
-15.37
-21.91
-26.07
-27.58
-26.72
-24.11
-20.65
-17.30
-15.03
-14.55
-16.19
-19.71
-24.21
-28.42
-31.02
-31.12
-28.66
-24.26
-19.02
-13.96
-9.75
-6.52
-4.10
-2.12
-0.22
1.93
4.57
7.84
11.56
15.14
17.65
18.02
15.54
10.06
2.29
-6.47
-14.67
-20.89
-24.26
-24.63
-22.50
-18.90
-15.07
-12.09
-10.63
-10.75
-11.98
-13.55
-14.67
-14.87
-14.01
-12.26
-9.88
-7.00
-3.68
0.09
4.14
8.06
11.23
13.06
13.16
11.54
8.60
4.96
1.30
-1.86
-4.17
-5.45
-5.62
-4.68
-2.78
-0.22
2.52
4.88
6.44
6.94
6.48
5.34
3.86
2.29
0.74
-0.78
-2.23
-3.51
-4.54
-5.25
-5.71
-6.02
-6.30
-6.62
-6.95
-7.27
-7.55
-7.78
-7.89
-7.75
-7.13
-5.90
-4.04
-1.72
0.76
3.20
5.50
7.75
10.02
12.28
14.31
15.73
16.25
15.82
14.74
13.56
12.87
12.99
13.84
15.04
16.13
16.76
16.87
16.59
16.09
15.45
14.65
13.65
12.50
11.36
10.39
9.62
8.95
8.17
7.15
5.85
4.36
2.90
1.61
0.52
-0.45
-1.44
-2.61
-4.00
-5.48
-6.79
-7.56
-7.55
-6.62
-4.96
-2.92
-0.95
0.65
1.80
2.68
3.53
4.57
5.80
7.06
8.10
8.68
8.72
8.27
7.47
6.46
5.38
4.40
3.68
3.39
3.59
4.11
4.59
4.59
3.86
2.52
0.99
-0.13
-0.43
0.09
1.06
1.87
2.04
1.33
-0.15
-2.11
-4.18
-6.04
-7.49
-8.50
-9.09
-9.41
-9.66
-10.00
-10.57
-11.37
-12.31
-13.23
-13.94
-14.25
-14.03
-13.20
-11.81
-10.06
-8.21
-6.55
-5.20
-4.13
-3.16
-2.10
-0.83
0.63
2.17
3.64
4.88
5.76
6.16
6.02
5.42
4.56
3.74
3.26
3.23
3.54
3.92
4.10
3.95
3.57
3.11
2.73
2.41
2.04
1.49
0.75
-0.14
-1.09
-2.12
-3.34
-4.85
-6.66
-8.59
-10.36
-11.68
-12.41
-12.68
-12.80
-13.16
-14.05
-15.48
-17.23
-18.85
-19.90
-20.07
-19.30
-17.79
-15.90
-14.05
-12.58
-11.66
-11.28
-11.25
-11.32
-11.31
-11.19
-11.11
-11.32
-11.98
-13.12
-14.59
-16.12
-17.57
-18.92
-20.24
-21.59
-22.92
-24.04
-24.76
-24.98
-24.74
-24.16
-23.30
-22.08
-20.19
-17.25
-12.83
-6.70
1.14
10.36
20.37
30.36
39.49
47.06
52.48
55.38
55.58
53.08
48.25
41.80
34.82
28.47
23.72
21.06
20.40
21.27
22.98
24.92
26.55
27.46
27.31
25.88
23.19
19.64
15.96
12.95
11.21
10.89
11.68
13.06
14.52
15.78
16.77
17.40
17.47
16.66
14.75
11.86
8.53
5.53
3.59
2.99
3.55
4.65
5.63
5.98
5.59
4.65
3.50
2.46
1.77
1.58
1.94
2.85
4.23
5.94
7.69
9.07
9.63
9.02
7.08
3.98
0.20
-3.57
-6.63
-8.47
-8.92
-8.16
-6.60
-4.72
-2.80
-0.88
1.15
3.35
5.48
6.95
7.07
5.33
1.78
-2.89
-7.51
-10.85
-11.99
-10.64
-7.19
-2.58
2.01
5.48
7.10
6.61
4.29
0.71
-3.38
-7.26
-10.38
-12.36
-13.08
-12.66
-11.49
-10.08
-8.94
-8.42
-8.59
-9.34
-10.36
-11.33
-11.99
-12.20
-11.97
-11.43
-10.84
-10.44
-10.44
-10.86
-11.60
-12.49
-13.34
-14.09
-14.71
-15.27
-15.83
-16.47
-17.19
-17.99
-18.72
-19.25
-19.38
-18.97
-18.02
-16.65
-15.04
-13.36
-11.67
-9.89
-7.88
-5.60
-3.18
-0.92
0.79
1.72
1.85
1.43
0.83
0.41
0.30
0.45
0.71
0.95
1.12
1.26
1.40
1.52
1.58
1.50
1.31
1.09
0.92
0.81
0.64
0.25
-0.53
-1.76
-3.34
-5.08
-6.80
-8.41
-9.91
-11.34
-12.70
-13.93
-14.91
-15.65
-16.25
-16.93
-17.92
-19.27
-20.83
-22.21
-22.87
-22.39
-20.54
-17.46
-13.55
-9.28
-5.10
-1.24
2.24
5.41
8.33
11.02
13.47
15.68
17.74
19.73
21.71
23.69
25.59
27.39
29.13
30.88
32.60
34.11
35.06
35.09
34.04
32.02
29.38
26.57
23.89
21.46
19.25
17.20
15.31
13.66
12.31
11.22
10.23
9.14
7.83
6.35
4.85
3.48
2.24
0.97
-0.59
-2.55
-4.78
-6.91
-8.53
-9.41
-9.66
-9.66
-9.77
-10.17
-10.71
-11.07
-10.92
-10.13
-8.82
-7.21
-5.58
-4.05
-2.71
-1.60
-0.82
-0.51
-0.74
-1.50
-2.68
-4.11
-5.58
-6.88
-7.90
-8.56
-8.96
-9.27
-9.73
-10.50
-11.54
-12.68
-13.66
-14.35
-14.72
-14.96
-15.26
-15.75
-16.48
-17.42
-18.56
-19.91
-21.43
-23.04
-24.57
-25.91
-27.04
-28.03
-28.98
-29.93
-30.69
-30.92
-30.25
-28.45
-25.54
-21.82
-17.77
-13.98
-11.10
-9.68
-10.04
-12.03
-15.15
-18.59
-21.49
-23.11
-23.08
-21.40
-18.35
-14.19
-9.05
-3.09
3.42
9.94
15.81
20.20
22.47
22.44
20.61
18.51
17.66
19.07
22.70
27.80
33.24
38.31
42.63
45.75
47.27
46.89
44.69
40.19
34.15
27.74
21.95
17.23
13.70
11.38
10.26
10.26
11.13
12.62
14.26
15.61
15.86
14.93
13.88
14.15
16.34
19.75
23.08
25.08
25.23
23.92
21.97
20.48
19.99
20.15
20.08
19.03
16.78
13.68
10.71
8.29
6.96
6.94
7.75
8.51
8.62
7.86
6.48
5.14
3.94
3.28
3.38
3.71
3.07
0.33
-5.59
-15.54
-28.56
-43.99
-59.85
-73.11
-80.83
-81.09
-73.41
-59.44
-42.76
-24.16
-8.83
-1.19
-0.76
-3.21
-5.73
-6.64
-6.33
-6.11
-7.18
-9.23
-11.48
-12.53
-11.49
-8.44
-3.96
1.03
5.70
9.44
11.54
12.02
11.42
9.93
7.09
2.42
-4.06
-11.68
-19.22
-25.58
-29.77
-31.24
-30.55
-29.14
-28.46
-28.80
-29.66
-30.26
-30.16
-29.12
-27.21
-24.98
-23.31
-22.86
-22.94
-22.45
-20.53
-16.76
-10.72
-1.88
9.97
24.42
40.46
57.91
76.21
94.12
110.11
123.10
132.88
139.77
144.15
138.87
120.41
91.23
58.34
28.07
3.84
-13.03
-22.40
-25.25
-23.69
-19.48
-14.66
-11.33
-10.84
-13.54
-18.57
-24.26
-28.73
-30.32
-27.11
-18.49
-5.95
7.14
16.79
19.68
14.32
2.19
-12.55
-24.02
-27.47
-21.39
-8.00
7.94
21.05
26.98
23.50
10.70
-8.86
-30.98
-50.81
-64.01
-68.04
-63.20
-52.86
-42.39
-37.04
-39.61
-49.26
-61.96
-72.23
-75.47
-69.68
-56.08
-38.41
-21.56
-10.00
-6.38
-10.74
-20.54
-31.55
-39.37
-40.95
-35.50
-24.39
-10.16
4.84
19.29
32.94
45.87
57.85
68.10
75.76
80.60
83.16
84.36
84.72
83.73
80.00
72.12
59.70
44.03
27.84
14.37
6.21
4.28
7.79
14.71
22.74
30.19
36.39
41.59
46.53
51.73
57.07
61.54
63.49
61.02
52.73
38.25
18.78
-3.15
-24.14
-40.95
-51.43
-54.93
-52.34
-45.38
-35.79
-24.85
-13.37
-2.30
6.74
11.32
8.91
-1.92
-20.20
-42.25
-62.45
-75.09
-76.42
-66.12
-47.46
-26.23
-8.77
0.11
-1.54
-12.57
-29.47
-47.85
-63.85
-75.06
-80.69
-81.19
-77.56
-70.85
-61.96
-51.56
-40.17
-28.00
-14.83
-0.15
16.43
34.47
52.40
67.63
77.46
79.94
74.68
62.93
47.13
30.12
14.28
0.95
-9.88
-19.45
-29.55
-41.46
-55.06
-68.43
-78.48
-82.25
-78.38
-67.92
-53.96
-40.24
-29.56
-22.69
-18.44
-14.72
-9.80
-3.37
3.44
8.70
10.70
8.94
4.36
-1.02
-4.86
-5.36
-1.83
5.15
14.08
23.00
30.16
34.58
36.38
36.74
37.32
39.37
43.00
47.04
49.59
49.13
45.48
40.06
35.15
32.63
32.91
34.72
35.81
34.38
30.08
24.35
19.79
18.99
23.44
32.93
45.76
59.41
71.39
79.90
84.04
83.71
79.31
71.41
60.70
47.87
33.66
18.76
3.70
-11.28
-26.12
-40.76
-54.93
-68.05
-79.41
-88.51
-95.17
-99.62
-102.16
-102.86
-101.46
-97.56
-90.98
-82.10
-71.83
-61.41
-52.00
-44.33
-38.65
-34.72
-32.02
-29.75
-26.78
-21.67
-12.73
1.53
21.92
47.90
77.44
107.31
133.94
154.43
167.32
172.73
171.83
166.13
156.88
144.85
130.38
113.53
94.05
71.34
44.80
14.47
-18.29
-50.43
-77.71
-96.13
-103.44
-100.19
-89.62
-76.47
-65.39
-59.43
-59.31
-63.40
-68.42
-70.49
-66.28
-54.18
-34.93
-11.60
11.36
29.63
40.50
43.76
41.53
37.18
33.88
33.33
35.23
37.61
37.68
33.02
22.48
6.69
-12.26
-31.41
-47.94
-59.91
-66.68
-68.94
-68.20
-66.18
-64.30
-63.17
-62.65
-62.07
-60.72
-58.24
-54.70
-50.31
-44.93
-37.77
-27.77
-14.26
2.22
19.73
35.45
46.69
51.95
51.27
46.13
38.74
31.40
25.88
23.14
23.05
24.27
24.43
20.76
11.08
-5.25
-26.88
-50.75
-73.02
-90.34
-100.75
-103.99
-101.23
-94.39
-85.51
-76.32
-67.98
-61.07
-55.51
-50.69
-45.38
-38.09
-27.42
-12.68
5.71
26.17
46.44
64.28
78.26
88.06
94.11
97.11
97.49
95.28
90.43
83.18
74.19
64.29
54.05
43.49
32.25
20.17
7.79
-3.52
-11.95
-16.06
-15.31
-10.33
-2.68
5.52
11.97
14.45
11.17
1.10
-15.57
-37.16
-60.62
-82.15
-98.13
-106.08
-105.26
-96.65
-82.47
-65.38
-47.67
-30.79
-15.19
-0.38
14.61
30.79
48.73
68.10
87.50
104.67
117.04
122.53
120.31
111.21
97.46
81.92
67.16
54.87
45.72
39.65
36.32
35.33
36.12
37.85
39.40
39.69
38.12
34.89
30.90
27.33
24.94
23.67
22.61
20.52
16.56
10.86
4.50
-1.04
-4.63
-6.06
-6.11
-5.99
-6.61
-8.13
-10.06
-11.77
-12.97
-13.87
-14.95
-16.59
-18.91
-21.98
-26.00
-31.25
-37.65
-44.21
-49.03
-49.91
-45.47
-36.14
-24.25
-13.23
-6.06
-4.10
-6.67
-11.62
-16.59
-20.14
-22.22
-23.93
-26.58
-30.79
-36.07
-41.04
-44.12
-44.39
-41.97
-37.96
-33.92
-31.12
-30.06
-30.20
-30.15
-28.09
-22.45
-12.46
1.41
17.49
33.40
46.77
55.97
60.52
60.89
58.08
53.15
46.91
39.98
32.95
26.45
21.03
16.89
13.66
10.50
6.41
0.61
-6.90
-15.23
-22.74
-27.60
-28.53
-25.42
-19.58
-13.34
-9.26
-9.19
-13.63
-21.63
-31.27
-40.34
-47.08
-50.57
-50.83
-48.56
-44.89
-40.98
-37.79
-35.85
-35.20
-35.51
-36.29
-37.16
-38.04
-39.18
-40.93
-43.61
-47.24
-51.36
-55.07
-57.07
-55.98
-50.77
-41.31
-28.58
-14.67
-2.15
6.74
10.90
10.72
7.81
4.34
2.17
2.28
4.70
8.70
13.33
17.76
21.54
24.57
27.07
29.43
32.08
35.30
39.16
43.32
47.11
49.60
49.89
47.44
42.39
35.61
28.44
22.22
17.79
15.31
14.37
14.39
15.05
16.39
18.68
21.96
25.80
29.24
31.15
30.73
27.94
23.49
18.60
14.52
12.08
11.43
12.12
13.35
14.38
15.00
15.69
17.50
21.56
28.44
37.70
47.66
55.75
59.11
55.45
43.81
25.07
1.91
-21.69
-41.34
-53.37
-55.81
-49.01
-35.69
-20.21
-7.30
-0.63
-1.72
-9.60
-21.27
-32.78
-40.46
-42.02
-37.02
-26.74
-13.62
-0.44
10.42
17.62
20.99
21.54
20.97
21.10
23.01
26.59
30.42
32.14
29.32
20.44
5.72
-12.76
-31.41
-46.14
-53.42
-51.31
-40.01
-21.99
-1.67
15.65
25.16
24.19
13.34
-3.56
-20.75
-32.94
-37.49
-35.33
-30.19
-26.44
-26.76
-30.89
-36.19
-39.40
-38.62
-34.41
-29.37
-26.51
-27.55
-31.93
-37.22
-40.43
-39.58
-34.78
-28.04
-22.12
-19.10
-19.34
-21.47
-23.22
-22.60
-18.78
-12.18
-3.96
4.68
12.74
19.26
22.99
22.38
16.08
4.00
-12.12
-28.90
-42.45
-50.05
-51.03
-46.68
-38.96
-29.26
-17.78
-4.18
11.21
26.53
38.76
45.05
44.36
38.20
29.97
23.41
20.93
22.87
27.70
33.12
36.96
37.82
35.24
29.65
22.34
15.25
10.36
8.98
10.94
14.58
17.41
17.38
13.90
8.09
2.11
-2.02
-3.31
-2.19
0.13
2.42
4.21
5.77
7.76
10.42
13.15
14.47
12.68
6.75
-2.88
-14.21
-24.32
-30.69
-32.37
-30.55
-27.83
-26.83
-28.81
-32.95
-36.98
-38.45
-36.02
-30.04
-22.10
-14.04
-6.99
-1.09
4.09
9.04
13.90
18.59
23.12
27.82
33.27
39.86
47.45
55.30
62.33
67.76
71.56
74.51
77.87
82.61
88.85
95.69
101.52
104.76
104.43
100.55
94.02
86.30
78.73
72.02
66.02
59.69
51.54
40.06
24.31
4.19
-19.49
-45.06
-70.41
-93.19
-111.14
-122.32
-125.39
-119.97
-106.90
-88.26
-66.91
-45.78
-26.98
-11.35
1.55
12.95
24.27
36.48
49.71
63.22
75.55
84.86
89.34
87.80
80.04
66.95
50.32
32.18
14.20
-2.72
-18.37
-32.84
-46.12
-57.76
-67.09
-73.43
-76.46
-76.25
-73.17
-67.71
-60.36
-51.66
-42.22
-32.84
-24.31
-17.31
-12.13
-8.67
-6.51
-5.02
-3.66
-2.03
-0.01
2.34
4.79
7.16
9.33
11.41
13.69
16.51
20.20
24.80
29.94
34.76
38.16
39.11
37.05
32.21
25.44
17.89
10.43
3.42
-3.32
-10.26
-17.81
-26.01
-34.54
-42.83
-50.14
-55.83
-59.35
-60.28
-58.46
-54.03
-47.56
-39.86
-31.86
-24.19
-17.10
-10.39
-3.60
3.67
11.60
20.02
28.51
36.53
43.64
49.66
54.52
58.23
60.66
61.53
60.38
56.77
50.41
41.40
30.27
18.02
5.93
-4.83
-13.49
-19.94
-24.61
-28.15
-31.07
-33.58
-35.59
-37.00
-37.87
-38.51
-39.41
-40.98
-43.41
-46.67
-50.48
-54.39
-57.78
-59.77
-59.36
-55.66
-48.29
-37.69
-25.07
-12.11
-0.37
9.10
16.06
20.89
24.21
26.52
28.02
28.67
28.44
27.45
26.02
24.51
23.10
21.66
19.86
17.27
13.67
9.14
4.15
-0.59
-4.33
-6.53
-7.11
-6.46
-5.41
-4.98
-5.99
-8.80
-13.25
-18.68
-24.15
-28.81
-31.99
-33.42
-33.18
-31.63
-29.32
-26.83
-24.69
-23.16
-22.26
-21.73
-21.19
-20.33
-19.12
-17.85
-16.96
-16.86
-17.77
-19.56
-21.89
-24.30
-26.39
-27.94
-28.86
-29.10
-28.72
-27.92
-27.11
-26.77
-27.24
-28.62
-30.71
-33.11
-35.30
-36.79
-37.18
-36.14
-33.34
-28.25
-20.63
-10.79
0.35
11.55
21.68
29.91
35.81
39.33
41.22
42.18
42.69
42.97
43.25
43.84
44.96
46.57
48.53
51.76
57.12
64.99
74.92
85.78
96.02
103.96
108.29
108.40
105.77
102.02
98.10
94.09
90.04
86.78
85.94
89.49
90.95
86.16
74.26
57.13
36.62
13.97
-9.13
-30.40
-47.82
-60.54
-67.85
-70.72
-70.53
-68.57
-65.70
-62.13
-57.90
-53.21
-48.44
-43.06
-36.61
-29.04
-20.57
-12.05
-4.36
1.60
4.95
4.99
2.04
-3.25
-10.08
-17.62
-24.98
-31.17
-35.47
-37.75
-38.46
-37.97
-36.61
-34.60
-31.98
-28.68
-24.38
-18.85
-12.12
-4.57
3.34
10.99
17.47
21.70
22.81
20.67
15.97
10.01
4.29
0.12
-1.92
-2.19
-1.96
-3.00
-6.63
-12.49
-19.08
-25.15
-30.00
-33.55
-35.26
-35.05
-32.98
-29.14
-23.72
-17.32
-10.90
-5.50
-1.96
-0.60
-1.12
-2.57
-3.58
-2.87
0.16
5.17
11.18
16.81
20.81
22.37
21.36
18.41
14.50
10.66
7.62
5.75
5.08
5.35
6.14
7.10
8.09
9.15
10.46
12.08
13.98
15.92
17.59
18.71
19.17
19.06
18.56
17.83
16.92
15.87
14.67
13.37
11.99
10.54
9.00
7.37
5.67
3.93
2.19
0.37
-1.66
-4.02
-6.73
-9.70
-12.71
-15.48
-17.81
-19.59
-20.85
-21.63
-21.89
-21.57
-20.56
-18.84
-16.58
-14.08
-11.74
-9.81
-8.35
-7.24
-6.27
-5.33
-4.49
-3.96
-3.90
-4.26
-4.79
-5.17
-5.22
-5.02
-4.80
-4.77
-4.95
-5.12
-5.03
-4.52
-3.73
-2.97
-2.55
-2.72
-3.49
-4.75
-6.28
-7.84
-9.25
-10.34
-11.05
-11.44
-11.68
-12.01
-12.64
-13.67
-14.99
-16.32
-17.23
-17.35
-16.47
-14.64
-12.12
-9.24
-6.24
-3.26
-0.33
2.59
5.42
8.08
10.42
12.35
13.81
14.82
15.38
15.52
15.35
14.99
14.65
14.46
14.43
14.46
14.41
14.26
14.09
14.06
14.30
14.75
15.21
15.45
15.28
14.64
13.57
12.13
10.39
8.40
6.32
4.31
2.52
1.01
-0.36
-1.80
-3.50
-5.49
-7.54
-9.26
-10.29
-10.39
-9.45
-7.59
-5.03
-2.07
1.03
4.06
6.81
9.08
10.71
11.69
12.10
12.15
12.02
11.84
11.65
11.39
10.99
10.45
10.05
10.07
10.61
11.43
12.14
12.41
12.06
11.26
10.29
9.88
10.42
11.75
13.18
14.01
13.87
12.69
10.82
8.58
7.12
7.16
8.61
10.63
12.29
13.12
12.86
11.88
10.50
10.40
12.86
17.97
24.79
32.13
39.24
45.37
50.60
54.92
60.39
68.81
80.70
95.13
110.52
125.70
139.44
151.73
149.96
126.87
84.82
34.82
-11.60
-48.45
-71.39
-84.88
-92.09
-95.16
-93.62
-87.10
-77.69
-68.09
-60.75
-56.84
-56.81
-59.57
-64.05
-67.89
-69.39
-68.24
-65.35
-62.09
-59.32
-57.74
-56.97
-56.71
-55.95
-54.00
-50.86
-47.00
-42.91
-38.69
-34.52
-30.26
-26.10
-21.88
-17.40
-12.44
-6.82
-0.48
6.55
13.80
20.74
26.59
30.82
33.05
33.12
31.11
27.40
22.69
17.81
13.56
10.40
8.31
6.85
5.43
3.56
1.05
-2.05
-5.56
-9.32
-13.26
-17.31
-21.25
-24.54
-26.37
-25.87
-22.44
-16.06
-7.43
1.99
10.37
15.97
17.68
15.32
9.67
2.22
-5.43
-11.92
-16.37
-18.43
-18.15
-15.80
-11.84
-6.86
-1.53
3.48
7.55
10.27
11.48
11.23
9.68
7.12
3.75
-0.37
-5.25
-10.91
-17.12
-23.36
-28.81
-32.53
-33.75
-32.12
-27.94
-22.18
-16.40
-12.37
-11.53
-14.30
-19.74
-25.65
-29.28
-28.36
-21.90
-10.31
5.02
22.50
40.93
59.51
77.49
93.87
107.43
117.08
122.34
123.53
121.50
117.23
111.43
104.42
96.24
86.75
75.79
63.39
49.90
36.09
23.13
12.23
4.17
-1.03
-4.15
-6.34
-8.63
-11.52
-14.97
-18.61
-22.16
-25.56
-28.90
-32.25
-35.53
-38.45
-40.78
-42.41
-43.46
-44.29
-45.36
-47.07
-49.65
-53.11
-57.25
-61.72
-66.07
-69.83
-72.59
-73.99
-73.75
-71.68
-67.69
-61.85
-54.48
-46.09
-37.37
-28.98
-21.38
-14.76
-8.98
-3.76
1.20
5.97
10.47
14.50
17.90
20.72
23.19
25.62
28.23
31.04
33.79
36.05
37.34
37.26
35.64
32.51
28.00
22.36
15.79
8.55
1.03
-6.32
-13.07
-18.89
-23.69
-27.60
-30.75
-33.20
-34.75
-35.09
-33.92
-31.19
-27.20
-22.50
-17.72
-13.36
-9.66
-6.65
-4.21
-2.21
-0.55
0.83
2.03
3.11
4.12
5.01
5.69
5.99
5.84
5.21
4.27
3.25
2.38
1.82
1.62
1.76
2.18
2.84
3.69
4.70
5.83
7.04
8.25
9.35
10.24
10.86
11.20
11.35
11.44
11.57
11.80
12.05
12.13
11.88
11.21
10.24
9.17
8.25
7.61
7.23
7.03
6.88
6.74
6.68
6.79
7.17
7.78
8.52
9.19
9.61
9.71
9.51
9.11
8.61
8.08
7.53
6.89
6.07
5.00
3.66
2.09
0.35
-1.47
-3.30
-5.11
-6.82
-8.33
-9.50
-10.21
-10.42
-10.17
-9.61
-8.90
-8.18
-7.45
-6.64
-5.63
-4.46
-3.29
-2.34
-1.76
-1.47
-1.20
-0.56
0.65
2.33
4.08
5.41
5.96
5.68
4.88
4.01
3.56
3.77
4.65
5.97
7.33
8.35
8.75
8.54
7.88
7.09
6.45
6.06
5.82
5.53
4.99
4.14
3.11
2.11
1.32
0.84
0.64
0.58
0.46
0.12
-0.50
-1.31
-2.01
-2.24
-1.64
-0.12
2.10
4.54
6.71
8.34
9.56
10.86
12.83
15.91
20.16
25.28
30.68
35.71
39.84
42.84
44.94
46.87
49.71
54.49
61.71
70.80
80.17
87.45
90.27
87.06
77.57
62.97
45.43
27.39
10.92
-2.81
-13.51
-21.57
-27.61
-32.20
-35.68
-38.22
-39.93
-41.05
-41.91
-42.90
-44.28
-46.13
-48.31
-50.57
-52.59
-54.10
-54.98
-55.23
-54.93
-54.24
-53.26
-52.11
-50.97
-50.20
-50.30
-51.64
-54.20
-57.28
-59.53
-59.39
-55.62
-47.90
-37.08
-24.96
-13.80
-5.63
-1.67
-2.01
-5.62
-10.62
-14.76
-16.06
-13.24
-6.10
4.43
16.51
27.88
36.36
40.44
39.62
34.47
26.44
17.37
8.94
2.12
-2.97
-7.03
-10.97
-15.51
-20.66
-25.68
-29.35
-30.42
-28.09
-22.33
-13.89
-4.16
5.03
11.83
14.78
13.28
7.94
0.58
-6.20
-9.87
-8.82
-2.95
6.42
17.13
26.95
34.23
38.14
38.57
35.96
31.08
24.99
18.93
14.12
11.46
11.24
12.96
15.51
17.51
17.86
16.15
12.80
8.92
5.81
4.51
5.37
7.95
11.10
13.46
13.81
11.42
6.32
-0.74
-8.48
-15.48
-20.57
-23.12
-23.18
-21.27
-18.20
-14.73
-11.47
-8.84
-7.10
-6.40
-6.84
-8.34
-10.60
-13.13
-15.35
-16.79
-17.19
-16.56
-15.14
-13.31
-11.46
-9.93
-8.88
-8.32
-8.12
-8.08
-8.02
-7.84
-7.56
-7.26
-6.97
-6.58
-5.89
-4.73
-3.02
-0.90
1.30
3.26
4.79
5.99
7.11
8.44
10.12
12.04
13.90
15.39
16.28
16.56
16.39
16.00
15.55
15.09
14.59
13.99
13.37
12.92
12.88
13.38
14.34
15.50
16.55
17.29
17.71
17.94
18.13
18.23
18.04
17.26
15.76
13.66
11.36
9.33
7.85
6.85
5.94
4.65
2.62
-0.16
-3.38
-6.58
-9.27
-11.18
-12.37
-13.17
-14.07
-15.49
-17.64
-20.34
-23.12
-25.41
-26.78
-27.20
-27.04
-26.93
-27.59
-29.53
-32.94
-37.58
-42.76
-47.34
-49.93
-49.19
-44.33
-35.44
-23.58
-10.42
2.24
13.05
21.40
27.32
31.18
33.29
33.75
32.39
28.97
23.40
16.03
7.79
0.02
-5.73
-8.25
-7.17
-3.08
2.62
8.29
12.71
15.43
16.77
17.43
17.97
18.56
18.96
18.81
17.96
16.59
15.04
13.57
12.23
10.73
8.78
6.17
2.94
-0.66
-4.35
-7.97
-11.52
-15.15
-19.03
-23.19
-27.46
-31.45
-34.61
-36.41
-36.49
-34.79
-31.51
-27.09
-22.07
-17.00
-12.35
-8.41
-5.27
-2.72
-0.37
2.28
5.54
9.49
13.81
18.01
21.65
24.49
26.60
28.24
29.68
31.02
32.12
32.77
32.78
32.28
31.67
31.57
32.55
34.86
38.34
42.46
46.53
49.98
52.48
53.92
54.46
54.41
54.32
54.82
56.58
60.02
64.98
70.65
75.69
78.67
78.50
74.77
67.81
58.45
47.73
36.61
25.82
15.75
6.46
-2.28
-10.87
-19.76
-29.18
-39.02
-48.80
-57.80
-65.34
-71.13
-75.36
-78.61
-81.50
-84.27
-86.54
-87.35
-85.60
-80.47
-71.86
-60.54
-48.01
-36.08
-26.51
-20.53
-18.52
-19.87
-23.05
-26.04
-26.95
-24.63
-18.96
-10.74
-1.18
8.55
17.67
25.72
32.35
37.22
40.06
40.88
40.13
38.65
37.38
37.02
37.76
39.21
40.64
41.34
41.00
39.83
38.58
38.27
39.77
43.52
49.24
56.09
62.89
68.66
73.05
76.73
81.38
89.22
102.25
121.42
145.94
173.28
199.44
219.81
230.26
228.25
213.76
189.50
160.31
131.64
107.74
90.15
77.31
65.52
50.72
30.34
4.28
-25.29
-54.95
-81.35
-102.04
-115.84
-122.78
-123.89
-120.96
-116.06
-111.11
-107.37
-105.12
-103.85
-102.61
-100.49
-96.97
-91.97
-85.75
-78.76
-71.59
-64.88
-59.21
-54.96
-52.16
-50.43
-49.24
-48.01
-46.49
-44.70
-42.91
-41.45
-40.51
-40.04
-39.82
-39.57
-39.13
-38.49
-37.81
-37.34
-37.19
-37.34
-37.58
-37.66
-37.52
-37.35
-37.57
-38.58
-40.47
-42.91
-45.21
-46.68
-47.04
-46.60
-46.13
-46.61
-48.86
-53.32
-60.06
-68.84
-79.03
-89.48
-98.60
-104.72
-106.85
-105.48
-102.71
-101.49
-104.17
-110.99
-119.48
-125.15
-123.19
-110.48
-86.86
-55.24
-20.63
11.49
36.64
52.30
58.12
55.56
47.11
35.51
23.12
11.50
1.39
-7.13
-14.47
-21.40
-28.69
-36.99
-46.26
-55.56
-62.85
-65.57
-61.59
-50.37
-33.81
-16.06
-2.29
3.43
0.12
-9.39
-19.40
-23.77
-18.65
-4.21
15.45
34.23
46.59
49.61
43.59
31.17
15.81
0.40
-13.23
-24.13
-31.76
-35.75
-35.97
-32.97
-28.04
-23.05
-19.85
-19.58
-22.19
-26.54
-30.92
-33.78
-34.40
-33.20
-31.58
-31.45
-34.52
-41.41
-51.07
-60.57
-65.73
-62.50
-48.66
-25.03
4.39
33.75
57.47
72.26
78.10
77.72
74.98
73.05
73.31
75.27
77.39
77.98
75.89
70.61
61.98
50.13
35.61
19.78
4.91
-6.11
-10.75
-7.95
1.18
13.68
25.75
34.20
37.54
36.25
32.19
27.56
23.94
21.83
20.78
19.89
18.32
15.64
11.78
6.92
1.33
-4.69
-10.70
-16.09
-20.06
-21.88
-21.12
-17.95
-13.19
-8.06
-3.82
-1.21
-0.23
-0.16
0.07
1.48
4.49
8.90
13.95
18.74
22.51
24.83
25.43
24.03
20.19
13.58
4.26
-7.03
-18.96
-29.90
-38.60
-44.55
-48.17
-50.45
-52.48
-54.87
-57.50
-59.63
-60.23
-58.50
-54.16
-47.57
-39.45
-30.56
-21.35
-11.89
-2.01
8.30
18.70
28.48
36.80
43.04
47.00
48.97
49.51
49.22
48.42
47.08
44.88
41.47
36.69
30.73
24.13
17.51
11.43
6.21
1.90
-1.61
-4.41
-6.55
-7.98
-8.63
-8.41
-7.39
-5.78
-3.91
-2.07
-0.44
0.92
2.06
3.14
4.34
5.73
7.17
8.38
9.14
9.41
9.39
9.48
10.15
11.92
14.93
18.84
22.91
26.53
29.51
32.24
35.56
40.32
47.38
56.47
65.89
73.04
75.65
72.64
64.46
52.81
40.10
29.69
23.81
22.68
24.70
27.70
29.68
29.45
27.05
24.06
24.75
32.78
49.01
71.10
95.06
116.83
133.33
143.14
146.63
147.25
147.92
149.31
150.41
150.35
148.87
145.53
138.95
114.12
65.41
2.15
-57.37
-99.65
-121.13
-125.30
-118.73
-109.30
-100.31
-90.76
-79.37
-66.60
-54.83
-46.49
-43.05
-44.79
-50.93
-59.63
-67.36
-71.41
-71.42
-69.23
-67.34
-67.75
-71.51
-78.49
-87.19
-94.53
-97.83
-95.91
-89.22
-78.86
-65.92
-51.51
-37.15
-24.87
-16.66
-14.16
-17.64
-25.16
-32.51
-34.67
-28.17
-12.83
8.16
29.74
47.14
57.69
61.37
60.25
56.91
53.10
49.27
44.81
38.97
31.49
22.84
13.94
5.78
-1.03
-6.43
-10.68
-14.12
-16.89
-18.88
-19.95
-20.18
-20.06
-20.39
-21.92
-24.90
-28.84
-32.56
-34.61
-33.78
-29.72
-23.11
-15.46
-8.59
-3.85
-1.70
-1.58
-2.31
-2.76
-2.40
-1.71
-1.93
-4.43
-9.90
-17.82
-26.49
-33.68
-37.50
-37.21
-33.36
-27.37
-20.87
-15.09
-10.61
-7.51
-5.69
-5.14
-5.82
-7.57
-9.89
-11.92
-12.77
-11.77
-8.82
-4.38
0.58
5.05
8.20
9.72
9.80
9.00
7.96
7.10
6.54
6.17
5.80
5.34
4.88
4.54
4.41
4.54
4.89
5.52
6.52
8.02
10.02
12.37
14.75
16.83
18.42
19.52
20.24
20.71
20.90
20.74
20.20
19.34
18.28
17.12
15.81
14.19
12.03
9.24
5.91
2.35
-1.06
-3.95
-6.06
-7.27
-7.58
-7.07
-5.89
-4.17
-2.06
0.37
3.02
5.71
8.28
10.59
12.64
14.57
16.56
18.63
20.62
22.19
22.98
22.81
21.85
20.57
19.51
19.13
19.50
20.41
21.41
22.08
22.17
21.68
20.74
19.53
18.16
16.67
15.03
13.23
11.30
9.30
7.33
5.43
3.57
1.69
-0.32
-2.53
-5.01
-7.81
-10.95
-14.46
-18.29
-22.24
-25.91
-28.81
-30.57
-31.03
-30.43
-29.23
-27.92
-26.78
-25.80
-24.72
-23.24
-21.21
-18.77
-16.22
-13.94
-12.19
-11.05
-10.38
-9.92
-9.42
-8.66
-7.55
-6.08
-4.23
-1.97
0.74
3.90
7.41
11.04
14.57
17.78
20.55
22.70
23.90
23.51
20.80
15.34
7.43
-1.57
-9.43
-13.79
-12.99
-6.80
3.42
15.28
26.17
34.10
38.13
38.32
35.36
30.26
24.01
17.55
11.71
7.13
4.18
2.86
2.82
3.49
4.25
4.57
4.16
2.95
1.13
-1.01
-3.20
-5.34
-7.50
-9.79
-12.26
-14.71
-16.76
-18.01
-18.25
-17.64
-16.60
-15.71
-15.34
-15.59
-16.28
-17.16
-18.08
-19.03
-20.08
-21.24
-22.29
-22.93
-22.98
-22.57
-22.21
-22.58
-24.19
-27.05
-30.61
-33.96
-36.16
-36.66
-35.33
-32.47
-28.49
-23.74
-18.37
-12.42
-5.90
1.21
9.01
17.76
27.74
39.02
51.15
63.03
73.19
80.23
83.42
82.94
79.78
75.24
70.38
65.69
61.11
56.43
51.60
46.92
42.83
39.73
37.65
36.30
35.18
33.83
32.07
29.98
27.78
25.65
23.60
21.43
18.88
15.78
12.17
8.28
4.41
0.83
-2.38
-5.29
-8.02
-10.62
-13.01
-14.96
-16.20
-16.54
-15.94
-14.52
-12.52
-10.30
-8.20
-6.55
-5.54
-5.24
-5.53
-6.11
-6.66
-6.88
-6.64
-6.03
-5.27
-4.61
-4.19
-4.01
-3.94
-3.84
-3.62
-3.28
-2.85
-2.40
-1.93
-1.49
-1.16
-1.08
-1.41
-2.21
-3.37
-4.66
-5.78
-6.49
-6.70
-6.42
-5.75
-4.78
-3.53
-2.04
-0.37
1.43
3.37
5.43
7.55
9.53
10.95
11.33
10.21
7.43
3.25
-1.74
-6.80
-11.28
-14.76
-17.06
-18.08
-17.77
-16.10
-13.16
-9.20
-4.67
-0.06
4.22
7.95
11.00
13.26
14.63
15.03
14.63
13.97
13.76
14.61
16.70
19.66
23.04
26.79
31.48
37.95
46.61
56.76
66.40
72.88
73.88
68.37
56.89
41.25
23.73
6.43
-9.08
-21.79
-31.11
-36.75
-38.80
-37.78
-34.57
-30.30
-26.05
-22.64
-20.46
-19.43
-19.11
-18.87
-18.29
-17.25
-15.95
-14.85
-14.29
-14.37
-14.87
-15.40
-15.56
-15.20
-14.52
-13.95
-14.04
-15.16
-17.37
-20.30
-23.32
-25.81
-27.39
-28.06
-28.13
-27.93
-27.62
-26.99
-25.67
-23.31
-19.74
-14.98
-9.15
-2.33
5.24
13.04
20.12
25.35
27.82
27.33
24.61
21.02
17.94
16.18
15.66
15.60
15.06
13.45
10.85
7.84
5.21
3.57
3.14
3.69
4.73
5.68
6.12
5.90
5.08
3.82
2.26
0.45
-1.60
-3.87
-6.26
-8.58
-10.62
-12.27
-13.52
-14.48
-15.28
-15.93
-16.34
-16.29
-15.56
-14.00
-11.63
-8.68
-5.57
-2.79
-0.77
0.25
0.37
-0.04
-0.54
-0.77
-0.65
-0.33
-0.13
-0.24
-0.62
-1.11
-1.51
-1.74
-1.89
-2.11
-2.47
-2.97
-3.52
-4.11
-4.78
-5.55
-6.46
-7.43
-8.39
-9.29
-10.25
-11.43
-12.98
-14.89
-16.94
-18.78
-20.01
-20.35
-19.66
-17.96
-15.45
-12.41
-9.18
-6.11
-3.45
-1.35
0.17
1.16
1.74
2.05
2.24
2.49
2.98
3.78
4.83
5.85
6.50
6.61
6.28
6.03
6.54
8.35
11.49
15.39
19.08
21.58
22.32
21.24
18.74
15.44
12.03
9.13
7.33
6.94
7.74
8.81
8.63
5.71
-0.62
-9.79
-19.89
-28.47
-33.43
-33.79
-29.95
-23.32
-15.70
-8.62
-3.07
0.65
2.75
3.71
4.05
4.21
4.44
4.85
5.50
6.45
7.75
9.40
11.27
13.09
14.59
15.54
15.97
16.19
16.59
17.58
19.27
21.43
23.52
24.91
25.17
24.25
22.57
20.77
19.49
19.05
19.41
20.14
20.72
20.62
19.55
17.46
14.60
11.40
8.39
6.00
4.42
3.57
3.14
2.69
1.74
-0.07
-2.91
-6.72
-11.11
-15.54
-19.46
-22.59
-25.02
-27.09
-29.19
-31.45
-33.68
-35.48
-36.53
-36.73
-36.27
-35.41
-34.36
-33.20
-31.99
-30.84
-30.02
-29.79
-30.27
-31.32
-32.64
-34.01
-35.41
-37.04
-39.16
-41.86
-45.01
-48.23
-51.16
-53.53
-55.13
-55.74
-55.00
-52.50
-47.91
-41.21
-32.72
-23.09
-12.99
-3.05
6.25
14.51
21.32
26.26
29.03
29.61
28.43
26.35
24.47
23.81
25.03
28.21
32.87
38.13
43.01
46.74
48.95
49.76
49.59
48.96
48.12
47.00
45.20
42.30
38.10
32.78
26.92
21.30
16.62
13.19
10.85
9.00
6.89
3.93
-0.01
-4.60
-9.14
-12.92
-15.49
-16.84
-17.35
-17.59
-18.00
-18.69
-19.38
-19.54
-18.65
-16.48
-13.22
-9.38
-5.54
-2.02
1.16
4.26
7.41
10.50
13.10
14.72
15.15
14.66
13.86
13.39
13.63
14.53
15.76
16.94
17.80
18.28
18.44
18.35
18.01
17.47
16.80
16.16
15.68
15.42
15.24
14.88
14.01
12.43
10.11
7.24
4.13
1.08
-1.72
-4.23
-6.51
-8.66
-10.74
-12.82
-14.99
-17.29
-19.74
-22.20
-24.36
-25.86
-26.42
-26.02
-24.92
-23.59
-22.50
-21.97
-22.00
-22.35
-22.71
-22.84
-22.67
-22.37
-22.21
-22.42
-23.16
-24.37
-25.85
-27.24
-28.25
-28.61
-28.21
-27.06
-25.27
-23.06
-20.74
-18.64
-17.04
-15.97
-15.24
-14.44
-13.25
-11.57
-9.68
-8.06
-7.12
-6.97
-7.32
-7.73
-7.85
-7.76
-7.88
-8.77
-10.81
-13.93
-17.64
-21.16
-23.82
-25.23
-25.40
-24.59
-23.18
-21.42
-19.39
-17.10
-14.52
-11.61
-8.21
-3.80
2.55
11.91
24.94
41.29
59.47
77.29
92.78
105.04
114.41
121.85
128.06
132.70
134.53
132.14
124.90
113.49
99.62
85.35
72.22
60.96
51.60
43.80
37.18
31.35
25.78
19.82
12.88
4.61
-4.87
-14.93
-24.65
-33.05
-39.35
-43.18
-44.58
-44.11
-42.60
-41.03
-40.15
-40.38
-41.56
-43.20
-44.60
-45.14
-44.51
-42.71
-40.01
-36.77
-33.33
-29.89
-26.63
-23.72
-21.32
-19.53
-18.32
-17.49
-16.79
-16.08
-15.32
-14.66
-14.23
-14.04
-13.98
-13.80
-13.28
-12.36
-11.13
-9.84
-8.71
-7.89
-7.38
-7.10
-6.89
-6.62
-6.24
-5.76
-5.29
-5.01
-5.08
-5.57
-6.44
-7.52
-8.59
-9.45
-9.97
-10.14
-10.04
-9.82
-9.60
-9.53
-9.66
-9.98
-10.47
-11.06
-11.68
-12.18
-12.38
-12.07
-11.12
-9.56
-7.63
-5.70
-4.20
-3.42
-3.44
-4.05
-4.89
-5.58
-5.81
-5.48
-4.66
-3.49
-2.15
-0.73
0.70
2.11
3.40
4.38
4.89
4.85
4.33
3.55
2.76
2.14
1.68
1.27
0.80
0.26
-0.24
-0.57
-0.65
-0.50
-0.28
-0.13
-0.13
-0.30
-0.65
-1.29
-2.35
-3.97
-6.18
-8.79
-11.52
-13.98
-15.92
-17.27
-18.13
-18.76
-19.46
-20.49
-21.91
-23.59
-25.15
-26.10
-26.04
-24.75
-22.36
-19.21
-15.70
-12.11
-8.51
-4.83
-0.98
3.06
7.14
11.03
14.50
17.43
19.81
21.61
22.78
23.25
22.97
22.04
20.69
19.29
18.15
17.40
16.86
16.21
15.07
13.35
11.33
9.58
8.64
8.77
9.68
10.71
11.13
10.47
8.70
6.18
3.37
0.63
-1.92
-4.31
-6.62
-8.86
-11.01
-13.02
-14.90
-16.64
-18.25
-19.62
-20.69
-21.42
-21.88
-22.21
-22.61
-23.14
-23.61
-23.53
-22.16
-18.75
-12.95
-4.99
4.13
12.99
20.15
24.69
26.52
26.29
24.98
23.46
22.17
21.13
20.11
18.92
17.49
15.92
14.38
12.98
11.79
10.79
9.95
9.24
8.63
8.14
7.79
7.57
7.39
7.15
6.71
5.99
5.01
3.91
2.85
1.93
1.07
0.04
-1.41
-3.40
-5.83
-8.35
-10.58
-12.27
-13.36
-14.05
-14.59
-15.23
-16.13
-17.29
-18.62
-19.92
-20.92
-21.29
-20.75
-19.14
-16.50
-13.11
-9.46
-6.05
-3.29
-1.33
-0.03
0.90
1.79
2.86
4.12
5.47
6.69
7.61
8.14
8.30
8.22
8.05
7.90
7.81
7.82
7.87
7.98
8.12
8.26
8.34
8.31
8.09
7.64
6.97
6.14
5.18
4.11
2.87
1.42
-0.25
-2.08
-3.91
-5.62
-7.11
-8.37
-9.47
-10.58
-11.86
-13.41
-15.22
-17.07
-18.67
-19.74
-20.14
-19.96
-19.38
-18.61
-17.70
-16.60
-15.16
-13.39
-11.47
-9.78
-8.70
-8.48
-9.10
-10.37
-12.02
-13.78
-15.51
-17.08
-18.40
-19.34
-19.84
-19.91
-19.66
-19.25
-18.71
-17.93
-16.67
-14.76
-12.18
-9.17
-6.12
-3.41
-1.26
0.33
1.44
2.16
2.44
2.18
1.30
-0.04
-1.46
-2.40
-2.30
-0.79
2.14
6.32
11.52
17.70
24.95
33.27
42.10
50.22
55.89
57.58
54.77
48.39
40.65
34.12
30.76
31.16
34.54
39.22
43.49
46.13
46.52
44.54
40.26
33.96
26.22
17.91
10.16
4.07
0.30
-1.06
-0.53
1.05
2.84
4.30
5.30
6.10
7.16
9.01
11.98
16.12
21.07
26.14
30.48
33.39
34.48
33.81
31.69
28.44
24.27
19.28
13.69
7.99
2.89
-1.03
-3.67
-5.57
-7.71
-11.01
-15.81
-21.68
-27.71
-32.88
-36.60
-38.75
-39.59
-39.37
-38.23
-36.19
-33.37
-30.13
-27.02
-24.58
-23.05
-22.31
-21.94
-21.50
-20.79
-19.92
-19.28
-19.31
-20.24
-21.96
-24.04
-25.84
-26.76
-26.45
-24.93
-22.58
-20.04
-17.91
-16.50
-15.68
-14.86
-13.30
-10.37
-5.89
-0.27
5.66
10.94
14.83
16.96
17.35
16.24
13.85
10.41
6.02
0.66
-5.67
-12.77
-20.13
-26.92
-32.08
-34.50
-33.37
-28.67
-21.47
-13.75
-7.61
-4.65
-5.45
-9.58
-15.95
-23.19
-30.21
-36.38
-41.52
-45.25
-47.24
-47.29
-45.51
-42.20
-37.13
-30.14
-21.43
-11.94
-2.17
7.46
16.74
25.74
34.97
46.24
60.56
76.97
91.71
101.65
104.60
100.34
90.55
78.61
69.87
67.92
72.79
80.19
87.19
92.09
94.79
95.85
96.18
98.58
104.61
113.53
121.39
127.16
131.02
133.74
135.64
123.61
92.34
48.04
14.20
-7.06
-18.44
-25.91
-31.51
-36.15
-40.03
-41.09
-38.37
-33.30
-30.45
-31.28
-35.38
-41.35
-47.81
-53.48
-55.88
-54.05
-49.27
-45.51
-44.30
-45.76
-49.31
-54.33
-59.94
-64.30
-66.29
-65.98
-65.01
-63.61
-59.06
-50.26
-38.99
-28.29
-19.68
-13.31
-8.96
-7.00
-7.20
-9.50
-13.53
-18.39
-22.68
-24.81
-24.03
-20.74
-16.40
-12.44
-8.87
-6.22
-4.75
-4.23
-4.27
-4.62
-5.17
-5.81
-6.29
-6.24
-5.73
-4.87
-3.80
-2.66
-1.53
-0.45
0.71
2.17
4.20
6.78
9.71
12.64
15.16
16.88
17.53
17.09
15.80
14.05
12.20
10.49
9.08
8.08
7.49
7.28
7.26
7.23
7.04
6.75
6.39
6.11
5.93
5.88
5.88
5.59
4.83
3.68
2.67
2.11
2.07
2.29
2.39
1.98
0.51
-2.18
-5.63
-8.66
-10.72
-11.77
-12.26
-12.54
-12.83
-13.81
-15.95
-19.15
-22.33
-25.15
-27.54
-29.73
-31.64
-33.23
-35.47
-39.45
-45.66
-52.91
-60.49
-67.69
-74.21
-79.64
-78.84
-69.83
-55.27
-45.17
-40.95
-41.35
-42.86
-43.65
-42.29
-37.55
-29.32
-17.65
-2.21
18.38
43.94
73.29
102.26
125.62
140.02
144.74
140.88
129.53
112.19
90.20
66.24
43.94
27.22
18.36
16.30
17.57
18.45
17.28
14.02
10.31
6.89
4.25
2.41
0.93
-0.43
-1.28
-0.52
2.54
7.92
14.52
21.04
26.36
29.88
31.67
32.41
33.04
33.44
33.27
31.60
27.76
21.84
15.00
9.24
6.77
9.07
16.37
27.51
40.10
51.38
58.85
60.72
56.26
45.89
31.17
14.58
-1.07
-13.67
-22.57
-28.96
-35.17
-43.48
-54.98
-68.94
-83.12
-94.79
-101.83
-103.23
-99.17
-90.73
-79.69
-68.62
-60.85
-59.90
-68.26
-85.91
-109.48
-132.78
-148.85
-152.46
-142.09
-120.24
-92.11
-63.46
-38.54
-19.11
-4.64
6.80
17.45
29.06
42.54
57.83
74.00
89.53
102.72
112.35
118.17
121.10
122.79
124.88
128.12
132.13
135.53
136.62
134.10
127.51
117.19
104.11
89.52
74.62
60.29
46.89
34.09
21.00
6.51
-10.02
-28.18
-46.43
-62.45
-74.10
-80.17
-80.75
-76.89
-69.92
-60.76
-49.70
-36.83
-22.45
-7.42
6.93
19.30
28.90
35.67
40.12
42.85
44.14
43.83
41.50
36.82
29.97
21.69
13.20
5.74
0.19
-3.25
-5.04
-6.04
-7.16
-8.98
-11.63
-14.79
-17.99
-20.81
-23.07
-24.77
-26.14
-27.42
-28.76
-30.25
-31.85
-33.42
-34.78
-35.80
-36.46
-36.88
-37.25
-37.77
-38.56
-39.57
-40.68
-41.74
-42.65
-43.50
-44.47
-45.77
-47.58
-49.91
-52.59
-55.29
-57.62
-59.22
-59.86
-59.39
-57.77
-54.95
-51.01
-46.03
-40.24
-33.95
-27.50
-21.27
-15.63
-10.94
-7.43
-5.20
-4.10
-3.85
-4.09
-4.56
-5.08
-5.56
-5.84
-5.65
-4.60
-2.44
0.79
4.66
8.50
11.68
13.87
15.14
15.80
16.28
16.93
17.92
19.21
20.64
21.89
22.68
22.83
22.39
21.57
20.71
20.06
19.75
19.69
19.65
19.41
18.82
17.80
16.39
14.66
12.73
10.81
9.12
7.88
7.22
7.19
7.76
8.91
10.61
12.90
15.89
19.61
23.91
28.52
32.90
36.51
38.89
39.79
39.20
37.33
34.49
31.04
27.38
23.83
20.62
17.74
15.03
12.24
9.20
5.99
2.89
0.28
-1.64
-2.90
-3.75
-4.47
-5.22
-6.01
-6.71
-7.27
-7.63
-7.74
-7.52
-6.94
-6.06
-5.22
-4.93
-5.66
-7.59
-10.45
-13.57
-16.20
-17.85
-18.54
-18.63
-18.58
-18.61
-18.63
-18.28
-17.20
-15.28
-12.58
-9.41
-6.11
-3.12
-0.90
0.09
-0.47
-2.53
-5.59
-8.80
-11.30
-12.51
-12.38
-11.31
-9.96
-8.92
-8.54
-8.88
-9.77
-10.85
-11.70
-11.88
-11.06
-9.15
-6.38
-3.19
-0.01
2.92
5.70
8.66
12.18
16.40
21.00
25.30
28.45
29.73
28.84
25.98
21.79
17.13
12.81
9.40
7.14
6.01
5.81
6.20
6.85
7.40
7.55
7.01
5.62
3.40
0.65
-2.11
-4.19
-5.01
-4.36
-2.54
-0.25
1.68
2.56
2.07
0.26
-2.60
-6.13
-9.93
-13.60
-16.78
-19.16
-20.66
-21.47
-21.94
-22.42
-23.09
-23.86
-24.45
-24.58
-24.16
-23.31
-22.33
-21.53
-21.07
-20.91
-20.84
-20.66
-20.26
-19.73
-19.27
-19.04
-19.01
-18.91
-18.38
-17.16
-15.16
-12.57
-9.70
-6.90
-4.51
-2.84
-2.09
-2.27
-3.20
-4.43
-5.46
-5.86
-5.48
-4.40
-2.83
-0.96
1.17
3.51
5.98
8.37
10.42
11.99
13.08
13.85
14.47
15.05
15.63
16.21
16.83
17.57
18.44
19.38
20.26
20.89
21.22
21.35
21.48
21.72
21.99
22.07
21.71
20.82
19.48
17.91
16.31
14.82
13.30
11.52
9.30
6.65
3.77
0.98
-1.38
-3.05
-3.98
-4.39
-4.78
-5.71
-7.55
-10.36
-13.83
-17.21
-19.39
-19.49
-17.40
-13.84
-10.04
-7.13
-5.81
-6.03
-7.01
-7.34
-5.80
-2.28
2.15
5.83
7.22
5.40
0.52
-5.99
-11.30
-12.65
-8.98
-1.41
7.68
15.68
20.50
21.07
17.45
11.19
4.60
-0.04
-0.40
6.13
21.36
44.37
69.18
83.56
77.46
52.05
17.97
-12.81
-32.75
-40.55
-40.06
-37.04
-35.64
-36.21
-36.50
-34.58
-30.58
-26.59
-24.49
-25.48
-29.31
-34.21
-37.07
-34.99
-27.32
-16.50
-6.11
0.84
2.75
0.13
-4.60
-7.82
-6.84
-0.74
8.12
16.57
22.19
23.80
21.97
18.77
16.96
19.34
27.01
37.54
47.78
55.23
58.02
55.56
48.66
39.28
30.70
25.93
25.27
28.94
37.39
50.00
64.94
79.45
84.97
75.76
60.61
43.31
22.65
-0.19
-23.38
-44.67
-61.55
-71.65
-72.58
-63.78
-48.78
-31.98
-17.04
-6.75
-2.13
-2.28
-5.07
-7.52
-7.55
-5.97
-4.27
-3.71
-5.31
-9.20
-14.42
-19.20
-21.41
-19.78
-15.21
-9.20
-3.11
1.93
5.34
7.04
7.20
6.06
3.84
0.17
-4.97
-11.05
-17.26
-22.71
-26.80
-29.39
-30.82
-31.80
-33.29
-35.84
-39.35
-43.16
-46.33
-48.13
-48.29
-47.04
-44.79
-42.03
-39.19
-36.53
-34.07
-31.70
-29.29
-26.91
-24.74
-22.68
-20.75
-19.18
-18.23
-17.95
-18.07
-18.17
-17.84
-16.65
-13.56
-8.10
-0.79
7.14
14.48
20.67
25.76
30.21
34.66
40.62
48.59
57.57
65.83
72.12
76.47
79.49
81.85
84.08
87.93
94.19
102.11
109.78
115.34
117.90
117.16
113.22
97.43
67.71
30.09
-5.73
-33.69
-52.87
-64.16
-67.82
-65.05
-56.65
-42.60
-24.50
-5.60
10.69
20.01
21.08
14.92
3.86
-9.12
-20.29
-27.34
-29.90
-29.05
-26.08
-21.46
-15.51
-8.70
-1.61
5.75
12.99
19.24
23.36
24.66
23.30
19.94
15.32
10.27
5.79
2.44
0.14
-1.63
-3.44
-5.35
-7.17
-8.63
-9.52
-9.79
-9.77
-9.99
-10.90
-12.64
-14.83
-17.01
-18.81
-20.17
-21.27
-22.34
-23.53
-24.81
-25.98
-26.79
-27.06
-26.75
-25.96
-24.92
-24.01
-23.66
-24.30
-26.05
-28.64
-31.43
-33.65
-34.68
-34.25
-32.41
-29.45
-25.65
-21.09
-15.76
-9.70
-3.31
2.77
7.85
11.45
13.47
14.24
14.29
14.18
14.28
14.77
15.83
17.87
21.44
26.75
32.95
38.13
40.38
38.62
32.70
23.32
11.79
-0.35
-11.71
-21.26
-28.36
-32.80
-34.69
-34.53
-33.01
-30.72
-28.22
-26.42
-25.15
-24.15
-23.12
-21.95
-20.80
-19.96
-19.66
-20.03
-21.04
-22.41
-23.51
-23.63
-22.49
-20.40
-17.91
-15.61
-13.81
-12.62
-11.95
-10.95
-8.59
-4.31
1.78
9.12
17.00
24.68
31.42
36.67
40.90
45.10
50.00
55.91
62.93
71.12
80.51
90.98
97.09
94.98
84.47
68.80
51.80
35.91
22.26
11.34
3.27
-1.48
-3.49
-3.28
-1.70
0.17
1.58
2.42
2.97
3.60
3.77
3.70
3.69
3.69
3.41
2.56
1.09
-0.96
-3.73
-7.50
-12.14
-17.34
-22.88
-28.71
-34.82
-41.06
-47.07
-52.16
-55.41
-55.59
-51.75
-43.75
-32.43
-19.39
-6.38
5.15
14.37
21.02
25.29
27.44
27.56
25.58
21.55
15.93
9.64
3.97
0.14
-1.04
0.45
3.88
8.03
11.63
13.74
13.87
11.83
7.57
1.16
-7.05
-16.21
-24.92
-31.58
-35.05
-35.06
-32.43
-28.55
-24.78
-21.69
-18.97
-15.68
-10.89
-4.25
3.93
12.73
21.41
29.78
38.28
47.70
58.85
72.24
87.79
104.80
121.87
137.32
149.54
157.10
159.05
155.08
145.70
132.15
116.18
99.33
83.08
68.61
56.55
46.81
38.84
31.99
25.66
19.43
12.23
3.75
-5.38
-14.26
-22.45
-30.02
-37.34
-44.87
-52.95
-63.49
-76.92
-91.99
-107.08
-121.53
-135.66
-150.01
-164.98
-180.37
-198.16
-217.97
-236.81
-251.41
-260.38
-264.40
-264.98
-263.91
-262.16
-263.38
-267.51
-270.36
-266.72
-253.53
-230.63
-199.82
-164.46
-105.20
-23.35
62.20
131.13
175.70
198.65
204.87
201.13
191.32
178.45
161.39
140.86
121.58
107.68
100.34
98.18
99.13
101.21
103.59
103.38
100.12
95.84
92.74
91.36
90.76
89.77
87.41
83.57
76.86
67.38
56.75
46.64
37.67
29.64
22.24
15.28
8.94
2.63
-3.78
-9.87
-15.26
-19.90
-23.82
-26.84
-28.52
-28.32
-26.23
-22.45
-17.28
-11.23
-4.87
1.28
6.96
12.04
16.45
20.16
23.22
25.89
28.53
31.58
35.19
39.04
42.37
44.21
43.72
40.56
35.03
27.89
20.04
12.18
4.63
-2.62
-9.74
-16.86
-23.91
-30.74
-37.14
-43.02
-48.43
-53.48
-58.18
-62.39
-65.75
-67.91
-68.66
-68.10
-66.58
-64.56
-62.40
-60.10
-57.37
-53.82
-49.15
-43.41
-36.99
-30.55
-24.82
-20.31
-17.10
-14.93
-13.29
-11.72
-9.91
-7.72
-5.20
-2.48
0.21
2.56
3.85
2.89
-1.36
-8.87
-17.87
-25.24
-27.61
-22.87
-10.92
5.91
23.65
38.38
47.85
51.96
52.02
49.64
46.06
42.56
40.09
38.97
38.95
39.54
40.22
40.47
40.06
39.23
39.38
41.95
47.40
55.04
63.69
72.08
78.70
81.81
75.57
57.28
30.57
3.76
-16.01
-25.78
-26.50
-21.38
-14.23
-8.01
-3.40
0.20
3.54
6.25
7.56
6.99
4.43
0.28
-4.68
-9.03
-11.71
-12.84
-13.72
-16.02
-20.63
-27.93
-37.57
-48.68
-59.71
-69.26
-76.70
-82.27
-86.46
-89.62
-91.78
-92.60
-91.56
-88.06
-82.04
-74.29
-66.21
-59.24
-54.33
-51.73
-50.97
-51.16
-51.20
-50.22
-47.69
-43.54
-37.93
-31.30
-24.28
-17.60
-11.90
-7.51
-4.38
-2.19
-0.52
0.87
2.07
2.97
3.51
3.64
3.47
3.10
2.68
2.34
2.21
2.48
3.31
4.85
7.13
10.16
13.95
18.50
23.83
29.82
36.15
42.33
47.73
51.83
54.36
55.42
55.53
55.40
55.71
56.81
58.61
60.68
62.55
64.03
65.28
66.72
68.68
71.10
73.50
75.26
75.94
75.58
74.64
73.74
73.30
73.32
73.52
73.57
73.34
72.98
72.67
72.42
71.96
70.79
68.51
65.05
60.82
56.47
52.59
49.41
46.70
43.95
40.69
36.72
32.24
27.60
23.03
18.54
13.87
8.73
2.93
-3.41
-9.98
-16.40
-22.36
-27.69
-32.31
-36.19
-39.31
-41.63
-43.14
-43.90
-44.05
-43.81
-43.41
-43.10
-43.00
-43.09
-43.16
-42.84
-41.83
-39.95
-37.29
-34.19
-31.09
-28.35
-26.18
-24.58
-23.48
-22.78
-22.37
-22.17
-22.04
-21.83
-21.42
-20.75
-19.91
-19.02
-18.23
-17.63
-17.28
-17.18
-17.32
-17.63
-18.00
-18.27
-18.25
-17.73
-16.55
-14.64
-12.09
-9.16
-6.21
-3.61
-1.60
-0.19
0.80
1.70
2.77
4.11
5.59
6.95
7.96
8.47
8.53
8.30
8.02
7.93
8.13
8.64
9.41
10.38
11.44
12.49
13.34
13.75
13.57
12.76
11.52
10.11
8.73
7.38
5.91
4.19
2.26
0.36
-1.24
-2.40
-3.26
-4.22
-5.72
-7.98
-10.93
-14.24
-17.51
-20.49
-23.08
-25.25
-26.93
-27.98
-28.19
-27.47
-25.82
-23.36
-20.23
-16.52
-12.23
-7.39
-2.14
3.21
8.17
12.25
15.17
16.96
18.04
19.06
20.62
22.96
25.81
28.35
29.62
28.94
26.34
22.56
18.84
16.44
16.24
18.52
23.03
29.14
35.95
42.40
47.29
49.50
48.20
43.29
35.51
26.28
17.33
10.08
5.23
2.58
1.29
0.11
-2.23
-6.76
-14.13
-24.49
-37.41
-51.68
-65.43
-76.41
-82.59
-82.74
-76.82
-66.04
-52.44
-38.27
-25.49
-15.39
-8.48
-4.55
-2.79
-1.95
-0.77
1.67
5.60
10.45
15.05
17.95
17.89
14.12
6.52
-4.50
-18.19
-33.76
-50.60
-68.24
-86.05
-102.92
-116.98
-125.85
-127.32
-120.21
-105.09
-84.40
-61.88
-41.37
-25.63
-15.43
-9.52
-5.16
0.77
10.59
25.05
43.11
62.32
79.54
91.84
97.23
94.99
85.76
71.23
53.71
35.55
18.61
3.97
-8.06
-17.55
-24.46
-28.24
-28.15
-23.80
-15.94
-6.63
1.34
5.75
6.00
3.45
0.73
0.23
2.98
8.25
14.24
19.39
23.22
26.39
29.96
34.38
39.09
42.86
44.70
44.52
43.24
42.22
42.50
44.22
46.54
48.20
48.10
45.74
41.34
35.62
29.41
23.35
17.78
12.75
8.22
4.22
0.93
-1.33
-2.29
-1.87
-0.28
1.96
4.19
5.83
6.52
6.25
5.16
3.46
1.30
-1.22
-4.07
-7.09
-10.09
-12.84
-15.12
-16.82
-17.96
-18.66
-19.16
-19.72
-20.60
-21.90
-23.45
-24.80
-25.30
-24.47
-22.13
-18.49
-14.05
-9.28
-4.44
0.40
5.26
10.06
14.57
18.52
21.78
24.51
27.04
29.72
32.71
35.90
39.05
41.95
44.53
46.91
49.30
51.82
54.52
57.22
59.57
61.16
61.64
60.89
59.10
56.68
54.12
51.73
49.58
47.46
45.00
41.91
38.16
34.01
29.96
26.54
24.08
22.64
22.06
22.00
22.07
21.96
21.44
20.43
18.92
17.07
15.09
13.20
11.58
10.21
8.80
6.92
4.04
-0.26
-6.08
-13.19
-21.07
-29.15
-37.02
-44.63
-52.29
-60.48
-69.63
-79.78
-90.54
-101.11
-110.55
-117.96
-122.75
-124.72
-124.14
-121.68
-118.25
-114.74
-111.72
-109.33
-107.25
-104.98
-102.04
-98.19
-93.51
-88.24
-82.69
-77.01
-71.21
-65.28
-59.18
-52.92
-46.56
-40.17
-33.87
-27.88
-22.53
-18.19
-15.18
-13.62
-13.28
-13.62
-13.93
-13.64
-12.47
-10.53
-8.25
-6.19
-4.85
-4.33
-4.39
-4.55
-4.38
-3.66
-2.33
-0.57
1.25
2.69
3.68
4.44
5.42
6.93
9.26
12.72
17.62
24.11
31.91
40.70
49.99
59.12
67.11
73.20
77.16
79.17
79.41
77.79
74.48
70.00
65.45
62.02
61.03
63.80
70.97
81.92
91.90
95.05
87.72
71.27
49.79
27.21
6.27
-11.56
-25.88
-36.81
-44.16
-48.56
-49.35
-46.72
-41.93
-36.68
-32.64
-31.15
-32.98
-37.76
-44.33
-51.20
-56.56
-59.47
-59.49
-56.83
-52.21
-46.74
-41.25
-36.06
-30.91
-25.56
-20.02
-14.32
-8.66
-3.30
1.57
6.04
10.39
15.01
19.88
24.58
28.42
30.73
31.04
29.33
26.07
22.01
17.91
14.14
10.66
7.30
4.01
0.94
-1.60
-3.36
-4.37
-4.88
-5.25
-5.70
-6.13
-6.25
-5.70
-4.32
-2.22
0.34
3.02
5.66
8.23
10.80
13.40
15.91
18.12
19.82
21.00
21.86
22.75
23.94
25.49
27.21
28.79
29.95
30.50
30.35
29.34
27.35
24.46
21.24
18.85
18.77
22.33
30.05
41.29
54.29
66.63
75.91
80.32
78.96
71.93
60.07
44.70
27.37
9.73
-6.54
-19.77
-28.56
-32.02
-30.33
-25.05
-18.99
-15.34
-16.39
-22.47
-31.71
-40.88
-46.81
-47.77
-43.93
-36.87
-28.61
-20.80
-14.46
-10.33
-9.19
-11.85
-18.74
-29.22
-41.36
-52.39
-59.69
-61.70
-58.58
-51.95
-44.29
-37.96
-34.51
-34.25
-36.35
-39.17
-40.82
-39.66
-34.68
-25.72
-13.45
0.70
14.91
27.43
37.15
43.87
48.32
51.67
54.93
58.33
61.24
62.54
61.24
57.16
51.07
44.42
38.74
35.01
33.32
32.95
32.70
31.37
28.19
23.09
16.58
9.60
3.04
-2.49
-6.89
-10.49
-13.89
-17.76
-22.80
-29.76
-39.36
-51.84
-66.42
-80.98
-92.24
-96.77
-92.20
-78.29
-57.24
-33.09
-10.44
6.88
16.76
19.07
15.29
7.76
-1.06
-9.12
-15.02
-17.96
-17.61
-13.99
-7.40
1.46
11.45
21.09
28.88
33.71
35.27
34.10
31.44
28.63
26.78
26.46
27.84
30.88
35.47
41.42
48.22
54.93
60.29
63.15
62.98
60.13
55.70
51.03
47.00
43.74
40.62
36.70
31.20
23.84
14.87
4.94
-5.17
-14.70
-23.04
-29.76
-34.62
-37.59
-38.84
-38.72
-37.64
-36.01
-34.11
-32.08
-29.96
-27.75
-25.57
-23.69
-22.43
-21.99
-22.34
-23.07
-23.54
-22.96
-20.77
-16.84
-11.58
-5.82
-0.65
3.07
5.05
5.69
6.00
7.19
10.12
14.92
20.83
26.43
30.14
30.80
28.10
22.75
16.29
10.67
7.63
8.23
12.52
19.47
27.05
32.68
34.01
29.73
20.19
7.48
-5.15
-14.53
-18.82
-18.30
-15.13
-12.20
-11.60
-13.60
-16.55
-17.93
-15.68
-9.23
0.26
10.50
19.11
24.35
25.51
22.76
16.68
7.99
-2.47
-13.64
-24.23
-33.04
-39.47
-43.94
-47.69
-52.11
-57.67
-63.20
-65.91
-62.53
-50.82
-31.02
-6.23
18.41
37.50
47.39
47.44
40.12
29.86
21.25
17.49
19.47
25.92
34.14
41.18
44.92
44.60
40.89
35.45
30.16
26.50
25.11
25.67
27.18
28.51
28.85
28.03
26.40
24.58
23.11
22.30
22.19
22.56
22.92
22.34
19.50
12.94
1.72
-13.97
-32.27
-49.96
-63.22
-68.90
-65.62
-54.09
-36.91
-17.71
-0.15
12.86
19.70
20.23
15.78
8.57
1.06
-4.90
-8.49
-9.95
-9.97
-9.07
-7.14
-3.66
1.82
9.23
17.74
26.06
32.72
36.52
36.58
32.43
24.18
12.61
-0.77
-14.05
-25.41
-33.77
-38.95
-41.56
-42.62
-43.11
-43.93
-45.84
-49.43
-54.95
-62.04
-69.59
-75.97
-79.54
-79.32
-75.35
-68.75
-61.21
-54.37
-49.29
-46.16
-44.32
-42.54
-39.49
-34.20
-26.43
-16.83
-6.81
1.90
7.85
10.38
10.07
8.63
8.46
11.74
19.64
31.70
45.88
59.26
69.07
73.87
74.11
71.89
70.09
71.08
75.66
82.71
89.53
92.94
90.62
82.15
69.19
54.77
41.91
32.22
25.34
19.38
12.31
3.41
-6.06
-13.49
-16.33
-13.54
-6.24
2.94
11.14
16.58
18.89
18.74
17.13
14.81
12.10
9.09
5.84
2.46
-1.00
-4.54
-8.14
-11.56
-14.35
-16.09
-16.59
-16.01
-14.73
-13.00
-10.84
-8.09
-4.78
-1.40
1.09
1.61
-0.47
-5.01
-11.11
-17.46
-22.97
-27.20
-30.49
-33.66
-37.47
-42.05
-46.71
-50.21
-51.24
-49.17
-44.42
-38.40
-33.05
-30.24
-31.09
-35.63
-42.56
-49.41
-53.07
-50.61
-40.29
-22.37
0.70
24.82
45.50
59.23
64.42
61.63
52.85
40.47
26.37
11.52
-3.82
-19.60
-35.31
-49.69
-60.72
-66.15
-64.17
-54.34
-37.89
-17.70
2.51
19.30
30.56
36.07
37.36
36.83
36.72
38.27
41.36
44.78
46.84
46.03
41.47
33.11
21.56
7.83
-6.91
-21.40
-34.32
-44.31
-50.09
-50.85
-46.59
-38.39
-28.24
-18.52
-11.29
-7.60
-7.28
-9.18
-11.74
-13.76
-14.84
-15.33
-15.84
-16.62
-17.23
-16.66
-13.98
-8.99
-2.55
3.74
8.20
9.86
8.72
5.59
1.41
-3.27
-8.48
-14.48
-21.32
-28.43
-34.61
-38.48
-39.02
-36.08
-30.64
-24.55
-20.00
-18.50
-20.04
-22.70
-23.03
-17.29
-3.08
19.48
47.45
75.86
99.21
113.27
116.26
109.23
95.41
79.07
64.15
53.30
47.47
45.89
46.50
46.56
43.45
35.53
22.74
6.76
-9.35
-22.11
-28.85
-28.77
-23.27
-15.37
-8.35
-4.31
-3.43
-4.23
-4.64
-3.16
0.49
5.51
10.84
15.85
20.67
25.83
31.51
36.92
40.26
39.48
33.33
22.09
7.68
-7.03
-19.19
-26.81
-29.16
-26.67
-20.69
-13.10
-5.85
-0.44
2.52
3.39
3.22
2.98
3.01
2.82
1.63
-0.91
-4.20
-6.87
-7.61
-6.03
-3.01
-0.17
1.06
0.28
-1.73
-3.50
-3.72
-1.93
1.36
4.81
6.80
5.95
1.66
-5.67
-14.71
-23.61
-30.65
-34.83
-36.21
-35.70
-34.68
-34.43
-35.78
-38.97
-43.54
-48.38
-51.70
-51.41
-45.67
-33.66
-16.21
4.10
23.60
38.66
46.83
47.56
42.10
32.70
21.58
10.08
-1.76
-14.79
-29.98
-47.36
-65.27
-80.49
-89.11
-87.99
-76.10
-55.24
-29.70
-5.01
13.50
22.04
19.21
6.22
-13.28
-33.89
-49.64
-55.43
-48.51
-29.55
-2.75
25.12
46.83
56.79
52.83
36.58
12.66
-13.02
-34.96
-49.17
-53.57
-47.78
-32.80
-10.79
15.28
42.02
66.21
85.46
98.47
104.80
104.57
98.24
86.51
70.64
52.62
35.00
20.27
10.13
5.18
5.12
9.59
18.10
29.87
43.53
57.03
67.92
73.94
73.74
67.57
57.76
47.56
40.15
37.41
39.56
45.26
52.08
57.42
59.49
58.36
55.03
50.87
46.71
42.81
39.12
35.36
31.07
22.51
8.59
-8.91
-26.34
-40.80
-50.90
-55.93
-55.60
-50.29
-41.14
-29.45
-18.01
-7.90
-0.30
3.88
4.73
3.03
-0.25
-4.25
-8.14
-11.83
-16.14
-20.33
-24.80
-29.86
-35.57
-41.68
-47.67
-52.61
-55.81
-57.05
-56.92
-56.79
-57.92
-61.20
-66.90
-74.56
-82.93
-90.54
-96.04
-98.88
-99.51
-98.88
-98.21
-98.58
-100.61
-104.18
-108.61
-112.82
-115.64
-116.18
-113.74
-108.02
-99.22
-88.02
-75.44
-62.57
-50.26
-39.03
-29.20
-20.84
-13.96
-8.56
-4.51
-1.54
0.70
2.60
4.34
5.86
6.88
7.04
6.15
4.37
2.17
0.25
-0.77
-0.62
0.47
1.96
3.23
4.05
4.81
6.44
10.05
16.48
25.94
37.86
51.20
64.66
77.15
87.84
96.26
102.19
105.58
106.57
105.45
102.64
98.55
93.46
87.47
80.60
72.93
64.80
56.82
49.70
44.03
40.07
37.86
37.38
38.70
41.91
46.88
52.96
58.96
63.43
65.21
63.84
59.69
53.66
46.79
39.90
33.43
27.64
22.69
18.71
15.76
13.73
12.38
11.40
10.60
9.86
9.20
8.60
7.97
7.17
6.12
4.91
3.76
2.88
2.36
2.07
1.73
1.00
-0.32
-2.24
-4.52
-6.86
-8.97
-10.69
-11.99
-12.88
-13.41
-13.57
-13.38
-12.86
-12.11
-11.22
-10.28
-9.33
-8.35
-7.33
-6.26
-5.20
-4.24
-3.45
-2.85
-2.44
-2.19
-2.05
-1.99
-2.00
-2.21
-2.82
-4.06
-5.97
-8.33
-10.66
-12.35
-12.96
-12.40
-10.93
-9.02
-7.11
-5.53
-4.45
-3.92
-3.97
-4.50
-5.26
-5.86
-5.85
-4.94
-3.17
-0.91
1.29
2.91
3.62
3.36
2.32
0.81
-0.82
-2.30
-3.56
-4.64
-5.72
-6.92
-8.22
-9.39
-10.09
-9.96
-8.83
-6.74
-3.97
-0.93
1.94
4.28
5.82
6.46
6.21
5.20
3.63
1.66
-0.57
-2.90
-5.17
-7.15
-8.62
-9.45
-9.71
-9.61
-9.42
-9.32
-9.29
-9.20
-8.88
-8.32
-7.68
-7.20
-7.05
-7.28
-7.72
-8.12
-8.35
-8.47
-8.67
-9.15
-9.91
-10.68
-11.03
-10.62
-9.40
-7.63
-5.74
-4.17
-3.08
-2.44
-2.07
-1.86
-1.85
-2.15
-2.84
-3.82
-4.84
-5.70
-6.28
-6.73
-7.34
-8.37
-9.95
-12.02
-14.35
-16.69
-18.82
-20.56
-21.72
-22.16
-21.76
-20.50
-18.57
-16.25
-13.86
-11.62
-9.57
-7.62
-5.71
-3.81
-2.05
-0.58
0.48
1.05
1.16
0.83
0.07
-1.05
-2.45
-3.93
-5.28
-6.22
-6.56
-6.20
-5.10
-3.37
-1.23
1.04
3.16
4.89
6.12
6.84
7.08
6.91
6.39
5.59
4.61
3.57
2.58
1.73
1.04
0.56
0.27
0.14
0.08
-0.13
-0.73
-1.93
-3.74
-5.94
-8.07
-9.60
-10.10
-9.38
-7.51
-4.77
-1.57
1.71
4.66
6.98
8.38
8.79
8.30
7.23
6.05
5.13
4.66
4.59
4.69
4.75
4.70
4.61
4.58
4.68
4.86
5.08
5.33
5.63
5.97
6.29
6.41
6.18
5.56
4.61
3.48
2.23
0.88
-0.53
-1.87
-2.92
-3.45
-3.41
-3.08
-2.91
-3.34
-4.55
-6.43
-8.63
-10.82
-12.87
-14.76
-16.56
-18.12
-19.16
-19.36
-18.55
-16.98
-15.09
-13.35
-11.93
-10.56
-8.65
-5.71
-1.71
2.77
6.65
8.82
8.47
5.43
0.14
-6.51
-13.53
-20.00
-25.17
-28.59
-30.01
-29.36
-26.73
-22.23
-16.04
-8.46
0.05
8.78
16.91
23.64
28.34
30.58
30.15
26.90
20.77
11.90
0.84
-11.28
-22.76
-31.65
-36.23
-35.59
-29.92
-20.54
-9.54
0.78
8.50
12.49
12.59
9.44
4.24
-1.59
-6.62
-9.66
-9.79
-6.48
0.35
10.23
22.26
35.21
47.79
58.82
67.43
73.12
75.88
76.14
74.67
72.46
70.38
68.96
68.17
67.47
66.13
63.55
59.55
54.45
48.81
43.20
37.85
32.61
26.93
20.05
11.28
0.41
-11.93
-24.19
-34.14
-39.55
-39.01
-32.61
-22.04
-10.23
-0.47
4.64
3.98
-1.80
-10.45
-18.97
-24.64
-26.00
-23.52
-19.55
-17.52
-20.50
-29.69
-43.71
-58.96
-71.00
-76.42
-74.17
-65.89
-54.90
-44.53
-36.62
-30.89
-25.50
-18.16
-7.28
7.57
25.87
46.59
68.40
89.66
108.18
121.34
126.75
123.15
111.26
93.93
75.37
59.64
49.18
43.78
40.66
35.47
24.06
4.16
-23.55
-55.63
-87.07
-112.99
-130.17
-137.79
-137.26
-131.20
-122.50
-113.37
-105.26
-98.86
-94.24
-90.79
-87.38
-82.61
-75.28
-64.93
-52.19
-38.70
-26.80
-18.46
-14.33
-13.58
-14.55
-15.44
-15.16
-13.57
-11.43
-10.51
-12.15
-16.49
-22.38
-28.20
-32.58
-34.77
-34.85
-33.54
-32.73
-33.89
-37.19
-41.42
-45.01
-46.59
-45.28
-40.82
-33.38
-24.64
-16.36
-9.56
-4.64
-2.10
-2.38
-4.96
-8.06
-1.76
19.10
50.26
80.44
99.79
104.40
96.01
80.06
62.78
48.01
36.27
26.65
18.43
11.77
7.18
4.86
5.93
9.93
15.93
22.05
26.96
30.51
33.61
37.33
42.14
47.73
52.91
56.29
56.26
52.22
45.10
37.13
30.63
26.99
26.18
26.72
26.59
23.84
17.51
8.02
-3.00
-13.43
-21.29
-25.09
-24.25
-19.05
-10.81
-1.58
6.34
11.01
11.26
6.85
-1.49
-12.22
-23.19
-31.90
-36.03
-34.04
-25.75
-12.80
1.67
13.79
20.16
18.90
10.21
-3.78
-19.64
-33.59
-42.43
-44.12
-38.24
-26.09
-10.42
5.08
16.61
21.27
17.83
7.25
-7.58
-22.60
-33.77
-38.21
-34.93
-24.89
-10.55
4.91
18.26
26.76
28.59
23.12
11.28
-4.48
-20.63
-33.40
-39.78
-38.30
-29.26
-14.51
3.12
20.29
33.66
40.46
39.13
29.88
14.90
-2.19
-17.34
-27.24
-30.11
-25.77
-15.40
-1.04
14.56
28.17
36.46
36.84
28.49
12.99
-5.93
-23.54
-35.70
-39.91
-35.71
-24.18
-7.29
12.50
32.25
48.48
57.66
57.16
46.48
27.94
6.11
-13.63
-27.06
-32.36
-30.22
-22.91
-12.86
-1.72
9.68
20.69
30.22
36.68
38.61
35.71
29.37
22.27
17.14
15.33
16.16
17.32
16.25
11.53
3.69
-5.15
-12.36
-16.01
-15.57
-11.87
-6.41
-0.66
4.41
8.40
11.18
12.80
13.22
12.37
10.24
7.04
3.31
-0.01
-1.67
-0.52
4.11
11.94
21.71
31.56
39.63
44.69
46.47
45.44
42.26
37.26
30.19
20.47
7.85
-7.07
-22.66
-36.51
-46.27
-50.48
-49.03
-43.24
-35.27
-27.33
-20.93
-16.54
-13.62
-11.21
-8.45
-5.12
-1.62
1.36
3.41
4.63
5.64
6.99
8.72
10.10
10.02
7.55
2.58
-4.09
-11.24
-17.67
-22.73
-26.27
-28.31
-28.76
-27.40
-24.11
-19.25
-13.73
-8.65
-4.72
-1.85
0.98
5.17
11.77
20.88
31.45
41.78
50.31
56.21
59.65
61.43
62.44
63.06
63.16
62.32
60.23
56.90
52.69
48.04
43.45
39.40
36.30
34.47
33.77
33.60
32.99
31.04
27.51
23.01
18.83
16.35
16.37
18.66
21.95
24.21
23.10
16.63
3.74
-15.24
-38.27
-61.91
-82.07
-95.10
-98.81
-93.00
-79.21
-60.07
-38.64
-17.83
-0.31
11.52
15.79
11.50
-0.97
-19.44
-40.32
-59.23
-72.35
-77.40
-74.15
-64.24
-50.32
-34.96
-19.85
-5.74
7.28
19.07
29.02
36.12
39.44
38.85
35.40
31.02
27.79
27.04
28.77
31.83
34.63
36.00
35.65
34.19
32.50
31.11
29.94
28.47
26.19
23.09
19.84
17.44
16.83
18.43
22.06
27.00
32.23
36.62
39.25
39.51
37.24
32.73
26.52
19.33
11.86
4.94
-0.45
-3.13
-1.94
3.86
14.15
27.78
42.70
56.38
66.36
70.67
68.02
57.97
41.02
18.67
-6.60
-31.67
-53.36
-69.07
-77.43
-78.52
-73.74
-65.35
-55.85
-47.36
-41.19
-37.70
-36.52
-36.92
-38.20
-39.90
-41.80
-43.77
-45.58
-46.96
-47.66
-47.77
-47.64
-47.81
-48.69
-50.28
-52.11
-53.46
-53.71
-52.59
-50.42
-47.84
-45.56
-43.99
-43.04
-42.23
-40.92
-38.73
-35.65
-32.11
-28.58
-25.29
-22.05
-18.34
-13.64
-7.68
-0.60
7.10
14.82
21.89
27.80
32.20
35.13
37.08
39.14
42.73
49.17
59.07
71.70
84.89
95.33
99.40
94.22
78.74
54.30
24.62
-4.98
-28.94
-43.10
-45.93
-39.14
-27.12
-15.62
-9.85
-12.86
-24.68
-42.48
-61.73
-77.83
-87.54
-89.80
-85.55
-76.78
-65.39
-52.32
-37.48
-20.29
-0.62
20.44
40.62
57.09
67.59
71.38
69.67
65.13
60.84
59.21
61.11
65.80
71.26
74.91
74.32
67.79
54.84
36.53
15.52
-4.37
-19.17
-26.12
-24.87
-17.79
-9.04
-2.78
-1.23
-3.72
-7.24
-8.12
-4.14
4.13
13.48
19.33
17.66
6.65
-12.67
-36.78
-60.84
-80.12
-91.50
-94.18
-89.94
-82.46
-75.95
-73.49
-75.82
-80.91
-84.89
-83.65
-74.66
-58.19
-37.23
-16.42
-0.31
8.17
8.60
2.87
-5.63
-13.21
-16.92
-15.13
-7.78
3.78
17.07
28.96
36.36
37.15
30.80
18.72
3.96
-9.78
-19.43
-23.40
-22.01
-17.04
-10.83
-5.44
-2.04
-0.90
-1.58
-3.27
-4.98
-5.70
-4.59
-1.16
4.49
11.67
19.22
25.95
31.11
34.73
37.53
40.47
44.19
48.63
52.93
55.90
56.51
54.44
50.18
44.77
39.29
34.44
30.30
26.53
22.58
18.02
12.73
6.88
0.76
-5.39
-11.50
-17.65
-23.87
-30.01
-35.75
-40.72
-44.71
-47.83
-50.42
-52.85
-55.19
-57.05
-57.52
-55.46
-49.87
-40.13
-26.23
-8.78
10.97
31.22
49.80
64.45
73.43
75.99
72.69
65.31
56.26
47.82
41.53
37.91
36.63
36.88
37.81
38.73
39.23
39.06
38.11
36.37
33.93
30.94
27.60
24.09
20.67
17.53
14.85
12.67
10.94
9.55
8.50
7.92
8.08
9.17
11.16
13.62
15.84
17.06
16.72
14.74
11.43
7.30
2.91
-1.36
-5.32
-8.95
-12.31
-15.55
-18.89
-22.57
-26.73
-31.32
-36.01
-40.24
-43.46
-45.33
-45.90
-45.55
-44.67
-43.52
-42.04
-40.08
-37.56
-34.75
-32.31
-31.03
-31.54
-34.02
-38.11
-42.99
-47.72
-51.59
-54.43
-56.63
-58.89
-61.82
-65.55
-69.61
-73.11
-75.25
-75.73
-74.80
-73.00
-70.60
-67.47
-63.28
-58.29
-53.61
-50.79
-50.55
-51.56
-50.55
-43.77
-29.21
-8.14
15.38
36.95
54.53
69.62
85.77
105.57
128.10
148.95
162.72
166.36
161.10
151.63
143.19
138.66
137.31
136.20
132.40
125.06
115.74
106.92
100.58
97.16
95.49
93.71
90.27
84.63
77.31
69.56
62.49
56.79
52.59
49.36
46.17
42.07
36.60
29.91
22.75
15.59
8.95
3.21
-1.58
-5.85
-10.13
-14.66
-19.19
-23.19
-27.30
-31.80
-36.25
-40.02
-42.99
-45.46
-47.79
-50.31
-53.34
-59.34
-69.04
-80.37
-90.03
-95.92
-97.92
-97.40
-96.36
-96.60
-102.49
-114.89
-130.20
-143.51
-152.52
-158.26
-163.33
-170.21
-180.23
-197.96
-223.86
-252.93
-278.14
-294.62
-300.27
-294.37
-276.91
-219.95
-121.24
-7.39
88.37
150.76
182.11
192.09
190.77
185.59
180.52
171.96
157.62
139.59
122.37
108.91
99.78
94.15
90.62
87.67
80.54
67.47
51.28
37.02
28.38
26.51
30.66
38.73
47.93
53.18
52.34
46.72
39.58
33.59
29.72
27.51
25.81
23.45
18.73
11.51
3.32
-3.66
-8.14
-10.03
-10.02
-9.13
-8.30
-8.53
-10.07
-12.38
-14.53
-15.84
-16.18
-15.89
-15.48
-15.38
-15.66
-16.15
-16.56
-16.65
-16.37
-15.88
-15.45
-15.35
-15.67
-16.34
-17.13
-17.77
-17.98
-17.52
-16.24
-14.07
-11.05
-7.32
-3.17
1.08
5.13
8.74
11.79
14.17
15.78
16.47
16.14
14.84
12.89
10.79
9.10
8.14
7.94
8.22
8.61
8.82
8.77
8.52
8.16
7.77
7.31
6.75
6.05
5.23
4.30
3.30
2.21
1.06
-0.21
-1.66
-3.36
-5.28
-7.32
-9.29
-11.03
-12.47
-13.74
-15.02
-16.43
-17.92
-19.22
-19.95
-19.83
-18.78
-16.94
-14.55
-11.82
-8.89
-5.79
-2.61
0.54
3.49
6.15
8.43
10.36
11.92
13.10
13.78
13.86
13.39
12.56
11.70
11.17
11.18
11.73
12.62
13.54
14.25
14.57
14.47
13.99
13.21
12.24
11.18
10.15
9.24
8.51
7.89
7.23
6.36
5.13
3.54
1.65
-0.42
-2.57
-4.76
-6.87
-8.77
-10.21
-11.00
-11.06
-10.48
-9.50
-8.27
-6.83
-5.05
-2.80
-0.11
2.79
5.55
7.85
9.54
10.64
11.26
11.50
11.43
11.08
10.53
9.96
9.58
9.54
9.87
10.44
11.04
11.52
11.73
11.68
11.40
10.95
10.42
9.93
9.54
9.30
9.13
8.88
8.37
7.42
6.02
4.35
2.65
1.11
-0.18
-1.32
-2.44
-3.61
-4.83
-6.10
-7.42
-8.82
-10.29
-11.64
-12.46
-12.24
-10.58
-7.44
-3.20
1.45
5.77
9.20
11.51
12.78
13.27
13.30
13.14
12.98
12.92
12.98
13.16
13.38
13.59
13.72
13.80
13.85
13.95
14.14
14.46
14.89
15.41
15.94
16.37
16.63
16.73
16.71
16.65
16.62
16.55
16.31
15.75
14.74
13.28
11.48
9.52
7.55
5.63
3.75
1.86
-0.16
-2.38
-4.82
-7.42
-10.05
-12.42
-14.18
-15.01
-14.71
-13.34
-11.22
-8.78
-6.45
-4.48
-2.83
-1.28
0.37
2.24
4.28
6.34
8.37
10.37
12.43
14.49
16.35
17.68
18.20
17.83
16.78
15.49
14.42
13.94
14.18
15.02
16.14
17.12
17.57
17.26
16.15
14.46
12.56
10.79
9.36
8.25
7.28
6.24
5.01
3.58
1.98
0.22
-1.76
-4.04
-6.60
-9.24
-11.61
-13.27
-13.93
-13.51
-12.22
-10.42
-8.45
-6.51
-4.58
-2.59
-0.48
1.65
3.57
4.99
5.74
5.83
5.50
5.06
4.77
4.71
4.79
4.88
4.87
4.86
4.99
5.38
5.99
6.63
7.13
7.39
7.49
7.53
7.60
7.60
7.38
6.84
6.00
4.99
3.96
2.96
1.95
0.83
-0.47
-1.93
-3.52
-5.18
-6.82
-8.32
-9.55
-10.38
-10.74
-10.62
-10.10
-9.22
-7.95
-6.21
-3.99
-1.41
1.23
3.68
5.74
7.30
8.33
8.84
8.89
8.59
8.08
7.50
7.06
6.92
7.04
7.26
7.44
7.48
7.35
7.00
6.34
5.77
5.67
6.16
7.01
7.78
8.08
7.62
6.27
4.08
2.19
1.65
2.74
4.87
7.05
8.51
8.89
8.13
6.41
5.47
6.69
10.32
15.29
20.09
23.72
25.87
26.83
27.31
30.10
37.53
50.28
66.97
85.36
103.74
121.22
137.65
141.53
125.88
92.11
49.76
9.18
-23.96
-48.36
-65.04
-75.97
-83.46
-87.92
-89.64
-89.37
-88.34
-87.23
-85.70
-82.93
-78.46
-72.68
-65.18
-55.97
-45.82
-36.01
-27.84
-21.85
-17.99
-15.75
-14.61
-13.12
-10.14
-5.48
-0.05
4.76
7.94
9.15
8.76
7.51
6.55
6.48
6.90
6.38
3.21
-3.76
-14.75
-28.12
-41.44
-51.99
-57.99
-59.30
-57.64
-55.88
-56.93
-62.58
-72.86
-85.99
-98.95
-108.33
-111.31
-106.48
-94.23
-76.56
-56.43
-36.83
-20.10
-7.47
1.09
6.80
11.48
16.64
22.92
30.07
37.37
43.85
48.68
51.36
52.10
51.53
50.02
47.48
43.77
39.09
34.07
29.42
25.66
23.61
23.87
26.04
28.46
29.31
27.40
22.65
15.68
7.52
0.05
-4.43
-4.16
1.69
13.49
31.15
53.64
78.25
97.08
101.68
90.65
71.36
53.07
41.02
35.46
33.36
30.99
25.30
16.32
6.21
-2.64
-9.29
-14.18
-18.70
-22.70
-26.52
-30.20
-32.48
-31.39
-25.70
-16.06
-4.84
4.89
10.54
10.67
5.67
-2.10
-9.69
-15.06
-18.03
-19.76
-21.64
-24.32
-27.69
-30.81
-32.29
-31.22
-27.72
-22.86
-17.98
-13.76
-9.81
-5.08
1.50
10.45
21.16
32.08
41.27
47.26
49.51
48.37
44.48
38.46
30.72
21.59
11.59
1.55
-7.52
-14.73
-19.56
-22.05
-22.60
-21.83
-20.37
-18.71
-17.17
-15.98
-15.32
-15.50
-16.77
-19.22
-22.63
-26.43
-29.78
-31.74
-31.86
-30.11
-26.98
-23.16
-19.20
-15.36
-11.74
-8.70
-7.00
-7.67
-11.30
-17.52
-24.72
-30.43
-32.34
-29.20
-21.40
-10.70
0.49
10.05
16.71
19.91
19.87
17.14
12.68
7.79
4.14
3.21
5.61
10.69
16.83
22.64
27.59
32.84
40.32
51.56
66.59
83.56
99.49
111.42
117.57
117.74
113.30
106.48
99.53
93.96
89.89
85.87
79.20
67.09
48.12
23.27
-4.04
-29.47
-49.13
-61.20
-66.78
-69.53
-74.48
-86.15
-106.74
-135.16
-167.36
-196.62
-215.77
-219.87
-208.55
-186.32
-160.66
-139.33
-127.31
-126.21
-133.36
-143.30
-150.38
-150.89
-143.80
-130.49
-114.00
-97.95
-86.95
-83.43
-86.60
-93.14
-98.96
-100.42
-95.50
-84.16
-68.01
-50.89
-35.43
-21.89
-9.44
2.28
12.91
21.89
28.98
44.77
70.44
97.96
117.57
125.41
123.62
116.88
109.35
103.36
99.40
95.11
88.74
80.53
71.98
63.78
56.88
51.51
47.38
44.46
41.55
38.36
35.59
34.08
33.74
34.02
34.25
34.43
35.71
39.44
47.11
58.74
71.93
82.47
86.65
85.81
81.30
75.25
69.14
63.38
57.52
50.91
43.28
33.72
21.41
8.06
-2.89
-9.21
-11.81
-13.68
-17.95
-26.07
-37.21
-48.62
-57.20
-61.61
-61.73
-58.81
-54.20
-48.79
-42.63
-35.32
-26.23
-15.44
-3.79
7.32
15.98
21.44
24.18
25.62
26.92
28.52
29.86
30.04
28.16
24.25
20.01
17.57
18.81
24.39
33.96
46.64
61.43
77.45
90.59
97.53
97.66
94.04
90.59
89.69
91.62
94.94
97.34
96.59
93.80
88.34
80.58
71.26
61.41
52.28
45.04
40.40
38.37
38.38
40.26
42.96
44.61
43.55
39.07
31.53
22.13
12.34
3.61
-3.40
-8.81
-13.40
-18.35
-24.56
-32.47
-41.83
-51.75
-60.79
-67.68
-72.01
-74.56
-77.17
-81.48
-88.53
-97.90
-108.10
-117.16
-123.44
-126.16
-125.48
-122.68
-119.29
-116.84
-116.49
-118.93
-123.93
-130.19
-135.77
-138.54
-137.54
-132.46
-123.71
-112.46
-100.21
-88.75
-79.35
-72.71
-68.77
-67.65
-68.25
-68.69
-67.49
-64.48
-60.61
-57.07
-54.64
-52.99
-52.11
-50.72
-46.84
-38.95
-26.82
-11.37
5.49
21.74
43.33
69.44
95.08
115.45
128.56
134.19
132.51
123.67
109.04
91.58
74.08
59.27
49.27
44.12
41.25
39.07
36.46
33.44
30.61
27.74
24.98
23.14
23.09
25.54
31.76
40.76
50.45
58.27
61.57
59.44
53.08
45.12
38.08
33.77
32.14
32.39
32.88
32.07
29.26
24.56
18.45
11.61
5.05
-0.66
-4.67
-6.53
-6.35
-4.77
-2.64
-0.88
-0.40
-1.77
-5.17
-10.21
-16.21
-22.32
-27.66
-31.39
-32.84
-31.62
-27.89
-22.26
-15.61
-8.65
-2.11
3.59
8.17
11.51
13.79
15.44
16.96
18.57
19.87
19.96
17.99
13.60
7.34
0.59
-5.08
-8.66
-10.11
-10.23
-10.21
-10.82
-12.20
-13.93
-15.40
-16.26
-16.54
-16.46
-16.25
-15.90
-15.32
-14.51
-13.63
-12.87
-12.64
-13.03
-13.93
-15.03
-15.81
-15.70
-14.32
-11.66
-8.23
-4.93
-2.61
-1.68
-1.81
-2.10
-1.52
0.55
3.77
7.23
9.78
10.80
10.53
9.89
9.88
10.83
12.19
12.77
11.60
8.62
4.87
2.00
1.36
3.35
6.98
10.55
12.52
12.25
10.28
7.66
5.42
3.94
2.96
2.02
0.90
-0.20
-1.01
-1.48
-2.03
-3.11
-5.00
-7.18
-8.58
-8.10
-5.28
-0.59
4.95
10.16
14.27
17.12
18.85
19.69
19.60
18.37
16.03
13.39
11.45
10.72
11.00
11.63
12.05
11.75
10.76
9.42
8.96
10.26
13.36
17.59
22.01
25.60
27.21
25.93
21.49
15.79
11.04
8.53
8.32
9.70
11.67
13.31
14.30
15.40
19.62
29.57
45.75
66.39
88.35
108.03
122.07
128.31
117.07
86.64
45.33
6.07
-22.13
-37.16
-41.21
-37.85
-31.03
-25.05
-22.36
-25.27
-35.05
-49.95
-64.26
-70.15
-61.46
-37.17
-2.22
36.15
69.12
88.07
89.62
77.15
57.76
37.91
19.87
1.78
-18.71
-42.23
-66.22
-85.66
-96.04
-96.17
-89.10
-80.33
-74.45
-72.40
-71.91
-69.23
-61.38
-47.78
-30.49
-13.14
0.72
8.82
10.96
8.27
2.68
-3.72
-9.35
-13.52
-16.56
-19.49
-23.29
-28.11
-33.43
-37.92
-40.23
-39.82
-37.16
-33.55
-30.41
-28.75
-28.89
-30.62
-33.37
-36.44
-39.10
-40.59
-40.32
-37.96
-33.61
-27.83
-21.31
-14.58
-7.76
-1.05
5.31
10.71
14.41
16.04
15.92
15.05
14.47
14.51
14.56
13.62
10.83
6.44
1.82
-1.25
-1.43
1.36
5.98
10.75
14.41
16.49
17.36
17.60
17.53
17.05
15.87
13.91
11.54
9.34
7.72
6.65
5.76
4.24
1.57
-2.32
-6.97
-11.41
-14.59
-15.74
-14.83
-12.63
-10.51
-9.62
-10.47
-12.49
-14.37
-14.78
-13.07
-9.58
-5.43
-1.96
0.03
0.58
0.17
-0.42
-0.71
-0.54
0.13
1.42
3.52
6.31
9.20
11.14
11.43
9.77
6.94
4.27
3.00
3.63
5.75
8.36
10.30
10.81
9.53
6.59
2.40
-2.31
-6.55
-9.17
-9.28
-6.56
-1.51
4.71
10.81
15.87
19.26
20.80
20.55
18.76
15.93
12.82
10.22
8.64
8.06
7.95
7.86
7.23
5.73
3.30
0.20
-3.09
-5.99
-8.13
-9.59
-10.61
-11.91
-14.48
-19.13
-26.03
-34.55
-43.44
-51.45
-57.82
-62.15
-64.97
-67.70
-71.83
-78.30
-87.14
-97.47
-108.12
-117.91
-124.32
-125.85
-123.13
-118.72
-115.54
-115.82
-119.29
-123.79
-125.69
-118.28
-97.38
-63.82
-22.34
21.98
65.26
106.92
146.80
184.33
222.77
262.99
301.83
334.41
358.15
372.50
380.49
384.28
384.92
388.69
399.47
415.45
431.09
442.03
445.69
444.42
440.45
396.11
297.43
163.72
32.24
-71.62
-133.23
-168.13
-186.75
-195.38
-197.99
-193.17
-179.84
-161.62
-145.29
-135.49
-134.45
-139.02
-145.89
-152.69
-153.38
-144.92
-130.03
-115.12
-105.43
-104.09
-108.94
-116.80
-124.66
-127.36
-122.13
-110.40
-96.37
-83.98
-75.97
-72.29
-72.29
-75.24
-78.77
-80.66
-79.99
-77.06
-72.83
-69.09
-67.28
-68.56
-73.25
-79.30
-83.55
-83.18
-76.72
-64.50
-48.50
-31.26
-15.41
-2.79
6.04
11.80
16.32
21.97
30.64
42.95
57.81
72.66
84.41
90.67
90.87
85.98
78.32
70.26
63.41
58.27
54.43
51.05
47.28
42.56
36.71
30.08
23.16
16.58
10.81
6.03
2.25
-0.61
-2.63
-4.02
-5.11
-6.26
-7.70
-9.46
-11.35
-13.06
-14.47
-15.79
-17.46
-19.91
-23.12
-26.53
-28.93
-29.44
-27.56
-23.70
-18.84
-13.94
-9.45
-5.14
-0.60
4.12
8.24
10.60
10.14
6.76
1.49
-3.96
-7.82
-9.14
-8.08
-5.75
-3.63
-2.84
-3.98
-6.97
-11.38
-16.56
-21.71
-25.92
-28.23
-28.25
-26.48
-24.32
-23.25
-24.42
-27.56
-31.28
-33.65
-33.16
-29.39
-23.14
-15.87
-9.17
-4.28
-1.74
-1.61
-3.42
-6.24
-9.09
-11.08
-11.74
-11.14
-9.73
-7.97
-5.89
-3.63
-1.26
0.78
1.84
1.50
-0.09
-2.16
-3.86
-4.86
-5.57
-6.73
-8.99
-12.21
-15.44
-17.43
-17.44
-15.69
-13.20
-11.21
-10.42
-10.66
-11.22
-11.41
-11.18
-11.04
-11.72
-13.54
-16.13
-18.72
-20.58
-21.49
-21.71
-22.02
-23.07
-25.13
-28.02
-31.09
-33.86
-36.10
-38.10
-40.50
-43.88
-48.19
-52.75
-56.50
-58.48
-58.29
-56.02
-51.94
-46.18
-38.62
-29.24
-18.40
-7.40
2.09
8.45
10.81
9.43
5.63
1.15
-2.63
-5.04
-6.19
-6.30
-5.39
-3.13
0.59
4.91
7.74
5.92
-3.33
-20.89
-44.63
-69.47
-88.77
-96.32
-88.34
-64.24
-26.37
21.09
73.08
124.54
170.77
207.91
233.63
247.45
251.03
247.57
240.71
233.31
226.70
220.68
214.11
205.89
195.36
182.51
167.50
150.33
130.85
109.08
85.59
61.50
38.31
17.28
-0.94
-16.40
-29.57
-40.93
-50.78
-59.15
-65.92
-70.92
-74.36
-76.38
-77.11
-76.73
-75.61
-74.39
-73.79
-74.37
-76.33
-79.53
-83.60
-88.03
-92.58
-97.43
-103.06
-109.87
-117.86
-126.55
-135.35
-143.05
-147.84
-148.15
-143.22
-133.48
-120.40
-105.90
-91.71
-80.04
-71.82
-66.43
-62.63
-59.55
-56.73
-53.55
-48.90
-41.61
-33.28
-25.11
-17.06
-8.59
0.05
8.10
14.74
19.77
23.34
22.16
15.07
4.40
-6.06
-14.55
-22.15
-31.59
-45.61
-66.03
-97.51
-139.95
-187.12
-230.02
-262.10
-280.89
-286.95
-282.63
-241.10
-158.28
-56.18
35.09
100.24
139.75
160.59
169.87
172.53
171.29
162.69
145.81
123.85
103.26
88.41
80.52
78.83
81.61
86.77
88.58
83.66
72.86
59.78
47.63
38.21
33.05
33.10
38.16
44.23
47.62
46.77
42.26
35.52
27.75
20.77
16.30
15.81
19.23
26.79
39.21
56.36
76.21
94.89
109.19
117.31
119.73
117.88
113.58
108.18
101.60
92.99
81.23
66.99
52.50
40.69
33.80
32.91
38.14
48.53
62.89
74.41
76.46
65.77
44.79
19.48
-4.40
-21.37
-31.73
-36.45
-37.18
-35.25
-31.76
-27.89
-25.43
-25.94
-29.92
-37.12
-46.13
-55.51
-63.62
-69.20
-71.79
-72.07
-71.08
-69.46
-67.41
-64.58
-60.89
-56.41
-51.33
-45.95
-40.93
-36.72
-33.58
-31.84
-31.74
-33.36
-35.95
-37.69
-34.58
-24.44
-8.51
8.71
22.26
29.45
30.33
27.11
22.82
20.02
19.53
21.21
24.46
28.70
33.42
38.01
41.60
43.34
43.34
40.52
34.76
26.91
18.51
11.17
5.82
2.48
0.36
-1.60
-4.50
-8.40
-12.46
-15.39
-16.19
-14.68
-11.47
-7.56
-3.87
-1.47
-0.66
-1.00
-1.64
-1.67
-0.51
1.69
4.37
7.60
11.37
15.43
19.64
23.75
27.31
29.63
30.12
28.53
25.06
20.25
14.91
9.96
5.98
3.20
1.52
0.59
0.11
-0.16
-0.38
-0.63
-0.88
-1.14
-1.44
-1.84
-2.31
-2.74
-3.02
-3.21
-3.51
-4.16
-5.36
-7.09
-9.11
-10.99
-12.30
-12.73
-12.21
-10.91
-9.14
-7.37
-6.21
-6.28
-7.97
-11.27
-15.66
-20.31
-24.32
-27.09
-28.52
-28.92
-28.80
-28.61
-28.64
-29.09
-30.13
-31.98
-34.76
-38.41
-42.66
-47.12
-51.46
-55.53
-59.41
-63.22
-66.99
-70.59
-73.80
-76.44
-78.58
-80.61
-83.17
-86.92
-92.31
-99.33
-107.36
-115.13
-120.82
-122.30
-117.61
-105.47
-85.71
-59.50
-29.26
1.92
30.88
55.15
73.37
85.43
92.16
94.79
94.48
91.96
87.61
81.75
74.82
67.51
60.56
54.37
48.74
42.98
36.27
28.27
19.34
10.53
3.22
-1.44
-2.75
-0.74
3.96
10.17
16.46
21.53
24.62
25.82
25.87
25.84
26.54
28.35
31.23
35.04
39.73
45.18
50.91
55.91
58.85
58.70
55.34
49.72
43.50
38.23
34.65
32.56
31.05
29.20
26.47
22.84
18.66
14.37
10.29
6.56
3.28
0.52
-1.57
-2.85
-3.24
-2.82
-1.85
-0.73
0.18
0.68
0.79
0.70
0.67
0.87
1.39
2.24
3.47
5.22
7.63
10.71
14.34
18.20
21.93
25.28
28.13
30.51
32.44
33.88
34.70
34.77
34.08
32.70
30.83
28.64
26.33
24.01
21.81
19.87
18.27
17.09
16.28
15.70
15.07
14.14
12.68
10.68
8.29
5.81
3.51
1.58
-0.01
-1.41
-2.78
-4.24
-5.73
-7.13
-8.38
-9.46
-10.40
-11.26
-11.96
-12.37
-12.28
-11.55
-10.12
-8.07
-5.55
-2.79
0.04
2.80
5.47
8.09
10.67
13.17
15.30
16.69
16.97
16.04
14.25
12.42
11.60
12.75
16.38
22.31
29.70
37.25
43.52
47.30
47.94
45.44
40.37
33.80
27.03
21.37
17.87
17.01
18.58
21.66
24.88
26.81
26.43
23.26
17.50
9.85
1.12
-7.85
-16.45
-24.28
-31.06
-36.64
-40.96
-44.08
-46.16
-47.42
-48.13
-48.55
-48.91
-49.29
-49.68
-50.00
-50.14
-50.02
-49.60
-48.85
-47.62
-45.71
-42.82
-38.70
-33.29
-26.74
-19.49
-12.18
-5.50
-0.10
3.67
5.73
6.25
5.62
4.21
2.35
0.28
-1.82
-3.83
-5.67
-7.27
-8.59
-9.61
-10.30
-10.56
-10.28
-9.34
-7.66
-5.32
-2.58
0.22
2.71
4.69
6.13
7.18
8.01
8.70
9.24
9.51
9.42
8.98
8.26
7.43
6.67
6.13
5.92
6.04
6.38
6.77
6.96
6.79
6.21
5.37
4.49
3.80
3.46
3.46
3.57
3.50
2.96
1.79
-0.00
-2.18
-4.40
-6.33
-7.76
-8.67
-9.14
-9.23
-8.87
-7.90
-6.15
-3.60
-0.42
3.06
6.51
9.67
12.38
14.40
15.53
15.53
14.36
12.23
9.61
7.03
4.84
3.01
1.21
-0.94
-3.56
-6.39
-8.79
-10.14
-10.09
-8.83
-7.01
-5.42
-4.64
-4.84
-5.78
-6.99
-8.04
-8.69
-8.96
-8.95
-8.76
-8.32
-7.52
-6.23
-4.50
-2.51
-0.54
1.23
2.75
4.08
5.36
6.58
7.73
8.67
9.34
9.66
9.69
9.47
9.15
8.92
9.06
9.84
11.41
13.62
16.08
18.21
19.48
19.63
18.68
16.92
14.72
12.41
10.16
8.07
6.10
4.20
2.27
0.22
-2.07
-4.71
-7.85
-11.54
-15.73
-20.18
-24.47
-28.12
-30.70
-32.00
-32.10
-31.29
-30.00
-28.54
-27.13
-25.74
-24.20
-22.24
-19.69
-16.52
-12.91
-9.21
-5.75
-2.81
-0.49
1.24
2.45
3.21
3.55
3.53
3.25
2.91
2.73
2.85
3.26
3.77
4.15
4.20
3.91
3.39
2.87
2.53
2.39
2.39
2.40
2.37
2.31
2.24
2.18
2.08
1.90
1.70
1.59
1.69
1.98
2.26
2.21
1.55
0.20
-1.69
-3.75
-5.60
-6.90
-7.46
-7.23
-6.32
-4.92
-3.33
-1.86
-0.71
0.05
0.48
0.68
0.79
0.85
0.92
1.03
1.25
1.62
2.12
2.63
2.95
2.94
2.56
1.96
1.40
1.16
1.40
2.09
3.04
3.98
4.71
5.21
5.66
6.38
7.66
9.61
12.04
14.50
16.39
17.19
16.64
14.76
11.82
8.21
4.39
0.71
-2.46
-4.77
-5.96
-5.92
-4.83
-3.15
-1.49
-0.39
-0.17
-0.84
-2.23
-4.06
-6.11
-8.26
-10.40
-12.40
-14.11
-15.43
-16.33
-16.90
-17.36
-17.87
-18.52
-19.27
-19.94
-20.31
-20.16
-19.42
-18.23
-16.94
-15.95
-15.63
-16.10
-17.23
-18.77
-20.39
-21.80
-22.82
-23.32
-23.15
-22.23
-20.56
-18.27
-15.69
-13.12
-10.82
-8.74
-6.52
-3.63
0.49
6.12
13.11
20.80
28.16
34.15
37.94
39.20
38.11
35.26
31.41
27.24
23.21
19.59
16.49
14.03
12.32
11.47
11.40
11.79
12.10
11.78
10.45
8.11
5.08
1.90
-0.91
-3.06
-4.54
-5.53
-6.29
-7.09
-8.04
-9.09
-10.00
-10.43
-10.14
-9.14
-7.78
-6.61
-6.14
-6.47
-7.23
-7.67
-7.06
-5.01
-1.64
2.48
6.67
10.46
13.67
16.34
18.57
20.38
21.68
22.34
22.44
22.20
21.96
21.97
22.25
22.66
22.91
22.84
22.44
21.87
21.32
20.85
20.39
19.72
18.64
16.99
14.80
12.24
9.57
7.08
4.99
3.42
2.31
1.43
0.40
-1.11
-3.28
-6.02
-9.00
-11.80
-14.13
-15.91
-17.30
-18.56
-19.89
-21.42
-23.05
-24.59
-25.71
-26.14
-25.72
-24.44
-22.49
-20.15
-17.69
-15.29
-13.01
-10.90
-9.03
-7.53
-6.49
-5.89
-5.60
-5.40
-5.16
-4.90
-4.73
-4.76
-4.97
-5.22
-5.33
-5.22
-4.89
-4.45
-4.06
-3.80
-3.75
-3.98
-4.54
-5.46
-6.73
-8.26
-9.94
-11.68
-13.45
-15.26
-17.12
-19.02
-20.88
-22.64
-24.26
-25.79
-27.28
-28.78
-30.20
-31.40
-32.18
-32.41
-32.10
-31.37
-30.31
-28.87
-26.85
-23.95
-19.99
-15.01
-9.40
-3.68
1.63
6.29
10.29
13.76
16.87
19.62
21.90
23.54
24.50
24.86
24.81
24.59
24.39
24.36
24.55
24.97
25.58
26.31
27.10
27.84
28.45
28.94
29.31
29.60
29.80
29.87
29.73
29.32
28.52
27.30
25.62
23.56
21.30
19.08
17.13
15.52
14.16
12.80
11.19
9.20
6.94
4.67
2.68
1.13
-0.02
-0.96
-1.85
-2.70
-3.37
-3.65
-3.41
-2.73
-1.90
-1.25
-0.98
-1.12
-1.53
-2.04
-2.61
-3.29
-4.20
-5.38
-6.80
-8.30
-9.69
-10.83
-11.62
-12.04
-12.14
-12.10
-12.18
-12.67
-13.77
-15.41
-17.19
-18.57
-19.13
-18.84
-18.10
-17.54
-17.64
-18.56
-19.98
-21.37
-22.32
-22.74
-22.88
-23.21
-24.11
-25.71
-27.84
-30.14
-32.19
-33.73
-34.69
-35.21
-35.71
-36.80
-39.00
-42.57
-47.09
-51.38
-53.73
-52.35
-46.07
-34.90
-20.13
-4.04
10.65
21.47
26.77
26.24
21.09
13.90
8.01
6.54
11.32
22.24
37.25
53.19
66.85
76.03
79.91
78.85
73.87
66.16
56.83
46.88
37.28
28.89
22.33
17.79
15.03
13.41
12.13
10.46
8.04
4.94
1.58
-1.49
-3.82
-5.25
-5.93
-6.22
-6.56
-7.25
-8.35
-9.67
-10.86
-11.62
-11.80
-11.55
-11.22
-11.19
-11.65
-12.60
-13.79
-15.08
-16.43
-18.05
-20.14
-22.77
-25.83
-29.00
-31.99
-34.62
-36.98
-39.39
-42.35
-46.35
-51.57
-57.57
-63.24
-66.90
-66.84
-61.99
-52.41
-39.40
-24.95
-11.08
0.81
10.17
17.06
21.80
24.70
25.94
25.75
24.40
22.20
19.38
15.99
12.08
7.90
4.05
1.42
0.93
3.09
7.81
14.38
21.62
28.25
33.17
35.58
35.18
32.21
27.38
21.83
16.81
13.40
12.20
13.29
16.16
20.00
23.87
26.94
28.75
29.16
28.37
26.80
24.91
23.10
21.66
20.78
20.47
20.55
20.70
20.55
19.87
18.67
17.19
15.81
14.75
14.01
13.37
12.55
11.39
9.91
8.22
6.47
4.72
2.93
1.06
-0.90
-2.88
-4.71
-6.23
-7.32
-7.85
-7.79
-7.14
-6.01
-4.51
-2.85
-1.17
0.38
1.65
2.52
2.90
2.74
2.15
1.35
0.64
0.28
0.38
0.88
1.56
2.16
2.50
2.52
2.24
1.79
1.27
0.81
0.49
0.40
0.48
0.63
0.57
0.05
-1.08
-2.84
-5.05
-7.49
-9.85
-11.88
-13.33
-14.02
-14.00
-13.47
-12.83
-12.50
-12.78
-13.72
-15.05
-16.35
-17.20
-17.30
-16.57
-15.13
-13.17
-10.97
-8.76
-6.72
-4.93
-3.38
-2.08
-1.00
-0.17
0.39
0.73
0.98
1.28
1.69
2.19
2.63
2.93
3.04
3.09
3.23
3.58
4.14
4.76
5.25
5.38
5.08
4.34
3.33
2.20
1.12
0.22
-0.43
-0.86
-1.21
-1.63
-2.30
-3.28
-4.46
-5.65
-6.66
-7.41
-7.95
-8.40
-8.80
-9.15
-9.28
-9.03
-8.32
-7.17
-5.68
-3.91
-1.99
-0.01
1.81
3.22
4.08
4.39
4.37
4.27
4.26
4.27
4.18
3.81
3.20
2.49
1.83
1.32
0.93
0.55
0.10
-0.40
-0.90
-1.37
-1.84
-2.40
-3.15
-4.11
-5.24
-6.46
-7.65
-8.70
-9.56
-10.24
-10.81
-11.44
-12.31
-13.54
-15.17
-17.09
-19.16
-21.21
-23.10
-24.72
-25.93
-26.69
-26.94
-26.80
-26.43
-25.96
-25.38
-24.58
-23.44
-21.92
-20.19
-18.52
-17.16
-16.23
-15.72
-15.49
-15.43
-15.42
-15.30
-14.83
-13.67
-11.50
-8.04
-3.17
3.08
10.57
19.02
28.00
36.89
44.96
51.57
56.35
59.31
60.84
61.41
61.35
60.64
59.01
56.11
51.76
46.06
39.33
32.00
24.44
16.89
9.52
2.48
-4.01
-9.72
-14.38
-17.78
-19.78
-20.36
-19.61
-17.77
-15.25
-12.53
-10.10
-8.32
-7.31
-6.91
-6.76
-6.44
-5.64
-4.27
-2.43
-0.41
1.56
3.30
4.74
5.92
6.89
7.66
8.18
8.40
8.36
8.13
7.84
7.60
7.43
7.18
6.69
5.87
4.81
3.79
3.13
2.99
3.24
3.46
3.16
2.06
0.18
-2.16
-4.52
-6.62
-8.43
-10.05
-11.61
-13.09
-14.29
-14.92
-14.77
-13.72
-11.84
-9.31
-6.44
-3.59
-1.17
0.50
1.34
1.54
1.58
2.01
3.23
5.27
7.80
10.30
12.34
13.72
14.51
14.95
15.23
15.45
15.64
15.83
16.09
16.49
16.99
17.41
17.49
17.01
15.98
14.58
13.12
11.85
10.81
9.90
8.95
7.86
6.72
5.65
4.72
3.85
2.82
1.40
-0.53
-2.89
-5.38
-7.61
-9.21
-9.97
-9.88
-9.03
-7.62
-5.83
-3.84
-1.81
0.07
1.59
2.60
3.12
3.32
3.52
4.02
4.92
6.08
7.17
7.88
8.09
7.93
7.69
7.64
7.84
8.16
8.41
8.41
8.13
7.60
6.84
5.83
4.52
2.92
1.13
-0.69
-2.42
-4.10
-5.88
-7.90
-10.18
-12.59
-14.87
-16.90
-18.69
-20.43
-22.32
-24.37
-26.44
-28.29
-29.77
-30.95
-32.06
-33.37
-34.94
-36.58
-37.90
-38.52
-38.21
-36.97
-34.93
-32.26
-29.06
-25.33
-21.12
-16.53
-11.71
-6.78
-1.69
3.73
9.64
16.00
22.42
28.16
32.48
34.91
35.52
34.91
33.97
33.46
33.72
34.60
35.62
36.23
36.03
34.87
32.84
30.18
27.26
24.45
22.02
20.02
18.22
16.22
13.66
10.45
6.77
3.03
-0.39
-3.35
-5.94
-8.36
-10.72
-12.96
-14.88
-16.26
-16.98
-17.07
-16.59
-15.65
-14.29
-12.55
-10.44
-8.05
-5.52
-3.03
-0.83
0.89
2.02
2.55
2.58
2.34
2.03
1.77
1.63
1.61
1.73
2.04
2.54
3.23
4.09
5.11
6.29
7.65
9.18
10.82
12.37
13.62
14.38
14.70
14.77
14.75
14.69
14.56
14.33
13.98
