1720468897.00
64.000000
-0.00
-0.00
-0.00
-0.00
-0.00
-0.00
-0.00
-0.00
-0.00
-0.00
0.00
0.01
0.01
-0.00
-0.03
-0.05
-0.05
0.00
0.13
0.36
0.66
1.01
1.37
1.72
2.06
2.40
2.79
3.24
3.80
4.42
5.06
5.66
6.20
6.68
7.15
7.68
8.31
9.14
10.09
11.04
11.88
12.56
13.14
13.76
14.65
15.96
17.91
20.32
22.90
25.38
27.58
29.57
31.68
34.32
37.81
42.54
48.15
54.10
59.83
64.97
69.58
74.14
79.34
85.71
93.76
103.00
112.62
121.73
129.77
136.75
143.30
150.75
157.77
166.64
177.95
191.79
206.97
220.57
228.25
225.36
208.53
176.87
132.76
80.05
23.07
-34.94
-92.44
-149.16
-205.23
-260.37
-313.74
-363.87
-409.83
-450.91
-486.50
-515.74
-537.23
-549.22
-549.96
-538.37
-514.21
-478.68
-433.88
-382.45
-327.02
-269.84
-212.62
-156.64
-102.92
-52.33
-5.84
35.68
71.55
101.52
125.70
144.63
158.99
169.49
176.76
181.20
183.07
182.62
180.11
175.90
170.37
163.96
156.99
149.72
142.28
134.75
127.16
119.56
112.01
104.59
97.37
90.39
83.70
77.32
71.24
65.49
60.07
55.00
50.28
45.92
41.91
38.25
34.92
31.93
29.25
26.90
24.87
23.15
21.74
20.62
19.78
19.20
18.88
18.77
18.87
19.18
19.68
20.34
21.15
22.08
23.06
24.03
24.88
25.50
25.73
25.45
24.52
22.86
20.42
17.21
13.33
8.87
4.02
-0.98
-5.88
-10.46
-14.48
-17.78
-20.22
-21.73
-22.29
-21.88
-20.55
-18.32
-15.21
-11.23
-6.39
-0.69
5.83
13.08
20.92
29.08
37.23
45.01
52.04
57.98
62.59
65.70
67.29
67.47
66.37
64.19
61.21
57.65
53.70
49.48
45.05
40.40
35.52
30.20
24.32
17.90
11.06
4.07
-2.69
-8.72
-13.48
-16.39
-17.24
-15.84
-12.12
-6.12
1.95
11.71
22.74
34.51
46.59
58.13
68.49
77.20
83.87
88.18
89.75
88.15
82.67
75.27
66.65
57.25
47.37
37.24
27.04
16.95
7.22
-1.80
-9.62
-16.03
-20.56
-22.56
-21.31
-16.06
-6.16
8.80
28.93
53.92
82.66
113.70
145.28
175.53
202.65
225.08
241.70
251.89
255.58
252.97
244.74
231.86
215.46
196.73
176.70
156.30
136.26
117.14
99.25
82.77
67.82
54.42
42.56
32.19
23.21
15.53
9.04
3.61
-0.84
-4.43
-7.25
-9.42
-11.05
-12.24
-13.09
-13.66
-14.01
-14.18
-14.21
-14.14
-14.07
-14.09
-14.32
-14.83
-15.64
-16.74
-18.08
-19.63
-21.37
-23.38
-25.77
-28.64
-32.03
-35.85
-39.93
-43.99
-47.83
-51.35
-54.68
-58.07
-61.80
-66.08
-70.87
-75.96
-80.98
-85.66
-89.96
-94.12
-98.63
-103.96
-110.45
-118.06
-126.48
-135.23
-143.96
-152.57
-161.23
-170.38
-180.51
-192.21
-206.10
-222.64
-241.71
-262.22
-281.87
-297.52
-306.10
-305.67
-296.16
-279.34
-258.02
-234.94
-211.91
-189.62
-168.03
-147.12
-127.32
-109.49
-94.50
-82.80
-74.20
-68.09
-63.91
-61.36
-60.49
-61.21
-62.85
-63.91
-62.39
-56.55
-45.69
-30.64
-13.45
3.31
17.51
28.14
35.30
39.84
42.62
44.18
44.54
43.47
40.82
36.70
31.60
26.20
21.20
17.00
13.73
11.16
8.93
6.66
4.15
1.42
-1.40
-4.19
-6.93
-9.77
-12.90
-16.55
-20.89
-26.05
-32.14
-39.12
-46.68
-54.04
-59.92
-62.83
-61.53
-55.59
-45.68
-33.47
-21.15
-10.79
-3.86
-0.74
-0.86
-2.99
-5.69
-7.85
-9.00
-9.36
-9.61
-10.45
-12.11
-14.15
-15.60
-15.53
-13.55
-10.16
-6.68
-4.71
-5.61
-9.96
-17.45
-26.85
-36.25
-43.15
-44.60
-37.92
-21.54
4.09
36.17
70.26
101.86
128.15
148.86
166.08
182.77
201.05
220.78
239.51
253.46
259.16
254.80
240.60
218.21
189.66
156.28
118.63
77.35
34.21
-7.18
-41.89
-65.34
-75.35
-73.00
-62.31
-48.45
-36.00
-27.94
-25.85
-30.67
-43.13
-63.39
-90.36
-121.25
-151.96
-178.25
-197.07
-207.30
-209.73
-206.48
-200.18
-193.24
-187.26
-182.62
-178.35
-172.48
-162.78
-147.98
-128.48
-106.34
-84.35
-64.82
-48.72
-35.83
-25.39
-16.95
-10.64
-6.87
-5.62
-6.01
-6.33
-4.74
-0.13
7.44
16.82
26.42
34.93
41.70
46.69
50.11
51.96
51.96
49.62
44.68
37.47
29.04
20.90
14.40
10.13
7.45
4.68
-0.26
-8.84
-21.16
-35.67
-49.60
-59.94
-64.47
-62.53
-55.24
-45.06
-35.11
-28.31
-26.67
-30.88
-40.25
-52.95
-66.79
-79.80
-90.72
-98.86
-103.75
-104.71
-100.69
-90.76
-74.70
-53.49
-29.06
-3.63
21.17
44.81
67.65
90.28
112.69
134.04
152.84
167.71
177.76
182.71
182.42
176.65
164.91
146.89
122.91
94.40
63.85
34.38
9.05
-9.77
-20.70
-23.52
-19.05
-8.93
4.74
19.58
33.44
44.52
51.66
54.32
52.71
47.63
40.49
32.86
26.25
21.67
19.41
19.13
20.03
21.30
22.47
23.47
24.50
25.78
27.18
28.25
28.33
26.86
23.69
19.12
13.81
8.47
3.81
0.20
-2.43
-4.59
-7.11
-10.61
-15.23
-20.17
-23.87
-24.46
-20.42
-11.22
2.47
19.09
36.75
53.66
68.25
79.05
84.52
83.32
74.87
60.03
41.22
21.77
4.70
-8.44
-18.03
-25.64
-32.88
-40.32
-47.18
-52.15
-54.50
-54.69
-54.12
-54.28
-55.86
-58.46
-61.32
-64.15
-67.68
-73.43
-82.72
-95.69
-110.91
-125.99
-138.49
-146.94
-150.96
-151.07
-148.11
-142.82
-135.81
-127.65
-118.91
-109.80
-99.99
-88.61
-74.89
-59.02
-42.43
-27.59
-17.02
-12.04
-12.05
-14.64
-16.43
-14.11
-5.46
10.48
33.61
63.13
97.86
136.02
175.01
211.44
241.79
263.20
274.33
275.47
268.19
254.60
236.58
215.62
193.08
170.78
150.71
134.55
122.80
114.54
107.95
101.34
94.06
86.64
80.41
76.49
75.18
75.72
76.66
76.46
74.11
69.46
63.28
57.04
52.22
49.54
48.47
46.95
42.13
31.70
15.12
-5.77
-27.29
-45.52
-57.87
-63.89
-65.19
-64.13
-62.54
-60.91
-58.57
-54.55
-48.54
-41.24
-34.08
-28.68
-26.07
-26.65
-30.45
-37.60
-48.50
-63.48
-82.19
-103.00
-123.39
-140.46
-152.04
-157.53
-157.95
-155.23
-151.29
-147.25
-143.37
-139.48
-135.52
-131.82
-128.93
-126.94
-125.13
-121.88
-115.29
-103.96
-87.72
-67.74
-46.14
-25.15
-6.26
9.98
23.91
35.97
46.17
53.77
57.53
56.53
50.70
41.30
30.50
20.63
13.25
8.63
5.74
2.86
-1.41
-7.49
-14.38
-20.12
-22.51
-19.98
-12.07
0.56
16.45
33.83
50.94
66.24
78.35
86.23
89.31
87.72
82.27
74.42
65.71
57.36
50.05
43.80
38.25
32.93
27.52
21.86
15.83
9.37
2.17
-6.11
-15.72
-26.64
-38.43
-50.36
-61.55
-71.40
-79.63
-86.43
-92.22
-97.49
-102.65
-107.95
-113.43
-118.56
-121.94
-121.17
-113.06
-94.61
-64.13
-21.89
29.87
87.62
147.49
205.62
258.24
301.23
330.19
341.30
332.53
304.94
262.85
212.71
161.41
114.46
75.08
44.21
21.38
5.45
-5.06
-11.76
-16.55
-21.19
-26.86
-33.72
-41.04
-47.49
-51.81
-53.30
-52.04
-48.70
-44.39
-40.53
-38.61
-39.94
-44.98
-52.90
-61.58
-68.12
-69.94
-65.85
-56.34
-43.25
-28.90
-15.14
-3.03
7.23
15.72
22.54
27.66
31.03
32.75
33.13
32.55
31.41
30.05
28.82
28.08
28.06
28.82
30.16
31.61
32.57
32.49
30.94
27.78
23.14
17.33
10.78
3.92
-2.91
-9.50
-15.87
-22.19
-28.66
-35.44
-42.47
-49.48
-55.74
-60.26
-61.93
-59.92
-53.97
-44.68
-33.33
-21.48
-10.54
-1.46
5.40
10.07
12.79
13.82
13.47
12.11
10.29
8.60
7.53
7.30
7.79
8.63
9.47
10.05
10.33
10.41
10.36
10.21
9.79
8.76
6.70
3.15
-2.03
-8.63
-15.87
-22.72
-28.16
-31.75
-34.03
-36.32
-40.28
-46.94
-56.13
-66.30
-75.10
-80.21
-80.46
-76.31
-69.64
-63.08
-59.00
-58.66
-62.01
-68.07
-75.53
-83.73
-93.01
-104.68
-120.87
-144.01
-176.44
-219.63
-273.26
-334.08
-395.73
-449.64
-487.25
-502.92
-495.74
-469.68
-431.78
-389.31
-347.54
-308.85
-273.58
-241.34
-212.18
-186.60
-164.93
-146.69
-130.43
-114.50
-97.86
-80.60
-63.82
-49.20
-37.95
-30.30
-25.38
-21.49
-16.92
-10.48
-2.03
7.62
17.19
25.53
32.20
37.56
42.74
49.10
57.60
68.46
81.02
94.22
106.99
118.95
130.50
142.72
156.88
173.77
193.23
214.18
235.06
254.63
272.56
289.61
307.26
326.99
349.44
374.35
401.02
429.08
458.83
490.71
524.11
556.33
582.87
598.80
600.77
588.37
563.79
530.22
489.83
443.21
390.69
334.67
280.70
235.76
204.45
185.22
169.67
145.72
103.32
39.39
-40.87
-126.82
-207.58
-276.85
-334.51
-384.86
-433.30
-483.25
-534.77
-584.89
-628.58
-659.61
-671.44
-658.51
-617.35
-547.87
-453.89
-342.92
-225.23
-112.10
-13.71
62.94
115.41
146.30
162.14
171.13
180.12
192.57
207.93
223.06
234.71
241.98
247.52
256.44
273.58
300.17
331.87
359.65
373.23
365.45
335.57
289.58
237.26
188.06
147.46
116.06
91.07
69.03
47.94
27.72
9.10
-7.85
-24.31
-42.01
-62.13
-84.27
-106.23
-124.76
-136.91
-141.39
-139.33
-134.08
-129.87
-130.14
-136.03
-145.70
-155.01
-159.11
-154.45
-140.20
-118.63
-94.16
-71.72
-55.16
-45.85
-42.46
-41.57
-39.02
-31.31
-16.72
4.56
30.82
59.63
88.49
114.88
136.31
150.34
155.37
151.64
141.82
130.36
121.39
116.68
114.63
111.51
103.90
90.96
74.68
58.26
43.53
29.40
12.51
-10.34
-39.65
-72.20
-102.50
-125.39
-138.40
-142.27
-139.72
-133.43
-124.78
-113.79
-100.14
-84.37
-68.40
-54.98
-46.61
-44.37
-47.52
-53.85
-60.73
-66.04
-68.70
-68.58
-66.14
-61.93
-56.35
-49.73
-42.45
-35.10
-28.50
-23.40
-20.32
-19.26
-19.81
-21.27
-23.01
-24.59
-25.92
-27.18
-28.73
-31.03
-34.50
-39.29
-45.10
-51.00
-55.62
-57.47
-55.48
-49.29
-39.40
-26.86
-12.90
1.39
15.11
27.42
37.54
44.57
48.06
48.09
45.43
41.36
37.18
33.77
31.54
30.36
29.92
29.96
30.32
30.95
31.77
32.55
32.94
32.55
31.18
28.78
25.46
21.43
16.90
12.09
7.12
2.00
-3.35
-9.12
-15.42
-22.15
-28.76
-34.23
-37.20
-36.41
-31.15
-21.59
-8.88
5.24
18.91
30.61
39.42
45.03
47.67
47.81
46.17
43.50
40.44
37.52
34.99
32.92
31.33
30.31
29.94
30.27
31.08
31.90
32.15
31.32
29.25
26.12
22.43
18.65
15.01
11.39
7.40
2.69
-3.09
-9.91
-17.53
-25.45
-32.88
-38.79
-42.08
-41.72
-36.96
-27.89
-15.31
-0.69
14.08
27.32
37.85
45.23
49.68
51.85
52.38
51.75
50.13
47.60
44.23
40.32
36.31
32.69
29.78
27.61
25.98
24.51
22.82
20.64
17.87
14.51
10.73
6.70
2.63
-1.30
-4.94
-8.26
-11.25
-14.09
-17.05
-20.42
-24.27
-28.35
-31.97
-34.05
-33.37
-29.07
-20.92
-9.53
3.68
17.05
29.01
38.56
45.34
49.44
51.33
51.41
50.01
47.41
43.86
39.82
35.82
32.42
30.12
29.17
29.50
30.80
32.55
34.13
35.04
34.96
33.82
31.79
29.29
26.77
24.60
22.89
21.45
19.88
17.63
14.26
9.53
3.58
-3.13
-9.79
-15.39
-18.96
-19.67
-17.08
-11.35
-3.08
6.66
16.75
26.21
34.33
40.77
45.48
48.63
50.53
51.64
52.27
52.64
52.80
52.64
51.98
50.70
48.89
46.76
44.53
42.35
40.18
37.82
34.94
31.29
26.73
21.38
15.49
9.51
3.77
-1.54
-6.43
-11.27
-16.55
-22.82
-30.29
-38.72
-47.30
-54.80
-59.81
-61.21
-58.51
-51.91
-42.47
-31.55
-20.64
-10.90
-3.07
2.45
5.59
6.43
5.29
2.59
-0.94
-4.45
-7.17
-8.50
-8.24
-6.54
-3.79
-0.36
3.25
6.62
9.30
10.78
10.70
8.98
5.90
2.11
-1.70
-5.17
-8.28
-11.31
-14.64
-18.38
-22.43
-26.53
-30.43
-33.99
-37.12
-39.59
-40.88
-40.31
-37.21
-31.45
-23.48
-14.27
-5.00
3.37
10.34
15.78
19.71
22.27
23.47
23.37
22.23
20.47
18.62
17.13
16.24
15.95
16.20
16.86
17.87
19.21
20.78
22.44
24.02
25.32
26.08
26.08
25.03
22.83
19.58
15.71
11.82
8.40
5.51
2.77
-0.56
-5.12
-11.12
-18.04
-24.68
-29.58
-31.53
-29.92
-24.99
-17.63
-9.08
-0.57
7.02
13.28
18.06
21.39
23.30
23.83
23.22
21.88
20.33
19.03
18.22
17.88
17.79
17.75
17.60
17.23
16.61
15.60
14.04
11.81
8.91
5.56
2.06
-1.35
-4.57
-7.60
-10.58
-13.67
-17.04
-20.80
-25.10
-30.01
-35.53
-41.34
-46.81
-51.09
-53.31
-52.77
-49.34
-43.41
-35.81
-27.54
-19.45
-12.15
-6.00
-1.17
2.21
4.04
4.30
3.25
1.34
-0.75
-2.42
-3.22
-2.95
-1.74
-0.01
1.74
3.16
4.09
4.70
5.26
5.87
6.38
6.34
5.29
3.04
-0.18
-3.89
-7.52
-10.74
-13.52
-16.16
-18.97
-22.30
-26.21
-30.57
-34.98
-38.68
-40.75
-40.35
-37.01
-30.85
-22.52
-12.91
-2.95
6.60
15.22
22.51
28.10
31.72
33.26
32.91
31.26
29.08
27.21
26.15
26.03
26.51
27.07
27.25
26.83
25.88
24.56
22.92
20.87
18.17
14.67
10.53
6.11
1.92
-1.62
-4.32
-6.26
-7.65
-8.77
-9.92
-11.36
-13.36
-16.05
-19.33
-22.74
-25.56
-26.99
-26.52
-24.12
-20.30
-15.97
-11.99
-9.04
-7.43
-7.16
-8.04
-9.77
-12.07
-14.60
-17.00
-18.96
-20.17
-20.40
-19.56
-17.63
-14.77
-11.30
-7.71
-4.49
-2.03
-0.42
0.48
0.95
1.13
1.12
0.80
0.12
-0.93
-2.30
-3.97
-5.93
-8.18
-10.78
-13.76
-17.13
-20.85
-24.78
-28.60
-31.65
-33.14
-32.31
-28.81
-22.89
-15.37
-7.37
0.10
6.34
11.09
14.31
16.14
16.77
16.47
15.59
14.59
13.91
13.84
14.55
15.97
17.96
20.26
22.54
24.44
25.72
26.36
26.49
26.33
26.02
25.51
24.62
23.21
21.27
19.02
16.77
14.70
12.82
10.90
8.61
5.73
2.16
-1.99
-6.40
-10.61
-14.09
-16.20
-16.40
-14.37
-10.08
-3.91
3.51
11.26
18.49
24.52
29.03
32.09
33.96
35.08
35.76
36.25
36.67
37.09
37.57
38.18
38.86
39.45
39.64
39.08
37.48
34.87
31.44
27.59
23.74
20.06
16.41
12.41
7.64
1.93
-4.53
-11.26
-17.73
-23.73
-29.47
-35.44
-42.07
-49.26
-56.26
-61.84
-64.84
-64.61
-61.28
-55.59
-48.64
-41.39
-34.50
-28.41
-23.40
-19.73
-17.55
-16.88
-17.48
-18.82
-20.34
-21.47
-21.90
-21.55
-20.55
-19.13
-17.50
-15.77
-13.93
-12.00
-10.02
-8.29
-7.12
-6.75
-7.18
-8.11
-9.12
-9.79
-9.95
-9.66
-9.17
-8.61
-8.08
-7.59
-7.33
-7.63
-8.84
-10.91
-13.20
-14.52
-13.52
-9.21
-1.58
8.49
19.56
30.39
40.55
50.54
61.48
74.52
90.25
108.71
129.48
152.09
176.00
200.40
223.78
243.77
257.43
262.05
256.23
240.17
215.66
185.35
151.87
117.41
83.59
51.84
23.51
-0.24
-18.90
-32.95
-43.78
-53.04
-61.79
-70.13
-77.44
-83.26
-87.92
-92.83
-99.82
-110.08
-123.55
-138.73
-153.36
-165.42
-173.75
-178.30
-179.61
-178.50
-175.66
-171.61
-166.66
-160.84
-154.01
-145.92
-136.52
-126.06
-115.19
-104.66
-95.09
-86.67
-79.15
-72.06
-65.05
-58.03
-51.24
-45.03
-39.61
-34.93
-30.80
-27.09
-23.89
-21.42
-20.03
-19.78
-20.47
-21.69
-23.00
-24.33
-25.89
-28.08
-31.13
-34.78
-38.25
-40.41
-40.26
-37.22
-31.48
-23.71
-14.94
-6.22
1.60
7.96
12.65
15.66
17.22
17.69
17.54
17.15
16.76
16.41
16.06
15.66
15.20
14.88
14.86
15.26
16.04
16.96
17.62
17.62
16.63
14.54
11.55
8.06
4.52
1.23
-1.72
-4.42
-7.19
-10.35
-14.11
-18.48
-23.27
-28.11
-32.46
-35.67
-37.07
-36.14
-32.60
-26.54
-18.39
-8.91
0.96
10.23
18.09
24.12
28.29
30.94
32.58
33.62
34.36
34.93
35.44
36.06
36.95
38.27
40.02
41.99
43.95
45.73
47.27
48.59
49.64
50.22
50.02
48.88
46.87
44.37
41.94
40.09
39.04
38.66
38.47
37.92
36.51
33.78
29.54
23.92
17.39
10.78
5.13
1.39
0.26
1.94
6.06
11.86
18.33
24.43
29.40
32.72
34.32
34.34
33.09
30.81
27.75
24.04
19.88
15.62
11.67
8.46
6.21
4.92
4.31
4.06
3.81
3.26
2.27
0.74
-1.39
-4.13
-7.43
-11.13
-15.02
-18.92
-22.75
-26.47
-30.22
-34.19
-38.55
-43.42
-48.55
-53.41
-57.14
-58.80
-57.63
-53.33
-46.20
-37.03
-26.97
-17.09
-8.25
-0.95
4.76
9.02
12.13
14.34
15.87
16.85
17.33
17.38
17.13
16.80
16.51
16.37
16.37
16.49
16.73
17.12
17.69
18.42
19.16
19.62
19.50
18.65
17.14
15.39
14.02
13.59
14.39
16.30
18.82
21.18
22.74
23.11
22.53
21.84
22.53
26.32
34.70
48.33
66.41
86.72
106.00
120.79
128.43
127.69
118.84
103.45
83.73
62.01
40.31
20.06
2.16
-12.95
-25.04
-33.95
-39.62
-42.16
-42.12
-40.54
-38.76
-38.12
-39.51
-43.21
-48.80
-55.60
-62.79
-69.72
-76.05
-81.69
-86.65
-90.92
-94.42
-96.81
-97.38
-94.93
-87.83
-74.28
-53.04
-24.14
10.42
46.55
78.86
101.94
111.92
107.47
90.09
63.44
32.22
1.08
-26.29
-47.42
-61.24
-67.90
-68.50
-64.72
-58.51
-51.80
-46.28
-43.14
-42.83
-45.04
-48.74
-52.33
-54.36
-53.93
-51.01
-46.32
-41.07
-36.31
-32.74
-30.42
-28.94
-27.78
-26.57
-25.20
-23.83
-22.84
-22.46
-22.88
-24.00
-25.51
-27.02
-27.98
-27.88
-26.23
-22.77
-17.43
-10.44
-2.21
6.76
15.75
24.03
30.77
35.28
37.24
36.96
35.30
33.43
32.32
32.28
32.96
33.67
33.81
33.32
32.75
32.95
34.64
38.01
42.50
47.14
50.88
53.11
53.79
53.48
53.00
53.06
54.30
57.25
62.53
70.62
81.60
94.83
109.01
122.77
135.39
147.57
161.27
178.93
201.95
229.41
257.67
281.35
295.11
295.39
281.53
255.33
219.77
177.43
130.12
79.67
29.54
-14.58
-45.93
-59.22
-53.50
-32.87
-5.06
21.59
40.96
50.31
49.41
38.93
19.30
-9.16
-45.24
-86.08
-127.29
-164.20
-193.26
-213.06
-223.98
-227.52
-225.65
-220.06
-212.00
-202.24
-191.05
-178.39
-164.21
-148.54
-131.64
-114.15
-96.82
-80.54
-66.06
-53.92
-44.37
-37.29
-32.30
-28.89
-26.63
-25.05
-23.83
-22.69
-21.39
-19.78
-17.73
-15.28
-12.60
-10.08
-8.05
-6.76
-6.17
-6.03
-6.01
-5.77
-5.22
-4.58
-4.24
-4.61
-5.92
-8.03
-10.43
-12.49
-13.56
-13.21
-11.33
-8.02
-3.43
2.45
9.78
18.79
29.33
40.91
52.58
63.25
71.99
78.26
81.93
83.23
82.84
81.79
81.62
84.08
90.44
100.53
112.08
120.98
122.54
113.25
92.11
60.96
23.64
-15.66
-53.62
-88.07
-117.30
-139.31
-151.83
-153.36
-144.52
-128.33
-109.17
-90.44
-72.71
-53.59
-29.47
1.77
39.13
78.82
116.38
148.90
175.84
197.90
214.74
223.72
220.61
202.05
167.91
122.27
71.82
23.05
-20.26
-57.73
-91.03
-121.53
-148.65
-170.06
-183.17
-187.12
-183.49
-175.16
-164.20
-150.35
-131.18
-104.62
-71.59
-37.45
-10.59
1.13
-5.87
-29.22
-61.96
-95.82
-124.59
-145.21
-156.86
-159.21
-151.47
-133.58
-107.91
-79.99
-57.09
-45.05
-45.23
-53.70
-63.59
-68.61
-66.12
-57.77
-47.54
-38.80
-32.46
-27.03
-20.20
-10.75
0.89
13.17
24.62
34.62
43.24
50.45
55.34
56.41
52.27
43.16
31.47
21.09
15.53
15.86
19.93
23.31
21.90
14.35
2.96
-7.77
-13.91
-14.46
-11.86
-10.26
-12.92
-20.20
-29.64
-37.61
-41.41
-40.55
-36.18
-29.73
-21.57
-10.73
4.73
26.35
54.57
88.18
124.39
159.68
190.48
214.09
229.26
236.60
238.18
237.02
236.04
236.97
239.94
243.34
244.42
240.07
227.89
206.65
176.73
140.14
100.23
61.09
26.44
-1.36
-22.08
-37.45
-50.33
-63.21
-77.30
-92.34
-107.16
-120.74
-132.65
-142.93
-151.47
-157.58
-159.95
-157.42
-149.79
-138.30
-125.35
-113.65
-105.14
-100.25
-97.98
-96.38
-93.49
-88.12
-80.15
-70.45
-60.45
-51.71
-45.50
-42.79
-44.05
-49.12
-57.01
-65.86
-73.22
-76.72
-74.79
-67.20
-55.10
-40.49
-25.53
-11.95
-0.71
7.77
13.47
16.54
17.22
15.91
13.20
9.82
6.35
3.18
0.39
-2.08
-4.41
-6.65
-8.82
-10.89
-12.76
-14.36
-15.56
-16.18
-16.05
-15.20
-13.72
-11.97
-10.35
-9.27
-9.03
-9.80
-11.59
-14.23
-17.35
-20.28
-22.23
-22.39
-20.32
-16.11
-10.49
-4.63
0.20
3.18
4.25
4.16
4.03
4.90
7.19
10.45
13.77
16.18
17.16
16.66
14.95
12.32
8.85
4.55
-0.43
-5.60
-10.17
-13.35
-14.73
-14.45
-13.06
-11.39
-10.20
-9.93
-10.83
-12.91
-16.13
-20.23
-24.86
-29.34
-32.82
-34.39
-33.39
-29.64
-23.62
-16.46
-9.57
-4.27
-1.34
-0.87
-2.34
-4.76
-7.02
-8.11
-7.40
-4.74
-0.51
4.59
9.67
14.00
17.00
18.28
17.71
15.28
11.08
5.46
-1.08
-7.86
-14.19
-19.45
-23.31
-25.77
-27.19
-28.17
-29.39
-31.34
-34.11
-37.40
-40.61
-43.15
-44.63
-44.91
-43.92
-41.60
-37.71
-32.07
-24.64
-15.81
-6.39
2.57
10.07
15.50
18.75
20.10
20.15
19.53
18.67
17.66
16.27
14.26
11.56
8.47
5.55
3.35
2.13
1.66
1.36
0.62
-0.79
-2.78
-4.94
-6.87
-8.38
-9.66
-11.01
-12.76
-15.06
-17.90
-21.20
-24.85
-28.71
-32.47
-35.60
-37.34
-36.91
-33.76
-27.87
-19.90
-10.98
-2.39
4.83
10.29
14.15
16.89
18.95
20.51
21.44
21.54
20.65
18.80
16.31
13.56
11.05
9.25
8.49
8.81
9.95
11.38
12.42
12.63
11.79
9.96
7.40
4.34
1.03
-2.33
-5.50
-8.30
-10.67
-12.81
-15.09
-18.00
-21.87
-26.62
-31.70
-36.17
-38.98
-39.23
-36.40
-30.55
-22.36
-12.98
-3.71
4.36
10.61
14.97
17.81
19.66
20.96
21.90
22.42
22.36
21.75
20.77
19.80
19.16
18.92
18.89
18.63
17.76
16.04
13.55
10.53
7.32
4.00
0.46
-3.48
-7.84
-12.37
-16.66
-20.33
-23.37
-26.14
-29.23
-33.02
-37.36
-41.51
-44.31
-44.60
-41.80
-35.86
-27.38
-17.27
-6.43
4.22
13.92
21.99
27.95
31.59
33.03
32.67
31.16
29.11
27.01
25.16
23.66
22.44
21.35
20.18
18.82
17.19
15.27
13.08
10.61
7.93
5.06
2.13
-0.72
-3.30
-5.49
-7.31
-8.97
-10.86
-13.38
-16.97
-21.75
-27.66
-34.16
-40.38
-45.28
-47.78
-47.15
-43.08
-35.85
-26.15
-15.08
-3.80
6.56
15.14
21.51
25.62
27.80
28.49
28.23
27.34
26.13
24.81
23.65
22.88
22.57
22.66
22.82
22.74
22.16
21.05
19.56
17.93
16.22
14.28
11.89
8.76
4.88
0.46
-4.16
-8.65
-12.80
-16.76
-20.89
-25.57
-30.98
-36.96
-42.90
-47.87
-50.92
-51.22
-48.25
-41.98
-32.84
-21.70
-9.61
2.26
12.93
21.59
27.80
31.45
32.76
32.20
30.39
28.06
25.78
23.84
22.21
20.71
19.18
17.61
16.18
15.15
14.71
14.79
15.16
15.37
15.06
13.93
11.79
8.74
5.02
0.94
-3.24
-7.36
-11.51
-15.88
-20.78
-26.43
-32.87
-39.86
-46.86
-53.00
-57.10
-58.07
-55.20
-48.40
-38.40
-26.40
-13.83
-1.96
8.30
16.54
22.64
26.72
29.06
29.99
30.06
29.80
29.70
30.11
31.14
32.67
34.41
35.96
37.06
37.48
37.10
35.85
33.65
30.42
26.19
21.20
15.77
10.36
5.27
0.54
-3.96
-8.51
-13.27
-18.21
-23.25
-28.40
-33.85
-39.88
-46.44
-52.84
-57.76
-59.66
-57.42
-50.81
-40.69
-28.51
-15.73
-3.30
8.38
19.10
28.48
35.82
40.36
41.58
39.78
35.94
31.37
27.29
24.31
22.49
21.46
20.75
20.08
19.36
18.67
18.00
17.26
16.18
14.45
11.98
8.79
5.00
0.83
-3.63
-8.28
-13.01
-17.83
-22.90
-28.43
-34.63
-41.60
-48.88
-55.61
-60.45
-62.03
-59.41
-52.37
-41.51
-27.98
-13.22
1.47
14.91
26.26
34.93
40.58
43.25
43.32
41.51
38.74
35.90
33.56
31.88
30.69
29.66
28.51
27.13
25.58
23.96
22.33
20.65
18.78
16.66
14.27
11.74
9.11
6.31
3.04
-1.01
-5.97
-11.69
-17.82
-24.11
-30.55
-37.36
-44.62
-51.87
-58.01
-61.46
-60.86
-55.70
-46.47
-34.37
-20.81
-6.93
6.61
19.27
30.40
39.12
44.63
46.61
45.43
42.10
37.79
33.49
29.70
26.55
23.94
21.76
20.08
19.02
18.63
18.79
19.17
19.28
18.62
16.74
13.50
9.11
4.05
-1.15
-6.10
-10.83
-15.76
-21.50
-28.61
-37.25
-46.99
-56.90
-65.51
-71.20
-72.49
-68.47
-59.06
-45.18
-28.44
-10.82
5.87
20.34
31.82
40.03
44.87
46.54
45.45
42.28
37.92
33.33
29.28
26.23
24.17
22.85
21.86
20.87
19.78
18.68
17.70
16.81
15.70
13.84
10.78
6.40
0.97
-4.87
-10.49
-15.59
-20.35
-25.38
-31.36
-38.79
-47.66
-57.22
-66.11
-72.52
-74.71
-71.50
-62.69
-49.12
-32.37
-14.31
3.30
19.18
32.45
42.70
49.69
53.51
54.54
53.45
51.11
48.32
45.60
43.16
41.02
39.16
37.63
36.55
36.01
35.85
35.77
35.32
34.01
31.47
27.52
22.25
15.90
8.91
1.74
-5.25
-11.94
-18.54
-25.42
-33.01
-41.53
-50.98
-61.04
-70.91
-79.38
-84.84
-85.70
-80.83
-70.12
-54.55
-36.00
-16.64
1.63
17.61
30.69
40.72
47.83
52.24
54.31
54.66
54.04
53.11
52.34
51.91
51.67
51.39
50.82
49.80
48.32
46.44
44.32
42.00
39.46
36.46
32.64
27.70
21.49
14.25
6.49
-1.06
-7.82
-13.58
-18.64
-23.68
-29.55
-36.89
-45.88
-55.93
-65.77
-73.60
-77.58
-76.28
-69.04
-56.23
-39.08
-19.38
1.00
20.44
37.75
52.04
62.68
69.24
71.48
69.49
64.10
56.56
48.55
41.66
36.84
34.24
33.20
32.80
32.23
31.22
29.86
28.36
26.66
24.29
20.52
14.87
7.43
-0.90
-8.85
-15.29
-19.77
-22.77
-25.47
-29.28
-35.19
-43.52
-53.64
-64.21
-73.50
-79.67
-81.10
-76.79
-66.48
-50.93
-31.83
-11.38
8.19
25.26
39.00
49.32
56.43
60.57
61.87
60.51
56.93
52.02
46.89
42.56
39.56
37.81
36.80
35.95
35.03
34.15
33.61
33.47
33.37
32.51
30.11
25.69
19.41
11.95
4.11
-3.46
-10.55
-17.24
-23.73
-30.15
-36.69
-43.60
-51.33
-60.30
-70.46
-80.81
-89.29
-93.31
-90.72
-80.64
-63.91
-42.90
-20.62
0.19
17.79
31.67
42.21
50.11
55.97
60.04
62.23
62.48
60.93
58.09
54.71
51.63
49.34
47.98
47.26
46.78
46.21
45.47
44.63
43.68
42.46
40.51
37.34
32.49
25.92
17.97
9.32
0.70
-7.28
-14.29
-20.26
-25.40
-30.08
-34.80
-40.08
-46.31
-53.41
-60.77
-67.12
-70.82
-70.29
-64.53
-53.46
-37.97
-19.76
-0.88
16.78
31.85
43.56
51.78
56.69
58.69
58.20
55.62
51.47
46.40
41.18
36.44
32.62
29.73
27.54
25.74
24.11
22.64
21.40
20.38
19.31
17.72
15.09
11.04
5.62
-0.79
-7.51
-13.92
-19.59
-24.41
-28.60
-32.71
-37.40
-43.07
-49.70
-56.54
-62.22
-64.99
-63.36
-56.58
-45.00
-30.01
-13.48
2.68
16.99
28.47
36.70
41.62
43.49
42.71
39.84
35.58
30.59
25.53
21.06
17.78
16.12
16.20
17.66
19.73
21.50
22.11
21.11
18.52
14.67
10.07
5.15
0.17
-4.83
-9.95
-15.41
-21.36
-27.85
-34.95
-42.70
-50.92
-59.03
-66.04
-70.44
-70.74
-65.87
-55.71
-41.26
-24.28
-6.87
9.19
22.69
33.10
40.37
44.78
46.71
46.63
45.00
42.30
38.90
35.11
31.26
27.68
24.63
22.24
20.41
18.84
17.11
14.82
11.69
7.62
2.70
-2.85
-8.75
-14.73
-20.58
-26.24
-31.76
-37.28
-43.04
-49.32
-56.26
-63.60
-70.55
-75.74
-77.40
-74.07
-65.08
-50.93
-33.34
-14.61
2.99
17.97
29.71
38.34
44.41
48.32
50.37
50.66
49.37
46.79
43.42
39.81
36.38
33.33
30.54
27.82
24.95
21.98
19.11
16.56
14.30
12.03
9.22
5.39
0.38
-5.53
-11.68
-17.46
-22.64
-27.50
-32.83
-39.43
-47.83
-57.71
-68.00
-76.96
-82.65
-83.57
-78.91
-68.88
-54.44
-37.03
-18.28
0.27
17.25
31.61
42.58
49.91
53.71
54.52
53.06
50.14
46.45
42.51
38.72
35.31
32.36
29.88
27.83
26.22
25.05
24.36
24.04
23.81
23.14
21.45
18.30
13.52
7.39
0.41
-6.76
-13.57
-19.74
-25.41
-31.02
-37.22
-44.52
-53.06
-62.43
-71.39
-78.24
-81.14
-78.64
-70.19
-56.34
-38.63
-19.22
-0.31
16.42
29.98
40.04
46.82
50.70
52.17
51.62
49.53
46.45
43.10
40.17
38.09
36.87
36.12
35.27
33.96
32.21
30.43
29.09
28.32
27.73
26.50
23.78
19.10
12.68
5.29
-2.11
-8.74
-14.42
-19.50
-24.65
-30.61
-37.75
-46.04
-54.95
-63.58
-70.76
-75.14
-75.46
-70.83
-61.02
-46.64
-29.11
-10.40
7.45
22.86
34.90
43.45
48.79
51.37
51.59
49.73
46.15
41.40
36.29
31.72
28.40
26.58
25.93
25.91
26.01
26.12
26.51
27.57
29.34
31.28
32.32
31.22
27.22
20.38
11.67
2.47
-5.98
-13.05
-18.92
-24.25
-29.95
-36.65
-44.66
-53.80
-63.50
-72.79
-80.29
-84.43
-83.73
-77.39
-65.66
-49.82
-31.85
-13.72
3.10
17.88
30.46
40.85
48.83
53.95
55.84
54.50
50.61
45.33
40.10
36.02
33.65
32.74
32.57
32.35
31.57
30.25
28.77
27.62
26.94
26.42
25.35
22.93
18.64
12.47
5.03
-2.70
-9.74
-15.53
-19.99
-23.60
-27.10
-31.28
-36.72
-43.58
-51.39
-59.11
-65.28
-68.29
-66.83
-60.37
-49.31
-34.88
-18.81
-2.77
11.93
24.41
34.21
41.06
44.82
45.60
43.87
40.47
36.42
32.71
29.92
28.14
27.07
26.30
25.57
24.84
24.24
23.78
23.30
22.40
20.83
18.40
15.17
11.26
6.80
1.96
-3.11
-8.11
-12.76
-16.87
-20.60
-24.50
-29.27
-35.55
-43.52
-52.74
-62.09
-70.01
-74.80
-75.15
-70.39
-60.64
-46.82
-30.33
-12.79
4.24
19.29
31.34
39.74
44.53
46.24
45.68
43.66
40.69
37.04
32.88
28.56
24.52
21.27
19.11
17.99
17.58
17.51
17.48
17.31
16.83
15.73
13.60
10.05
4.92
-1.58
-8.91
-16.30
-23.09
-28.90
-33.85
-38.46
-43.37
-49.06
-55.33
-61.32
-65.53
-66.38
-62.72
-54.29
-41.85
-26.90
-11.25
3.52
16.29
26.51
33.89
38.28
39.58
37.89
33.79
28.30
22.85
18.67
16.49
16.19
16.98
17.92
18.28
17.84
16.72
15.30
13.75
11.99
9.64
6.30
1.74
-3.99
-10.53
-17.32
-23.77
-29.43
-34.22
-38.36
-42.39
-46.87
-52.32
-58.80
-65.89
-72.49
-77.10
-78.09
-74.18
-64.95
-50.90
-33.53
-14.84
3.08
18.52
30.35
38.20
42.33
43.47
42.58
40.64
38.48
36.60
35.19
34.17
33.38
32.71
32.08
31.44
30.80
30.11
29.25
28.04
26.24
23.73
20.41
16.30
11.50
6.14
0.43
-5.39
-11.03
-16.30
-21.24
-26.25
-32.04
-39.23
-47.96
-57.43
-66.03
-71.63
-72.36
-67.23
-56.44
-41.34
-23.93
-6.30
9.84
23.43
34.07
41.71
46.48
48.62
48.34
46.11
42.60
38.69
35.24
32.76
31.15
29.95
28.62
26.81
24.57
22.25
20.10
18.09
15.92
13.07
9.23
4.38
-1.24
-7.20
-13.07
-18.65
-23.92
-29.11
-34.60
-40.79
-47.93
-55.89
-63.94
-70.80
-74.88
-74.71
-69.30
-58.68
-43.85
-26.70
-9.55
5.41
16.60
23.37
26.13
26.16
25.12
24.66
25.84
28.87
33.16
37.70
41.58
44.47
46.59
48.44
50.42
52.30
53.36
52.63
49.43
43.72
36.13
27.56
18.70
9.79
0.60
-9.29
-20.08
-31.62
-43.54
-55.23
-66.09
-75.40
-82.24
-85.50
-84.03
-77.08
-64.66
-47.73
-27.92
-7.29
12.28
29.31
42.86
52.60
58.50
60.92
60.43
57.75
53.44
48.07
41.94
35.41
28.94
23.10
18.34
14.88
12.45
10.34
7.82
4.34
-0.29
-5.84
-11.97
-18.38
-24.87
-31.39
-37.92
-44.51
-51.25
-58.51
-66.74
-76.33
-87.12
-98.10
-107.48
-113.10
-113.16
-106.81
-94.68
-78.47
-60.75
-43.98
-29.99
-19.67
-12.87
-8.53
-5.15
-1.15
4.78
13.28
24.23
36.89
50.04
62.43
73.01
81.09
86.38
88.93
88.93
86.70
82.64
77.25
71.19
65.19
59.96
55.85
52.85
50.52
48.27
45.67
42.58
39.19
35.64
31.92
27.76
22.73
16.58
9.42
1.72
-5.95
-13.19
-19.90
-26.38
-33.04
-40.31
-48.32
-56.73
-64.75
-71.04
-74.16
-72.84
-66.45
-55.21
-40.22
-23.16
-5.90
9.91
23.18
33.34
40.35
44.46
46.11
45.71
43.77
40.80
37.39
34.20
31.74
30.25
29.63
29.54
29.58
29.46
28.98
28.01
26.33
23.71
19.90
14.87
8.74
1.77
-5.80
-13.91
-22.57
-31.73
-41.23
-50.81
-60.21
-69.16
-77.27
-83.89
-88.03
-88.57
-84.61
-75.88
-62.89
-46.66
-28.25
-8.38
12.56
34.21
55.72
75.60
92.01
103.45
109.32
110.22
107.48
102.67
96.77
90.06
82.21
72.91
62.34
51.29
40.89
32.14
25.49
20.60
16.61
12.41
7.22
0.85
-6.33
-13.52
-19.93
-25.04
-28.80
-31.58
-34.12
-37.23
-41.75
-48.33
-57.09
-67.55
-78.45
-87.93
-93.91
-94.75
-89.74
-79.32
-65.02
-48.77
-32.49
-17.63
-5.14
4.44
10.88
14.19
14.77
13.41
11.14
8.86
6.95
5.27
3.13
0.09
-3.75
-7.57
-10.06
-9.94
-6.56
-0.14
8.49
18.01
27.35
35.59
42.01
45.84
46.40
43.18
36.36
26.93
16.37
6.12
-3.30
-12.56
-23.17
-36.40
-52.43
-69.92
-86.38
-99.16
-106.13
-106.07
-98.48
-83.18
-60.42
-31.29
2.11
36.71
69.24
97.33
120.20
138.38
152.76
163.14
167.87
164.44
150.82
126.86
94.73
58.33
22.05
-10.57
-37.36
-57.59
-71.63
-80.68
-86.68
-91.91
-98.13
-105.66
-112.85
-116.75
-114.71
-106.14
-93.20
-79.97
-70.43
-66.62
-67.98
-72.01
-75.94
-77.89
-77.23
-73.94
-67.78
-58.06
-44.08
-26.02
-5.36
15.50
34.03
48.62
59.15
66.55
72.22
77.12
81.40
84.58
86.01
85.31
82.73
79.06
75.41
72.82
72.12
73.90
78.63
86.54
97.25
109.35
119.89
124.65
119.14
100.74
70.49
33.51
-2.64
-31.28
-49.55
-59.55
-66.61
-75.99
-89.77
-106.02
-120.06
-127.42
-126.01
-116.79
-102.66
-86.66
-70.75
-55.68
-41.71
-29.12
-18.61
-11.03
-6.80
-5.62
-6.16
-6.25
-3.62
3.09
13.68
26.19
37.86
46.39
50.91
52.20
51.93
51.65
52.14
53.42
55.20
57.20
59.19
60.76
61.13
59.41
55.36
49.61
43.48
38.18
34.05
30.47
26.56
22.15
18.22
16.61
19.04
26.09
37.06
50.35
64.25
77.44
89.33
99.48
107.23
111.26
109.76
101.23
85.47
64.10
40.43
18.34
0.77
-11.56
-20.34
-28.50
-38.38
-50.59
-63.66
-75.27
-83.72
-89.15
-93.34
-98.67
-106.63
-116.85
-127.53
-136.35
-141.91
-144.52
-146.10
-149.11
-155.44
-165.68
-178.83
-192.99
-205.93
-215.65
-220.27
-217.98
-207.00
-186.49
-157.43
-122.89
-87.21
-54.34
-26.42
-3.10
17.87
39.06
61.81
85.60
108.27
127.07
139.79
145.23
143.29
134.85
121.70
106.53
92.57
82.85
79.17
81.34
87.21
93.47
96.92
95.83
90.50
82.88
75.30
69.02
63.70
57.79
49.82
39.80
29.52
21.92
19.76
24.21
34.70
49.36
66.06
83.32
100.53
117.35
133.12
146.67
156.46
161.20
160.48
154.80
145.48
134.15
122.48
111.72
102.68
95.58
90.06
85.32
80.39
74.41
66.95
58.04
48.00
37.33
26.33
15.25
4.28
-6.34
-16.41
-25.88
-35.17
-45.08
-56.51
-69.96
-85.04
-100.43
-114.53
-126.06
-134.58
-140.42
-143.95
-144.94
-142.66
-136.53
-126.85
-115.30
-104.11
-94.86
-87.54
-80.55
-71.81
-60.23
-46.39
-32.15
-19.52
-9.46
-1.63
5.18
12.16
20.01
28.66
37.73
46.84
55.45
62.82
67.88
69.59
67.44
61.93
54.59
47.46
42.45
40.60
41.97
45.68
50.32
54.52
57.25
58.16
57.84
57.78
60.11
66.89
79.17
96.27
115.65
133.68
146.92
153.50
153.77
149.84
144.78
141.35
141.26
145.10
152.37
161.32
169.00
171.40
164.09
143.77
109.64
64.04
11.98
-40.68
-89.08
-130.63
-164.92
-192.92
-215.59
-233.55
-247.36
-258.13
-268.00
-279.33
-293.40
-309.49
-324.90
-335.98
-339.72
-334.88
-321.85
-302.00
-276.81
-247.31
-214.36
-179.10
-142.84
-107.06
-73.32
-42.69
-16.19
5.27
20.90
30.33
34.06
33.69
31.51
29.82
30.26
33.21
37.92
43.02
47.30
50.32
52.55
54.94
58.05
61.64
64.66
66.03
65.52
64.15
63.72
65.77
70.45
76.13
80.03
79.32
72.49
60.08
44.42
28.87
16.45
8.90
6.30
7.39
10.40
13.97
17.46
20.78
23.82
25.86
25.70
22.13
14.88
4.94
-5.48
-13.85
-18.44
-18.87
-16.25
-12.28
-8.44
-5.31
-2.65
0.17
3.43
6.80
9.55
10.82
10.18
7.61
3.37
-2.21
-8.85
-16.24
-23.97
-31.47
-38.33
-44.41
-49.96
-55.46
-61.05
-66.26
-69.83
-70.34
-66.67
-58.64
-47.04
-33.36
-19.17
-5.72
6.10
15.83
23.11
27.90
30.42
31.38
31.66
31.93
32.31
32.18
30.72
27.43
22.64
17.34
12.74
9.56
7.75
6.67
5.51
3.90
1.90
-0.20
-2.38
-5.16
-9.34
-15.60
-23.94
-33.60
-43.36
-52.38
-60.55
-68.49
-77.18
-87.13
-97.85
-107.83
-115.04
-117.64
-114.82
-107.10
-95.93
-83.20
-70.28
-57.66
-44.94
-31.40
-16.68
-1.37
13.17
25.58
34.99
41.43
45.43
47.43
47.59
46.03
43.40
41.22
41.54
45.83
54.28
65.32
76.32
84.86
89.70
91.02
89.94
87.47
83.97
79.20
72.76
64.61
55.35
45.88
36.95
28.80
21.16
13.61
6.15
-0.48
-4.82
-5.31
-0.96
7.98
19.98
32.68
43.57
50.99
54.41
54.46
52.48
49.73
47.04
44.58
42.16
39.70
37.44
35.85
35.38
35.95
36.93
37.70
38.12
38.79
40.70
44.39
49.30
53.70
55.61
53.90
49.21
43.65
39.71
38.78
40.20
41.35
38.89
30.41
15.46
-3.95
-24.33
-41.88
-53.78
-58.86
-57.60
-51.43
-42.10
-31.16
-19.87
-9.32
-0.51
5.73
8.96
9.41
8.00
6.07
4.90
5.15
6.66
8.66
10.16
10.44
9.36
7.29
4.80
2.32
-0.04
-2.42
-5.05
-8.00
-11.34
-15.10
-19.50
-24.71
-30.80
-37.60
-44.79
-52.09
-59.41
-66.89
-74.60
-82.23
-88.81
-92.91
-93.14
-88.74
-80.04
-68.24
-54.95
-41.54
-28.67
-16.39
-4.52
6.89
17.36
26.20
32.81
37.06
39.36
40.32
40.56
40.38
39.86
39.03
37.92
36.69
35.47
34.35
33.13
31.53
29.14
25.57
20.66
14.42
7.23
-0.32
-7.45
-13.56
-18.42
-22.32
-25.90
-29.97
-35.19
-41.73
-49.22
-56.73
-62.95
-66.51
-66.21
-61.50
-52.55
-40.35
-26.40
-12.31
0.55
11.27
19.43
24.95
27.95
28.71
27.72
25.68
23.47
21.89
21.43
22.03
23.20
24.23
24.54
23.87
22.37
20.47
18.61
17.16
16.23
15.68
15.12
14.02
11.90
8.32
3.37
-2.61
-8.87
-14.72
-19.77
-24.13
-28.28
-32.78
-37.94
-43.53
-48.80
-52.57
-53.69
-51.32
-45.25
-35.97
-24.56
-12.37
-0.72
9.40
17.41
23.08
26.28
27.06
25.55
22.17
17.75
13.27
9.74
7.90
8.00
9.61
12.10
14.64
16.69
18.10
18.96
19.43
19.50
18.82
16.76
12.84
6.96
-0.37
-8.16
-15.42
-21.48
-26.21
-30.05
-33.61
-37.45
-41.96
-47.26
-53.20
-59.24
-64.35
-67.15
-66.29
-60.92
-51.17
-38.23
-23.87
-9.74
3.05
14.21
23.81
31.86
38.03
41.71
42.39
40.19
36.03
31.26
27.36
25.28
25.23
26.72
28.79
30.45
31.05
30.52
29.18
27.64
26.34
25.23
23.87
21.51
17.57
11.98
5.25
-1.78
-8.26
-13.83
-18.80
-23.87
-29.91
-37.49
-46.60
-56.59
-66.22
-73.87
-77.92
-77.16
-71.09
-60.07
-45.26
-28.28
-10.82
5.60
19.86
31.23
39.35
44.24
46.15
45.67
43.52
40.35
36.71
32.96
29.37
26.14
23.47
21.51
20.46
20.48
21.59
23.63
26.20
28.78
30.74
31.60
31.11
29.24
26.16
22.06
17.12
11.56
5.60
-0.52
-6.66
-12.87
-19.45
-26.72
-34.77
-43.12
-50.60
-55.59
-56.46
-52.18
-42.76
-29.29
-13.67
2.04
16.09
27.51
36.09
42.19
46.37
49.02
50.42
50.70
49.94
48.27
45.86
42.91
39.67
36.38
33.22
30.31
27.67
25.19
22.70
19.97
16.68
12.65
7.79
2.30
-3.42
-8.88
-13.60
-17.42
-20.61
-23.71
-27.44
-32.37
-38.74
-46.40
-54.76
-62.77
-68.98
-71.91
-70.31
-63.55
-51.92
-36.64
-19.60
-2.85
11.85
23.44
31.59
36.43
38.47
38.21
36.11
32.60
28.22
23.56
19.25
15.79
13.39
11.95
11.22
10.96
11.05
11.47
12.15
12.79
12.92
11.91
9.32
5.10
-0.32
-6.17
-11.70
-16.48
-20.66
-24.87
-30.00
-36.71
-45.11
-54.41
-63.04
-69.09
-70.88
-67.48
-59.02
-46.48
-31.43
-15.49
-0.03
13.98
25.86
35.19
41.74
45.48
46.64
45.69
43.18
39.71
35.87
32.17
29.00
26.75
25.54
25.32
25.85
26.74
27.52
27.69
26.87
24.85
21.64
17.52
12.90
8.25
3.88
-0.12
-3.88
-7.70
-11.88
-16.73
-22.49
-29.22
-36.79
-44.65
-51.74
-56.55
-57.51
-53.37
-43.70
-29.19
-11.48
7.21
24.56
38.78
48.80
54.16
54.89
51.33
44.16
34.39
23.38
12.71
3.80
-2.38
-5.55
-6.03
-4.48
-1.59
2.17
6.40
10.74
14.59
17.26
17.98
16.28
12.10
5.87
-1.57
-9.19
-16.12
-21.91
-26.67
-31.11
-36.13
-42.60
-50.83
-60.39
-70.06
-77.98
-82.22
-81.19
-74.26
-61.84
-45.44
-27.19
-9.26
6.68
19.74
29.69
36.54
40.36
41.21
39.33
35.35
30.37
25.62
22.04
19.99
19.15
18.97
18.92
18.76
18.57
18.54
18.67
18.63
17.87
15.83
12.29
7.42
1.72
-4.23
-10.04
-15.59
-21.18
-27.23
-34.17
-42.29
-51.44
-60.93
-69.47
-75.35
-76.81
-72.64
-62.62
-47.67
-29.66
-10.72
7.20
22.73
34.98
43.62
48.61
50.19
48.83
45.19
40.13
34.48
28.97
24.11
20.12
16.92
14.24
11.74
9.00
5.86
2.22
-2.08
-7.17
-13.30
-20.71
-29.47
-39.26
-49.54
-59.67
-69.14
-77.77
-85.63
-93.01
-100.30
-108.02
-116.61
-126.39
-137.25
-148.48
-158.72
-166.28
-169.78
-168.56
-162.88
-153.37
-140.56
-124.52
-105.11
-82.47
-57.49
-31.96
-8.14
11.95
27.21
37.66
44.20
48.03
50.07
50.92
50.90
50.30
49.42
48.34
46.80
44.20
40.00
34.24
27.83
22.46
19.88
20.96
25.19
30.97
36.72
42.10
48.34
57.67
71.87
91.03
113.05
134.60
152.46
164.86
172.24
176.65
180.80
187.30
198.22
215.00
238.19
266.91
298.18
327.13
348.06
356.47
350.70
332.62
306.50
276.80
246.26
215.20
182.30
146.30
107.54
68.20
31.45
0.03
-24.84
-43.49
-57.29
-67.64
-75.60
-81.61
-86.02
-89.49
-93.09
-97.99
-104.91
-113.71
-123.25
-131.93
-138.27
-141.53
-141.95
-140.61
-139.05
-138.58
-139.96
-142.86
-146.03
-147.55
-145.46
-138.41
-126.15
-109.68
-90.79
-71.60
-53.84
-38.55
-26.17
-16.77
-10.31
-6.76
-6.02
-7.67
-11.00
-15.03
-18.78
-21.43
-22.45
-21.77
-19.58
-16.43
-12.93
-9.68
-6.97
-4.68
-2.36
0.63
4.50
8.91
12.88
15.25
15.18
12.81
9.14
5.61
3.38
2.69
2.88
2.86
1.96
0.38
-0.76
0.10
4.38
13.01
26.24
43.82
64.79
87.52
109.62
128.30
141.19
147.06
146.35
140.76
132.48
123.11
113.07
101.76
88.18
71.76
52.67
31.90
10.80
-9.24
-27.06
-41.75
-52.61
-59.21
-61.56
-60.31
-56.78
-52.81
-50.25
-50.54
-54.34
-61.55
-71.57
-83.65
-97.21
-111.84
-127.28
-143.06
-158.33
-171.92
-182.44
-188.59
-189.46
-184.70
-174.48
-159.61
-141.24
-120.71
-99.43
-78.62
-59.27
-42.14
-27.78
-16.63
-8.97
-4.91
-4.03
-5.22
-6.57
-5.88
-1.36
7.58
20.08
34.28
48.05
60.01
69.77
77.69
84.11
88.79
90.82
88.98
82.55
71.66
57.36
41.24
24.87
9.55
-3.80
-14.48
-21.88
-25.48
-24.95
-20.35
-12.14
-1.26
11.22
24.10
36.33
47.00
55.47
61.43
64.97
66.60
67.01
66.87
66.49
65.82
64.58
62.47
59.41
55.52
51.11
46.44
41.71
36.95
32.10
27.01
21.48
15.34
8.45
0.71
-8.00
-17.76
-28.55
-40.18
-52.18
-63.99
-75.15
-85.55
-95.45
-105.10
-114.30
-122.17
-127.24
-128.07
-123.94
-115.24
-103.33
-90.10
-77.33
-66.23
-57.40
-50.96
-46.63
-43.81
-41.56
-38.77
-34.58
-28.70
-21.54
-13.98
-6.95
-0.83
4.79
11.08
19.47
31.04
46.03
63.64
82.17
99.52
113.74
123.52
128.48
129.11
126.40
121.60
115.73
109.41
102.80
95.51
86.65
75.16
60.43
42.74
23.67
5.81
-7.99
-15.55
-16.11
-10.52
-0.75
10.81
22.05
31.46
38.03
41.15
40.61
36.70
30.34
22.99
16.35
11.65
9.37
9.11
9.82
10.46
10.35
9.38
7.90
6.43
5.30
4.59
4.03
3.12
1.37
-1.57
-5.73
-10.92
-16.69
-22.57
-28.28
-34.01
-40.24
-47.50
-56.02
-65.44
-74.68
-82.13
-86.03
-85.02
-78.55
-67.14
-52.15
-35.48
-19.10
-4.54
7.25
15.93
21.65
24.86
26.12
25.93
24.62
22.33
19.07
14.87
9.95
4.77
0.06
-3.45
-5.33
-5.61
-4.77
-3.76
-3.65
-5.46
-9.65
-16.03
-23.70
-31.37
-37.85
-42.41
-45.15
-46.92
-49.14
-53.19
-59.91
-69.18
-79.88
-90.13
-97.83
-101.22
-99.32
-92.24
-81.05
-67.49
-53.45
-40.49
-29.32
-19.92
-11.60
-3.62
4.35
12.17
19.43
25.88
31.73
37.50
43.58
49.92
56.06
61.46
66.04
70.23
74.69
79.69
84.73
88.60
90.00
88.26
83.72
77.58
71.24
65.61
60.90
56.50
51.44
44.76
35.91
24.76
11.67
-2.84
-18.38
-34.72
-51.84
-69.58
-87.17
-103.02
-114.86
-120.37
-117.99
-107.58
-90.43
-69.02
-46.14
-24.13
-4.31
13.18
29.09
44.57
60.48
76.99
93.31
108.00
119.56
126.97
130.23
130.09
127.67
123.88
119.28
114.10
108.60
103.33
98.84
95.49
93.01
90.49
86.60
80.21
70.78
58.66
45.00
31.10
18.20
6.95
-2.54
-10.63
-17.87
-24.92
-32.31
-40.27
-48.72
-57.05
-64.23
-69.00
-70.19
-67.13
-59.81
-48.98
-35.83
-21.92
-8.77
2.37
10.65
15.77
18.01
18.02
16.61
14.61
12.49
10.55
8.83
7.24
5.79
4.60
3.80
3.47
3.59
3.98
4.44
4.84
5.01
4.87
4.18
2.54
-0.46
-5.10
-11.34
-18.76
-26.67
-34.55
-42.18
-49.72
-57.54
-65.87
-74.63
-83.37
-91.33
-97.63
-101.42
-101.84
-98.06
-89.49
-76.02
-58.33
-37.99
-17.01
2.67
19.71
33.62
44.62
53.08
59.23
62.84
63.38
60.35
53.66
43.77
31.70
18.78
6.29
-4.76
-13.97
-21.54
-28.19
-34.77
-41.83
-49.30
-56.39
-61.85
-64.24
-62.53
-56.46
-46.67
-34.59
-22.02
-10.59
-1.35
5.42
10.06
13.12
14.99
15.76
15.21
13.19
9.90
6.04
2.73
1.21
2.31
6.24
12.40
19.65
26.69
32.51
36.63
39.03
39.94
39.51
37.70
34.37
29.52
23.52
17.05
10.92
5.75
1.80
-1.05
-3.11
-4.54
-5.23
-4.85
-3.19
-0.49
2.40
4.19
3.66
0.29
-5.58
-12.81
-19.98
-26.06
-30.73
-34.39
-37.95
-42.33
-48.08
-55.26
-63.40
-71.48
-78.07
-81.51
-80.17
-73.04
-60.22
-43.08
-23.99
-5.56
10.10
21.99
30.17
35.38
38.43
39.84
39.67
37.95
34.87
30.98
26.97
23.54
20.99
19.29
18.05
16.89
15.50
13.84
12.11
10.56
9.32
8.16
6.59
4.04
0.20
-4.85
-10.60
-16.41
-21.81
-26.79
-31.73
-37.21
-43.70
-51.21
-59.21
-66.65
-72.24
-74.71
-73.25
-67.66
-58.36
-46.30
-32.63
-18.53
-5.02
7.08
17.07
24.48
29.10
31.04
30.70
28.81
26.20
23.62
21.67
20.54
20.11
19.99
19.88
19.55
19.17
19.00
19.25
19.79
20.09
19.44
17.19
13.17
7.65
1.29
-5.11
-10.97
-16.00
-20.38
-24.47
-28.84
-33.94
-40.04
-46.98
-54.13
-60.36
-64.18
-64.21
-59.50
-49.99
-36.56
-20.85
-4.70
10.23
22.86
32.74
39.78
44.09
45.75
44.95
42.19
38.26
34.18
30.89
28.97
28.52
29.10
30.04
30.80
31.14
31.00
30.46
29.47
27.87
25.37
21.86
17.36
12.17
6.64
1.08
-4.41
-9.88
-15.50
-21.49
-28.00
-35.07
-42.51
-49.79
-55.97
-59.65
-59.39
-54.21
-44.02
-29.83
-13.54
2.69
17.02
28.36
36.46
41.54
43.97
44.15
42.48
39.43
35.67
31.85
28.48
25.91
24.19
23.32
23.23
23.89
25.09
26.50
27.67
28.08
27.45
25.73
23.07
19.75
15.94
11.63
6.70
1.01
-5.46
-12.58
-20.22
-28.28
-36.61
-44.91
-52.51
-58.24
-60.73
-58.87
-52.14
-41.08
-26.95
-11.56
3.36
16.49
27.16
35.24
40.79
44.04
45.18
44.41
42.01
38.45
34.31
30.25
26.90
24.64
23.58
23.45
23.76
23.91
23.37
21.88
19.44
16.22
12.44
8.23
3.63
-1.30
-6.38
-11.41
-16.22
-20.99
-26.15
-32.29
-39.75
-48.17
-56.32
-62.35
-64.41
-61.33
-53.02
-40.56
-25.67
-10.17
4.48
17.39
28.10
36.41
42.29
45.79
47.18
46.92
45.61
43.83
41.99
40.38
39.18
38.43
38.14
38.17
38.26
38.15
37.54
36.29
34.34
31.75
28.53
24.62
19.98
14.63
8.76
2.58
-3.71
-10.25
-17.49
-26.07
-36.49
-48.59
-61.34
-72.98
-81.32
-84.60
-81.99
-73.78
-61.26
-46.17
-30.34
-15.20
-1.80
9.26
17.67
23.45
26.84
28.34
28.66
28.39
27.99
27.59
27.18
26.69
26.09
25.40
24.60
23.71
22.63
21.24
19.53
17.56
15.38
12.97
10.13
6.65
2.46
-2.22
-6.99
-11.42
-15.40
-19.20
-23.46
-28.82
-35.63
-43.79
-52.66
-61.13
-67.83
-71.47
-71.00
-66.06
-57.05
-45.04
-31.49
-17.84
-5.11
6.21
15.87
23.79
29.82
33.74
35.51
35.34
33.73
31.46
29.30
27.83
27.33
27.72
28.54
29.19
29.00
27.52
24.61
20.43
15.44
10.14
4.88
-0.21
-5.30
-10.78
-17.03
-24.27
-32.49
-41.43
-50.63
-59.63
-68.12
-75.91
-83.08
-89.89
-96.77
-104.21
-112.52
-121.57
-130.50
-137.73
-141.14
-138.73
-129.13
-112.19
-89.19
-62.57
-35.37
-10.44
10.12
25.44
35.72
41.97
45.57
47.99
50.66
54.81
61.36
70.52
81.66
93.20
103.26
110.29
113.82
114.52
113.84
113.29
113.66
114.92
116.33
116.95
116.01
113.07
108.03
101.01
92.41
82.79
72.93
63.57
55.06
47.25
39.38
30.39
19.39
6.09
-8.92
-24.16
-37.64
-47.44
-52.17
-51.37
-45.61
-36.31
-25.30
-14.44
-5.12
1.93
6.73
9.97
12.52
15.09
17.92
20.75
23.05
24.41
24.79
24.62
24.47
24.72
25.27
25.60
25.13
23.47
20.78
17.49
14.21
11.23
8.45
5.39
1.50
-3.58
-9.80
-16.67
-23.51
-29.71
-34.89
-39.11
-42.70
-46.17
-50.04
-54.64
-60.01
-65.81
-71.22
-75.10
-76.19
-73.56
-66.95
-56.85
-44.35
-30.75
-17.12
-4.28
7.30
17.15
24.76
29.66
31.62
30.89
28.27
24.88
21.84
19.97
19.64
20.79
22.92
25.31
27.09
27.59
26.40
23.45
19.02
13.57
7.66
1.73
-3.88
-8.97
-13.36
-16.94
-19.65
-21.56
-22.91
-24.10
-25.70
-28.21
-31.98
-36.76
-41.71
-45.46
-46.47
-43.62
-36.69
-26.45
-14.42
-2.38
8.22
16.61
22.63
26.62
29.00
30.09
30.15
29.36
27.91
26.01
23.90
21.71
19.45
17.06
14.46
11.71
9.01
6.64
4.82
3.71
3.18
2.97
2.59
1.49
-0.67
-3.92
-8.06
-12.59
-17.04
-21.28
-25.35
-29.57
-34.33
-39.69
-45.38
-50.82
-55.20
-57.64
-57.40
-53.98
-47.19
-37.30
-25.09
-11.65
1.67
13.70
23.69
31.40
36.99
40.76
42.86
43.16
41.55
37.98
32.88
27.21
22.00
18.13
15.91
15.03
14.81
14.57
13.98
12.99
11.80
10.41
8.69
6.31
2.92
-1.61
-6.99
-12.70
-18.15
-22.98
-27.21
-31.21
-35.52
-40.75
-47.28
-54.99
-63.31
-71.17
-77.21
-80.10
-78.67
-72.35
-61.35
-46.62
-29.80
-12.92
2.13
14.01
22.13
26.72
28.57
28.56
27.43
25.61
23.23
20.39
17.36
14.40
11.71
9.19
6.55
3.56
0.25
-3.07
-5.94
-8.06
-9.71
-11.57
-14.28
-17.98
-22.01
-25.04
-25.66
-23.02
-17.21
-9.25
-0.58
7.40
13.67
17.84
20.06
21.04
21.93
24.02
28.46
35.81
45.82
57.54
69.67
81.00
90.84
98.63
103.89
105.83
103.54
96.41
84.64
69.43
52.78
36.82
23.07
12.20
4.00
-2.10
-6.60
-9.69
-11.38
-11.82
-11.47
-11.19
-11.77
-13.83
-17.57
-22.69
-28.54
-34.37
-39.43
-43.18
-45.55
-46.81
-47.72
-49.21
-52.01
-56.41
-61.98
-67.68
-72.04
-73.61
-71.25
-64.55
-53.86
-40.33
-25.53
-11.13
1.55
11.82
19.41
24.41
26.92
27.01
24.85
20.81
15.69
10.49
6.23
3.50
2.37
2.41
2.92
3.36
3.48
3.46
3.66
4.29
5.24
5.97
5.74
3.94
0.42
-4.48
-10.01
-15.47
-20.46
-25.21
-30.28
-36.27
-43.42
-51.14
-58.22
-63.07
-64.22
-60.81
-52.83
-41.07
-26.93
-12.03
2.18
14.58
24.48
31.58
36.02
38.15
38.48
37.50
35.57
32.93
29.75
26.31
22.96
20.05
17.82
16.29
15.29
14.59
14.02
13.44
12.68
11.49
9.33
5.81
0.65
-5.93
-13.23
-20.31
-26.32
-30.91
-34.39
-37.58
-41.46
-46.65
-52.99
-59.43
-64.16
-65.27
-61.25
-51.52
-36.60
-18.07
2.00
21.46
38.68
52.78
63.60
71.48
76.89
80.12
81.35
80.61
78.08
74.12
69.22
63.89
58.48
53.16
47.96
42.94
38.30
34.30
31.15
28.78
26.75
24.30
20.73
15.57
8.94
1.49
-5.91
-12.59
-18.42
-23.78
-29.42
-36.02
-43.87
-52.81
-62.20
-71.03
-78.05
-82.01
-81.79
-76.77
-66.96
-53.15
-36.72
-19.34
-2.57
12.37
24.76
34.32
41.00
44.93
46.36
45.68
43.44
40.25
36.73
33.40
30.61
28.47
26.95
25.94
25.42
25.39
25.84
26.54
27.12
27.01
25.53
22.23
16.97
9.98
1.77
-7.10
-16.07
-24.74
-32.86
-40.30
-46.97
-52.85
-57.87
-61.74
-63.93
-63.69
-60.29
-53.30
-42.92
-29.86
-15.21
-0.17
14.21
27.05
37.51
44.79
48.19
47.34
42.59
35.03
26.31
18.10
11.67
7.65
6.01
6.35
8.12
10.73
13.50
15.64
16.34
14.93
11.17
5.47
-1.26
-7.99
-13.88
-18.74
-22.83
-26.67
-30.74
-35.26
-40.27
-45.61
-51.00
-55.97
-59.81
-61.58
-60.33
-55.42
-46.72
-34.82
-20.79
-5.93
8.46
21.31
31.84
39.57
44.23
45.93
45.06
42.36
38.72
35.02
31.89
29.65
28.24
27.34
26.57
25.64
24.52
23.32
22.19
21.27
20.57
19.93
19.02
17.32
14.30
9.58
3.20
-4.33
-12.04
-18.94
-24.36
-28.31
-31.44
-34.86
-39.59
-46.09
-54.02
-62.17
-68.80
-72.09
-70.64
-63.92
-52.31
-37.10
-20.01
-2.77
13.20
26.96
38.04
46.31
51.88
54.99
55.89
54.96
52.53
48.93
44.54
39.78
35.14
31.14
28.15
26.24
25.29
25.02
25.08
25.17
25.01
24.33
22.83
20.36
16.92
12.81
8.59
4.66
1.24
-1.91
-5.36
-9.66
-15.10
-21.63
-29.00
-36.96
-45.42
-54.09
-62.38
-69.10
-72.71
-71.83
-65.90
-55.31
-41.42
-26.01
-10.62
3.60
16.01
26.34
34.54
40.68
44.90
47.32
48.06
47.24
45.02
41.87
38.50
35.78
34.22
33.91
34.31
34.65
34.27
33.00
31.15
29.30
27.92
27.04
26.21
24.68
21.74
17.12
11.00
4.03
-3.10
-9.87
-16.04
-21.65
-26.75
-31.52
-36.15
-41.03
-46.67
-53.44
-61.15
-68.71
-74.30
-75.90
-72.18
-62.91
-49.21
-33.02
-16.49
-1.22
11.87
22.48
30.59
36.13
39.06
39.35
37.32
33.64
29.28
25.30
22.48
21.18
21.22
22.03
22.90
23.36
23.31
22.97
22.68
22.65
22.70
22.32
20.83
17.75
12.99
6.91
0.22
-6.31
-12.04
-16.70
-20.47
-23.89
-27.64
-32.31
-38.15
-44.81
-51.44
-56.72
-59.31
-58.17
-52.86
-43.71
-31.64
-17.93
-3.78
9.82
22.20
32.81
41.17
46.75
49.19
48.56
45.48
41.07
36.48
32.69
30.16
28.86
28.37
28.13
27.59
26.44
24.77
22.90
21.30
20.33
19.92
19.62
18.71
16.51
12.63
7.14
0.45
-6.99
-14.82
-22.97
-31.55
-40.83
-51.01
-62.16
-73.81
-84.92
-93.85
-98.68
-97.83
-90.65
-77.70
-60.73
-42.16
-24.34
-9.14
2.46
10.29
14.68
16.18
15.37
12.69
8.53
3.21
-2.79
-8.90
-14.36
-18.57
-21.20
-22.43
-22.93
-23.69
-25.67
-29.42
-34.96
-41.81
-49.24
-56.40
-62.53
-66.92
-69.08
-68.85
-66.68
-63.64
-61.25
-61.02
-63.77
-69.18
-75.51
-80.03
-79.98
-73.57
-60.79
-43.23
-23.29
-3.05
16.60
36.08
56.32
77.71
99.53
120.19
138.01
152.15
162.79
170.62
176.11
179.05
178.57
174.05
165.73
154.86
143.36
132.89
124.29
117.31
111.01
104.27
96.32
86.88
76.00
63.96
51.02
37.51
23.78
10.33
-2.20
-13.28
-22.62
-30.41
-37.18
-43.61
-50.20
-56.82
-62.83
-66.99
-68.07
-65.30
-58.73
-49.17
-37.97
-26.56
-16.19
-7.78
-1.88
1.30
2.01
0.77
-1.66
-4.53
-7.37
-10.03
-12.64
-15.32
-17.93
-20.10
-21.39
-21.56
-20.77
-19.58
-18.67
-18.67
-19.95
-22.58
-26.41
-31.18
-36.49
-41.77
-46.21
-48.91
-49.28
-47.45
-44.43
-41.67
-40.46
-41.09
-42.56
-42.97
-40.30
-33.33
-22.24
-8.37
6.46
20.57
32.90
42.88
50.22
54.74
56.48
55.74
53.16
49.48
45.31
40.86
36.12
31.04
25.88
21.22
17.67
15.57
14.72
14.48
14.09
13.02
11.00
8.09
4.35
-0.19
-5.47
-11.43
-17.82
-24.23
-30.33
-35.95
-41.14
-46.18
-51.27
-56.40
-61.08
-64.47
-65.54
-63.37
-57.55
-48.28
-36.34
-22.94
-9.32
3.40
14.53
23.58
30.29
34.43
35.92
35.02
32.35
29.00
26.06
24.37
24.10
24.82
25.68
25.92
25.19
23.66
21.90
20.49
19.78
19.60
19.45
18.64
16.67
13.39
9.05
4.17
-0.75
-5.43
-9.91
-14.42
-19.22
-24.52
-30.31
-36.45
-42.57
-48.05
-51.99
-53.37
-51.29
-45.33
-35.75
-23.60
-10.43
2.18
12.98
21.33
27.17
30.78
32.51
32.64
31.34
28.94
25.92
23.00
20.87
19.91
20.00
20.50
20.53
19.43
17.10
14.02
11.01
8.73
7.29
6.17
4.36
0.80
-5.02
-12.81
-21.53
-29.82
-36.62
-41.67
-45.64
-49.93
-56.01
-64.82
-76.43
-89.89
-103.48
-114.91
-121.72
-121.60
-112.89
-95.11
-69.36
-38.34
-5.76
24.46
49.31
67.14
77.74
81.94
81.08
76.65
70.02
62.46
55.07
48.62
43.34
38.89
34.62
30.10
25.47
21.54
19.42
19.63
21.50
23.21
22.40
16.98
5.82
-11.24
-33.52
-59.75
-88.07
-116.03
-141.05
-161.24
-176.17
-187.05
-195.72
-203.17
-208.54
-209.71
-205.13
-195.89
-186.16
-181.19
-183.75
-191.34
-196.19
-188.34
-160.02
-108.95
-39.18
40.44
118.70
184.34
227.84
243.17
229.62
193.10
145.95
103.88
81.07
85.15
114.64
160.23
209.15
250.22
277.07
288.74
287.67
277.36
260.76
240.04
217.34
195.45
177.49
165.63
159.82
157.13
152.87
142.73
125.04
101.85
78.04
59.27
49.35
48.70
54.40
61.81
66.72
66.81
62.30
55.03
47.09
39.61
32.30
23.97
13.71
1.89
-9.83
-19.09
-24.06
-24.36
-21.12
-16.26
-11.43
-7.23
-3.10
1.96
8.77
17.22
26.32
34.48
40.10
42.16
40.39
35.35
28.05
19.76
11.50
3.72
-3.82
-12.13
-22.46
-36.08
-53.68
-74.95
-98.36
-121.40
-141.02
-154.47
-159.90
-156.68
-145.40
-127.48
-104.84
-79.61
-54.08
-30.45
-10.53
4.88
16.41
26.05
36.32
48.94
63.56
77.31
85.64
83.84
68.59
38.96
-3.87
-57.39
-118.61
-184.22
-250.18
-311.67
-363.76
-402.83
-427.58
-439.03
-439.24
-429.76
-410.85
-381.98
-343.37
-297.10
-247.05
-197.36
-150.60
-106.80
-63.95
-19.72
26.88
74.72
121.02
162.71
197.49
224.27
242.95
253.74
256.73
251.79
238.94
218.90
193.34
164.50
134.66
105.52
78.05
52.70
29.73
9.51
-7.49
-20.93
-30.70
-36.69
-38.59
-35.80
-27.74
-14.25
4.04
25.53
47.96
68.74
85.38
96.00
99.64
96.46
87.86
75.94
62.85
49.95
37.48
24.74
10.91
-4.07
-19.10
-32.04
-40.52
-42.90
-38.75
-28.99
-15.44
-0.27
14.62
27.93
38.88
47.42
53.92
59.12
63.79
68.43
73.10
77.37
80.52
81.98
81.30
78.25
72.68
64.50
53.88
41.60
28.92
17.09
6.56
-3.60
-15.38
-30.85
-50.82
-74.13
-97.91
-118.80
-134.39
-144.10
-149.06
-151.11
-151.60
-150.54
-146.74
-138.53
-124.85
-106.12
-84.33
-62.55
-43.76
-29.79
-20.65
-14.73
-9.61
-3.22
5.47
16.26
28.29
40.58
52.45
63.40
72.83
79.66
82.66
80.91
74.46
64.64
53.78
44.34
37.97
34.88
33.88
32.93
30.10
24.33
15.88
6.16
-2.87
-9.28
-11.79
-9.93
-4.06
4.88
15.72
27.40
39.29
51.29
63.82
77.40
92.23
107.61
121.78
132.16
136.18
132.37
121.23
105.47
89.06
75.75
67.53
63.79
61.65
57.37
48.18
33.74
16.56
1.08
-7.95
-7.32
3.33
21.59
43.04
62.64
76.08
80.57
75.04
60.15
38.31
13.46
-9.50
-26.18
-34.23
-34.74
-32.20
-32.65
-41.01
-58.77
-83.29
-109.07
-130.20
-142.67
-145.31
-139.41
-127.51
-112.12
-95.30
-78.75
-64.10
-52.78
-45.76
-42.97
-43.34
-45.16
-46.78
-47.51
-47.86
-49.39
-53.76
-61.77
-72.68
-84.30
-93.74
-98.63
-98.13
-93.30
-86.64
-81.10
-78.80
-80.39
-84.73
-89.62
-92.64
-92.06
-87.27
-78.59
-66.77
-52.31
-35.29
-15.62
6.28
29.16
50.82
68.81
81.34
87.78
88.78
85.62
79.68
71.75
62.20
51.28
39.54
27.95
17.60
9.41
3.74
0.26
-1.82
-3.39
-5.19
-7.57
-10.29
-12.75
-14.15
-13.85
-11.65
-7.99
-3.88
-0.61
0.77
-0.11
-2.79
-5.85
-7.47
-5.93
-0.27
9.37
21.73
34.89
46.93
56.36
62.50
65.41
65.59
63.75
60.54
56.38
51.53
46.11
40.17
33.97
27.87
22.26
17.45
13.43
9.88
6.28
2.19
-2.45
-7.19
-11.34
-14.17
-15.11
-14.01
-11.01
-6.57
-1.42
3.35
6.52
6.90
3.76
-2.73
-11.40
-20.26
-27.09
-30.13
-28.75
-23.51
-15.98
-8.03
-1.28
3.52
6.41
8.11
9.40
10.71
12.02
12.97
13.30
12.92
12.14
11.43
11.21
11.64
12.59
13.68
14.41
14.37
13.28
11.01
7.53
2.98
-2.48
-8.50
-14.65
-20.48
-25.63
-30.10
-34.25
-38.68
-43.84
-49.68
-55.38
-59.45
-60.35
-57.01
-49.39
-38.53
-26.29
-14.59
-4.86
2.26
6.87
9.32
9.94
8.67
5.39
-0.04
-7.33
-15.79
-24.43
-32.12
-37.82
-40.52
-39.34
-33.72
-23.80
-10.52
4.37
18.74
30.61
38.78
43.13
44.48
44.06
42.85
41.13
38.32
33.37
25.61
15.15
3.29
-7.89
-16.26
-20.41
-20.05
-15.84
-9.03
-0.70
8.47
18.08
27.84
37.28
45.73
52.45
56.86
58.62
57.76
54.57
49.55
43.38
36.90
31.11
27.09
25.87
28.11
33.94
42.71
53.10
63.48
72.14
77.79
79.66
77.62
71.99
63.50
52.95
41.18
28.99
16.86
5.05
-6.48
-17.66
-28.17
-37.31
-44.06
-47.32
-46.42
-41.25
-32.46
-21.30
-9.38
1.71
10.67
16.62
19.33
19.12
16.71
13.12
9.25
5.70
2.71
0.18
-2.18
-4.57
-6.95
-9.10
-10.63
-11.29
-11.08
-10.37
-9.66
-9.49
-10.27
-12.15
-15.10
-18.91
-23.40
-28.25
-33.22
-38.08
-42.69
-47.09
-51.51
-56.20
-61.25
-66.50
-71.30
-74.60
-75.20
-72.07
-64.65
-53.24
-38.94
-23.40
-8.45
4.51
14.73
22.22
27.39
30.86
33.04
34.21
34.61
34.47
34.05
33.54
33.04
32.56
32.09
31.63
31.29
31.11
31.05
30.91
30.37
29.03
26.60
22.94
18.14
12.62
7.10
2.44
-0.58
-1.67
-1.15
0.03
0.58
-0.78
-4.90
-11.97
-21.37
-31.75
-41.30
-48.28
-51.43
-50.44
-45.93
-39.17
-31.61
-24.32
-17.69
-11.48
-5.18
1.54
8.52
15.13
20.63
24.59
27.03
28.47
29.57
30.78
32.07
33.12
33.52
33.15
32.28
31.38
30.83
30.67
30.52
29.69
27.65
24.10
19.26
13.73
8.20
3.32
-0.60
-3.65
-6.23
-8.83
-12.00
-16.10
-21.31
-27.62
-34.72
-41.98
-48.35
-52.55
-53.26
-49.59
-41.46
-29.60
-15.51
-0.79
13.10
25.21
35.15
42.92
48.60
52.20
53.73
53.14
50.69
46.89
42.59
38.72
35.99
34.58
34.18
34.12
33.79
32.97
31.85
30.87
30.38
30.26
29.92
28.57
25.55
20.70
14.34
7.15
-0.13
-6.88
-12.87
-18.13
-22.89
-27.38
-31.84
-36.40
-41.02
-45.50
-49.46
-52.34
-53.39
-51.84
-47.03
-38.69
-27.11
-13.18
1.74
16.15
28.66
38.26
44.38
46.92
46.19
42.84
37.80
32.18
27.06
23.23
21.03
20.28
20.46
20.89
21.05
20.76
20.02
19.06
17.91
16.37
13.96
10.04
4.17
-3.67
-12.90
-22.52
-31.25
-38.08
-42.56
-44.96
-46.22
-47.58
-50.14
-54.38
-60.09
-66.24
-71.34
-73.88
-72.65
-67.16
-57.63
-44.92
-30.23
-14.78
0.27
13.97
25.47
34.08
39.31
41.09
39.76
36.07
31.06
25.74
20.94
17.16
14.67
13.42
13.23
13.88
15.00
16.27
17.32
17.89
17.73
16.66
14.51
11.11
6.53
0.92
-5.22
-11.37
-17.01
-21.90
-26.11
-29.96
-33.98
-38.63
-44.29
-50.97
-58.23
-65.10
-70.12
-71.72
-68.61
-60.32
-47.37
-31.32
-14.15
2.16
16.14
27.11
34.97
40.03
42.64
43.07
41.54
38.36
34.08
29.43
25.22
21.99
19.95
18.93
18.60
18.60
18.79
19.19
19.76
20.30
20.30
19.07
16.03
10.98
4.35
-2.97
-9.87
-15.44
-19.26
-21.60
-23.23
-25.12
-28.20
-33.07
-39.79
-47.94
-56.52
-64.12
-69.20
-70.32
-66.53
-57.64
-44.28
-27.81
-10.05
7.13
22.09
33.71
41.45
45.35
45.90
43.83
39.97
35.14
30.13
25.54
21.86
19.32
17.92
17.42
17.42
17.46
17.17
16.46
15.45
14.49
13.97
14.09
14.80
15.76
16.49
16.54
15.74
14.13
11.89
9.15
5.74
1.26
-4.85
-12.89
-22.64
-33.20
-43.10
-50.61
-54.29
-53.36
-47.75
-38.17
-25.73
-11.78
2.37
15.52
26.74
35.38
41.09
43.90
44.11
42.26
38.94
34.78
30.36
26.20
22.78
20.34
19.01
18.74
19.22
20.06
20.88
21.39
21.41
20.84
19.49
17.16
13.62
8.82
2.95
-3.52
-9.98
-15.83
-20.84
-25.18
-29.45
-34.44
-40.75
-48.45
-56.94
-64.93
-70.77
-72.78
-69.88
-61.82
-49.39
-34.16
-17.98
-2.60
10.79
21.61
29.77
35.37
38.64
39.75
39.00
36.94
34.28
31.77
30.03
29.22
29.07
29.11
28.81
27.97
26.66
25.24
23.98
22.98
21.92
20.21
17.23
12.58
6.25
-1.40
-9.65
-17.71
-24.79
-30.42
-34.54
-37.59
-40.42
-44.08
-49.36
-56.51
-64.88
-73.00
-78.86
-80.55
-76.75
-67.31
-53.24
-36.38
-18.79
-2.27
12.02
23.56
32.23
38.17
41.46
42.26
40.92
38.08
34.55
31.17
28.53
26.87
26.12
25.96
25.99
25.91
25.49
24.61
23.17
21.17
18.60
15.48
11.83
7.62
2.83
-2.47
-8.15
-13.94
-19.62
-25.09
-30.44
-35.94
-41.93
-48.69
-56.17
-63.92
-71.03
-76.21
-78.11
-75.71
-68.63
-57.29
-42.82
-26.81
-10.90
3.51
15.43
24.41
30.44
33.92
35.47
35.87
35.72
35.52
35.50
35.62
35.66
35.01
32.95
28.84
22.51
14.50
6.26
-0.18
-3.02
-1.32
4.48
12.71
21.15
27.86
31.75
32.70
31.30
28.21
23.93
18.69
12.63
5.92
-1.19
-8.63
-16.62
-25.53
-35.53
-46.00
-55.38
-61.55
-62.50
-57.22
-46.13
-30.98
-14.23
1.80
15.53
26.38
34.44
40.02
43.39
44.62
43.85
41.40
37.87
34.04
30.73
28.40
27.11
26.57
26.20
25.45
24.08
22.13
20.02
18.21
16.97
16.16
15.28
13.58
10.44
5.70
-0.40
-7.29
-14.32
-21.00
-27.08
-32.52
-37.68
-43.20
-49.65
-57.35
-65.87
-73.84
-79.38
-80.58
-76.30
-66.67
-52.89
-36.77
-20.11
-4.23
10.11
22.45
32.46
39.88
44.52
46.46
46.06
43.83
40.42
36.58
32.88
29.76
27.39
25.66
24.23
22.80
21.14
19.44
18.07
17.22
16.82
16.49
15.53
13.42
9.85
4.90
-1.03
-7.35
-13.56
-19.25
-24.15
-28.28
-31.89
-35.53
-39.93
-45.77
-53.24
-61.85
-70.12
-76.06
-77.70
-73.79
-64.26
-50.42
-34.25
-17.80
-2.58
10.76
22.03
31.23
38.22
42.74
44.55
43.79
40.93
36.78
32.26
28.19
25.20
23.61
23.51
24.63
26.50
28.56
30.32
31.43
31.78
31.35
30.11
28.04
25.09
21.36
17.02
12.32
7.49
2.70
-2.01
-6.70
-11.47
-16.41
-21.61
-27.14
-33.17
-39.78
-46.87
-54.00
-60.21
-64.22
-64.65
-60.54
-51.74
-38.98
-23.80
-7.96
6.91
19.82
30.26
38.09
43.30
45.85
45.71
43.08
38.48
32.77
26.99
22.09
18.77
17.24
17.37
18.75
20.93
23.50
26.19
28.77
30.94
32.24
32.09
30.00
25.72
19.48
11.99
4.17
-3.17
-9.57
-15.06
-20.04
-25.15
-30.93
-37.67
-45.23
-52.94
-59.67
-64.03
-64.78
-61.13
-52.97
-40.99
-26.40
-10.66
4.79
18.68
29.98
37.99
42.41
43.41
41.60
37.94
33.47
29.11
25.59
23.31
22.41
22.81
24.14
25.75
26.95
27.12
26.01
23.74
20.82
17.79
15.02
12.52
9.92
6.83
2.83
-2.16
-7.94
-14.17
-20.51
-26.76
-32.79
-38.66
-44.54
-50.71
-57.40
-64.53
-71.46
-76.94
-79.38
-77.30
-69.99
-57.79
-42.00
-24.46
-7.02
8.88
22.34
32.89
40.41
44.95
46.87
46.70
45.06
42.63
40.00
37.57
35.58
34.03
32.75
31.53
30.21
28.75
27.29
26.16
25.60
25.56
25.68
25.26
23.59
20.22
15.11
8.68
1.75
-4.83
-10.39
-14.69
-18.03
-21.08
-24.78
-29.92
-36.87
-45.36
-54.32
-62.05
-66.71
-66.78
-61.60
-51.55
-37.86
-22.19
-6.16
8.98
22.29
33.13
41.00
45.56
46.89
45.44
42.08
37.77
33.35
29.24
25.54
22.20
19.19
16.66
14.76
13.59
12.97
12.56
11.90
10.65
8.63
5.74
1.95
-2.82
-8.50
-14.80
-21.16
-26.89
-31.51
-35.14
-38.57
-42.97
-49.30
-57.66
-66.96
-75.14
-79.85
-79.27
-72.73
-60.92
-45.57
-28.80
-12.52
2.00
14.28
24.47
33.02
40.38
46.75
52.02
55.93
58.25
59.03
58.60
57.55
56.33
55.16
53.98
52.49
50.52
48.11
45.44
42.68
39.70
36.06
31.15
24.51
16.17
6.76
-2.77
-11.49
-19.01
-25.48
-31.60
-38.24
-46.08
-55.20
-65.00
-74.19
-81.06
-83.96
-81.79
-74.37
-62.61
-48.14
-32.87
-18.36
-5.43
5.69
15.12
22.97
29.15
33.41
35.67
36.12
35.20
33.52
31.59
29.70
27.97
26.43
25.10
24.13
23.58
23.48
23.70
24.02
24.04
23.27
21.19
17.34
11.69
4.61
-3.14
-10.64
-17.17
-22.47
-26.77
-30.78
-35.42
-41.45
-49.28
-58.67
-68.59
-77.28
-82.54
-82.40
-75.84
-63.16
-46.04
-26.86
-8.01
8.81
22.74
33.68
41.68
46.82
49.04
48.42
45.43
41.05
36.52
32.94
30.98
30.66
31.46
32.62
33.51
33.69
33.15
32.22
31.22
30.37
29.54
28.29
25.98
22.12
16.57
9.59
1.83
-5.91
-12.99
-19.13
-24.52
-29.72
-35.56
-42.77
-51.82
-62.55
-74.07
-84.85
-92.97
-96.63
-94.64
-86.80
-74.03
-58.17
-41.49
-25.97
-12.73
-1.80
7.73
17.12
27.37
38.68
50.37
61.16
69.76
75.44
78.31
79.20
79.37
79.82
80.96
82.49
83.67
83.76
82.36
79.53
75.47
70.28
63.76
55.58
45.65
34.40
22.78
11.95
2.81
-4.48
-10.47
-16.08
-22.06
-28.68
-35.66
-42.63
-49.42
-56.13
-62.90
-69.39
-74.53
-76.71
-74.29
-66.43
-53.56
-37.33
-20.01
-3.76
10.13
21.30
29.95
36.47
40.99
43.33
43.39
41.43
38.21
34.75
31.97
30.30
29.64
29.49
29.34
29.04
28.80
28.93
29.61
30.61
31.33
31.02
29.00
25.01
19.31
12.58
5.67
-0.65
-6.01
-10.55
-14.71
-19.12
-24.23
-30.24
-37.14
-44.72
-52.57
-59.97
-65.69
-68.23
-66.11
-58.60
-46.12
-30.31
-13.42
2.40
15.77
26.32
34.29
40.14
44.03
45.90
45.61
43.40
39.91
36.00
32.54
29.98
28.49
27.92
28.11
28.73
29.52
30.07
30.01
29.08
27.17
24.31
20.59
16.12
10.97
5.32
-0.57
-6.39
-11.94
-17.27
-22.71
-28.58
-35.11
-42.31
-50.06
-58.13
-66.26
-73.83
-79.75
-82.48
-80.43
-72.77
-59.80
-43.10
-24.99
-7.85
6.79
18.35
26.98
33.20
37.34
39.55
39.93
38.73
36.47
33.84
31.54
30.05
29.55
29.90
30.82
31.89
32.75
33.16
33.01
32.26
30.82
28.57
25.25
20.74
15.07
8.59
1.86
-4.54
-10.28
-15.33
-19.92
-24.33
-28.78
-33.38
-38.25
-43.65
-49.75
-56.50
-63.24
-68.70
-71.32
-69.75
-63.46
-52.92
-39.42
-24.60
-9.85
3.79
15.81
25.89
33.78
39.29
42.29
42.88
41.39
38.44
34.80
31.36
28.86
27.78
28.19
29.83
32.09
34.33
36.10
37.09
37.26
36.56
35.04
32.77
29.86
26.46
22.56
18.09
12.86
6.88
0.31
-6.46
-13.02
-19.16
-24.96
-30.64
-36.44
-42.44
-48.44
-54.07
-58.69
-61.48
-61.52
-58.00
-50.51
-39.35
-25.55
-10.57
3.98
16.81
27.14
34.66
39.36
41.39
41.05
38.71
34.99
30.55
26.05
22.02
18.69
16.17
14.37
13.22
12.62
12.63
13.29
14.63
16.50
18.43
19.77
19.74
17.82
13.90
8.43
2.23
-3.82
-9.07
-13.40
-17.05
-20.62
-24.70
-29.77
-35.90
-42.72
-49.36
-54.50
-56.79
-55.09
-48.92
-38.69
-25.67
-11.62
1.71
12.94
21.46
27.18
30.46
31.78
31.61
30.24
28.05
25.45
23.00
21.24
20.49
20.75
21.59
22.40
22.58
21.83
20.31
18.48
16.85
15.69
14.83
13.67
11.40
7.40
1.52
-5.83
-13.71
-21.11
-27.31
-32.17
-36.10
-39.99
-44.63
-50.53
-57.65
-65.37
-72.58
-77.88
-79.82
-77.28
-69.78
-57.71
-42.32
-25.42
-8.96
5.53
17.16
25.72
31.52
35.02
36.62
36.56
35.04
32.35
28.96
25.57
22.92
21.44
21.19
21.75
22.44
22.78
22.69
22.37
22.18
22.09
21.68
20.22
17.05
11.97
5.43
-1.68
-8.28
-13.55
-17.19
-19.50
-21.12
-22.97
-25.88
-30.45
-36.73
-44.11
-51.30
-56.61
-58.43
-55.62
-47.98
-36.19
-21.68
-6.22
8.44
20.98
30.42
36.29
38.68
38.06
35.40
31.78
28.20
25.20
22.85
20.85
18.91
17.02
15.37
14.31
14.09
14.59
15.44
16.05
15.82
14.42
11.76
8.01
3.64
-0.78
-4.78
-8.08
-10.74
-13.14
-15.79
-19.29
-24.11
-30.52
-38.30
-46.75
-54.47
-59.75
-60.93
-57.02
-48.07
-35.14
-19.97
-4.37
10.13
22.58
32.38
39.10
42.49
42.49
39.60
34.81
29.38
24.38
20.44
17.56
15.38
13.66
12.34
11.60
11.53
11.98
12.50
12.52
11.62
9.58
6.57
2.81
-1.50
-6.19
-11.14
-16.10
-20.82
-25.17
-29.16
-32.94
-36.73
-40.69
-44.89
-49.27
-53.41
-56.62
-57.96
-56.49
-51.64
-43.58
-33.18
-21.64
-10.20
0.46
10.14
18.95
26.92
33.73
38.72
41.27
41.17
38.68
34.60
29.92
25.46
21.80
19.10
17.26
16.04
15.28
14.92
14.97
15.43
16.14
16.77
16.75
15.63
13.09
9.19
4.31
-0.97
-6.13
-10.88
-15.23
-19.46
-23.89
-28.81
-34.37
-40.56
-47.14
-53.47
-58.51
-60.94
-59.48
-53.43
-42.91
-29.06
-13.67
1.29
14.34
24.62
31.95
36.52
38.67
38.73
37.02
34.06
30.44
26.83
23.81
21.62
20.32
19.75
19.73
20.09
20.76
21.70
22.78
23.78
24.29
23.87
22.10
18.77
13.99
8.23
2.19
-3.45
-8.27
-12.31
-15.94
-19.76
-24.30
-29.79
-35.98
-42.25
-47.63
-51.00
-51.36
-48.03
-40.93
-30.57
-18.11
-5.00
7.29
17.61
25.39
30.47
33.12
33.72
32.70
30.42
27.27
23.84
20.68
18.28
16.88
16.36
16.35
16.48
16.42
16.11
15.66
15.22
14.80
14.18
13.03
10.97
7.80
3.51
-1.65
-7.28
-12.96
-18.40
-23.55
-28.69
-34.23
-40.55
-47.74
-55.36
-62.46
-67.83
-70.13
-68.41
-62.40
-52.47
-39.63
-25.20
-10.55
3.11
14.83
24.12
30.80
35.03
37.15
37.54
36.56
34.51
31.74
28.63
25.65
23.23
21.68
21.01
21.07
21.49
21.94
22.24
22.22
21.82
20.80
18.86
15.69
11.13
5.29
-1.37
-8.26
-14.72
-20.40
-25.33
-29.91
-34.66
-40.08
-46.30
-52.91
-58.90
-62.91
-63.67
-60.39
-53.07
-42.48
-29.84
-16.51
-3.62
8.07
18.08
26.20
32.29
36.27
38.16
38.13
36.47
33.69
30.37
27.20
24.74
23.37
23.21
24.00
25.31
26.72
27.89
28.65
28.97
28.78
27.85
25.80
22.23
16.94
10.21
2.81
-4.20
-9.88
-13.80
-16.36
-18.50
-21.39
-25.87
-31.94
-38.81
-45.01
-48.87
-49.03
-44.81
-36.35
-24.71
-11.41
1.92
13.90
23.69
31.08
36.15
39.14
40.23
39.53
37.25
33.85
30.04
26.61
24.22
23.08
22.88
23.01
22.78
21.78
19.97
17.61
15.04
12.46
9.81
6.81
3.19
-1.17
-6.16
-11.40
-16.42
-20.88
-24.59
-27.73
-30.82
-34.48
-39.36
-45.76
-53.37
-61.29
-68.06
-71.96
-71.60
-66.28
-56.17
-42.43
-26.77
-11.00
3.30
15.14
24.10
30.19
33.59
34.66
33.78
31.46
28.41
25.33
22.97
21.92
22.37
24.09
26.55
28.92
30.52
31.00
30.46
29.32
28.08
26.85
25.33
22.98
19.25
14.12
8.09
1.98
-3.44
-7.90
-11.61
-15.14
-19.06
-23.75
-29.33
-35.70
-42.65
-49.66
-55.93
-60.28
-61.51
-58.71
-51.65
-40.92
-27.73
-13.63
0.07
12.31
22.52
30.37
35.74
38.59
39.12
37.73
35.01
31.74
28.58
26.13
24.67
24.19
24.52
25.30
26.29
27.24
28.09
28.67
28.75
28.08
26.35
23.35
19.07
13.82
8.07
2.42
-2.71
-7.16
-11.04
-14.80
-18.92
-23.88
-29.91
-36.98
-44.66
-52.23
-58.58
-62.43
-62.53
-58.09
-49.16
-36.72
-22.44
-8.16
4.65
15.18
23.31
29.29
33.44
35.86
36.52
35.48
33.08
29.98
27.03
24.92
23.99
24.08
24.62
24.99
24.74
23.74
22.21
20.45
18.67
16.88
14.79
12.09
8.59
4.37
-0.22
-4.75
-8.87
-12.56
-16.04
-19.83
-24.51
-30.55
-38.15
-47.00
-56.09
-63.91
-68.64
-68.67
-63.32
-53.12
-39.64
-25.20
-11.93
-1.21
6.51
11.59
14.68
16.33
16.77
16.08
14.22
11.33
7.72
3.84
0.22
-2.59
-4.23
-4.60
-3.87
-2.41
-0.57
1.47
3.64
5.87
7.94
9.36
9.60
8.33
5.60
1.85
-2.24
-6.17
-9.80
-13.35
-17.30
-22.09
-27.99
-34.95
-42.53
-49.91
-55.90
-59.19
-58.59
-53.50
-44.13
-31.45
-17.01
-2.44
10.96
22.43
31.65
38.54
43.01
44.88
44.18
41.23
36.85
32.09
27.93
25.07
23.76
23.91
25.17
27.19
29.47
31.51
32.84
33.12
32.33
30.59
28.21
25.26
21.72
17.43
12.33
6.63
0.60
-5.47
-11.50
-17.63
-24.17
-31.34
-39.07
-46.84
-53.67
-58.33
-59.48
-56.19
-48.26
-36.32
-21.79
-6.50
7.84
20.04
29.48
36.17
40.34
42.29
42.30
40.65
37.87
34.48
31.12
28.22
25.97
24.29
22.99
21.94
21.00
20.24
19.65
19.13
18.43
17.18
15.03
11.68
7.12
1.56
-4.47
-10.31
-15.47
-19.83
-23.72
-27.77
-32.63
-38.63
-45.58
-52.71
-58.86
-62.74
-63.28
-59.85
-52.38
-41.48
-28.19
-13.88
0.14
12.76
23.24
31.15
36.25
38.58
38.40
36.30
33.06
29.58
26.62
24.74
24.04
24.26
24.93
25.53
25.75
25.44
24.62
23.37
21.77
19.68
16.93
13.34
8.91
3.88
-1.31
-6.28
-10.77
-14.81
-18.73
-23.12
-28.51
-35.27
-43.29
-51.78
-59.48
-64.79
-66.23
-62.95
-54.94
-43.00
-28.61
-13.40
1.21
14.12
24.69
32.56
37.65
40.03
40.06
38.29
35.48
32.45
29.85
28.11
27.40
27.55
28.31
29.36
30.33
31.00
31.16
30.62
29.25
26.87
23.31
18.48
12.38
5.29
-2.34
-9.83
-16.52
-21.84
-25.66
-28.32
-30.56
-33.27
-36.89
-41.22
-45.26
-47.48
-46.42
-41.19
-31.84
-19.28
-5.02
9.33
22.39
33.15
41.06
45.95
47.99
47.69
45.77
42.98
39.97
37.04
34.32
31.75
29.34
27.28
25.78
24.99
24.81
24.94
24.99
24.61
23.62
21.83
19.09
15.26
10.35
4.62
-1.45
-7.25
-12.46
-17.19
-21.95
-27.57
-34.66
-43.43
-53.43
-63.58
-72.40
-78.24
-79.82
-76.40
-68.10
-55.79
-40.86
-24.94
-9.49
4.40
16.06
25.25
32.00
36.43
38.75
39.19
38.08
35.94
33.45
31.30
30.01
29.68
29.99
30.40
30.51
30.20
29.81
29.64
29.83
29.96
29.32
27.12
23.01
17.31
10.80
4.47
-0.95
-5.28
-8.97
-12.85
-17.74
-24.27
-32.53
-42.07
-51.94
-60.81
-67.17
-69.73
-67.69
-60.95
-50.23
-36.76
-22.09
-7.81
4.85
15.00
22.18
26.28
27.53
26.40
23.63
19.95
16.03
12.28
8.72
5.16
1.49
-2.21
-5.52
-7.88
-8.78
-8.21
-6.68
-5.32
-5.46
-8.20
-13.93
-21.98
-30.65
-37.37
-39.47
-34.83
-22.82
-4.55
17.18
38.57
55.98
66.84
70.49
68.00
61.72
54.38
48.40
45.26
45.50
48.83
54.43
61.02
67.19
71.62
73.35
72.11
68.34
62.98
57.16
51.94
48.11
46.12
46.10
47.83
50.70
53.81
56.24
57.35
57.00
55.43
53.09
50.25
46.75
41.97
35.19
25.74
13.35
-1.83
-19.27
-38.04
-56.97
-74.88
-90.76
-104.06
-114.69
-122.87
-128.86
-132.67
-133.90
-131.94
-126.37
-117.09
-104.67
-90.15
-74.78
-59.81
-46.18
-34.43
-24.71
-16.90
-10.66
-5.66
-1.65
1.61
4.30
6.55
8.55
10.40
12.12
13.72
15.19
16.58
18.08
19.92
22.25
24.89
27.22
28.28
27.02
22.81
15.81
7.01
-2.01
-9.72
-15.25
-18.67
-20.94
-23.44
-27.29
-32.98
-40.08
-47.49
-53.67
-57.12
-56.79
-52.26
-43.86
-32.53
-19.54
-6.24
6.24
17.01
25.48
31.44
35.04
36.83
37.65
38.34
39.38
40.75
41.97
42.31
41.35
39.09
36.02
32.90
30.39
28.82
27.99
27.30
25.94
23.15
18.55
12.22
4.71
-3.17
-10.65
-17.27
-23.00
-28.22
-33.54
-39.52
-46.49
-54.31
-62.28
-69.18
-73.55
-74.08
-70.03
-61.54
-49.64
-35.85
-21.71
-8.43
3.27
13.03
20.62
25.81
28.47
28.82
27.48
25.41
23.58
22.56
22.29
22.27
21.84
20.51
18.23
15.34
12.26
9.27
6.38
3.20
-0.72
-5.84
-12.31
-20.03
-28.49
-36.98
-44.65
-50.65
-54.20
-54.69
-51.89
-45.98
-37.72
-28.30
-18.93
-10.50
-3.33
2.81
8.40
13.67
18.46
22.21
24.22
24.02
21.64
17.59
12.57
7.24
1.78
-4.06
-10.58
-17.82
-25.10
-31.06
-34.06
-32.99
-27.64
-18.94
-8.42
2.38
12.23
20.67
27.47
32.66
36.24
38.34
39.40
40.28
41.95
44.97
49.23
53.63
56.63
56.74
53.21
46.19
36.68
25.97
14.96
4.07
-6.69
-17.16
-26.67
-34.04
-37.97
-37.60
-32.83
-24.40
-13.64
-2.19
8.39
16.83
22.26
24.44
23.75
21.14
17.79
14.74
12.49
11.14
10.52
10.53
11.38
13.28
16.28
19.98
23.71
26.66
28.36
28.63
27.55
25.16
21.44
16.41
10.23
3.38
-3.59
-10.25
-16.57
-22.80
-29.40
-36.76
-44.92
-53.56
-61.89
-68.73
-72.75
-72.82
-68.54
-60.49
-50.20
-39.53
-29.98
-22.15
-15.80
-10.23
-4.81
0.56
5.63
9.99
13.47
16.17
18.48
20.82
23.60
27.16
31.57
36.69
42.08
47.28
51.77
55.30
57.86
59.40
59.85
58.93
56.40
52.28
46.98
41.23
35.69
30.71
26.14
21.44
15.95
9.22
1.16
-8.02
-17.74
-27.07
-34.87
-39.91
-41.16
-38.21
-31.43
-22.00
-11.52
-1.48
7.14
14.02
19.24
23.04
25.44
26.36
25.84
24.21
22.08
20.21
19.23
19.29
20.12
21.10
21.54
21.10
19.90
18.45
17.39
17.08
17.41
17.79
17.40
15.57
12.03
6.98
0.92
-5.63
-12.26
-18.74
-24.90
-30.62
-35.90
-40.92
-45.97
-51.37
-57.13
-62.77
-67.26
-69.21
-67.40
-61.31
-51.28
-38.49
-24.63
-11.25
0.54
10.23
17.82
23.51
27.35
29.36
29.47
27.88
25.04
21.75
18.75
16.63
15.61
15.56
16.19
17.14
18.17
19.04
19.56
19.44
18.45
16.37
13.17
9.03
4.25
-0.83
-6.03
-11.35
-16.96
-22.98
-29.48
-36.41
-43.59
-50.67
-57.06
-61.86
-64.03
-62.62
-57.12
-47.69
-35.25
-21.11
-6.76
6.56
17.94
26.83
32.94
36.27
37.05
35.72
32.87
29.13
25.14
21.44
18.57
16.84
16.31
16.64
17.26
17.66
17.51
16.91
16.10
15.32
14.47
13.11
10.68
6.87
1.94
-3.44
-8.52
-12.91
-16.88
-21.25
-26.94
-34.44
-43.43
-52.74
-60.73
-65.75
-66.65
-62.97
-55.03
-43.72
-30.22
-15.97
-2.28
9.71
19.25
26.10
30.45
32.80
33.73
33.72
33.01
31.77
30.09
28.21
26.46
25.12
24.35
24.13
24.26
24.50
24.67
24.67
24.43
23.78
22.45
20.11
16.56
11.78
6.01
-0.33
-6.85
-13.28
-19.61
-26.05
-32.92
-40.43
-48.55
-56.71
-63.71
-68.04
-68.15
-63.13
-53.10
-39.15
-23.08
-6.80
8.20
21.05
31.35
38.99
43.89
46.03
45.65
43.27
39.74
35.93
32.66
30.41
29.32
29.18
29.63
30.22
30.54
30.47
29.97
29.09
27.78
25.91
23.16
19.29
14.31
8.45
2.29
-3.61
-8.88
-13.55
-17.95
-22.61
-28.06
-34.47
-41.58
-48.55
-54.15
-57.11
-56.35
-51.45
-42.61
-30.74
-17.19
-3.57
8.69
18.44
25.12
28.73
29.82
29.18
27.54
25.40
22.86
19.91
16.53
12.96
9.68
7.30
6.26
6.67
8.34
10.69
13.05
14.79
15.37
14.49
12.10
8.41
3.82
-1.11
-6.03
-10.79
-15.56
-20.80
-26.91
-34.10
-42.09
-50.07
-56.75
-60.66
-60.49
-55.51
-45.93
-32.78
-17.75
-2.70
10.79
21.75
29.78
35.09
38.17
39.46
39.47
38.51
36.81
34.58
32.13
29.79
27.97
27.01
26.85
27.23
27.62
27.49
26.51
24.60
21.92
18.61
14.72
10.18
5.00
-0.71
-6.65
-12.52
-18.18
-23.84
-29.98
-37.07
-45.33
-54.31
-62.87
-69.36
-71.96
-69.35
-61.22
-48.41
-32.74
-16.41
-1.41
10.98
20.29
26.78
30.96
33.33
34.24
33.95
32.84
31.38
30.13
29.57
29.97
31.10
32.56
33.80
34.38
34.09
32.89
30.92
28.24
24.86
20.62
15.49
9.58
3.19
-3.28
-9.44
-15.07
-20.14
-24.87
-29.68
-35.07
-41.27
-48.11
-54.81
-60.03
-62.21
-60.03
-52.95
-41.45
-26.89
-11.12
3.95
16.95
27.01
33.87
37.63
38.61
37.29
34.30
30.34
26.16
22.48
19.84
18.48
18.22
18.57
18.96
18.88
18.14
16.79
15.02
13.03
10.86
8.44
5.68
2.53
-0.96
-4.80
-9.00
-13.60
-18.74
-24.44
-30.72
-37.58
-44.89
-52.32
-59.09
-64.00
-65.63
-62.91
-55.52
-44.12
-30.15
-15.39
-1.40
10.84
20.93
28.73
34.11
36.98
37.35
35.68
32.80
29.90
28.00
27.59
28.61
30.54
32.74
34.75
36.27
37.27
37.73
37.59
36.68
34.75
31.63
27.23
21.67
15.22
8.29
1.26
-5.50
-11.86
-17.91
-23.95
-30.46
-37.89
-46.42
-55.66
-64.58
-71.49
-74.62
-72.67
-65.33
-53.51
-38.89
-23.48
-8.89
3.91
14.57
23.07
29.43
33.57
35.47
35.26
33.41
30.70
27.95
25.83
24.61
24.19
24.26
24.45
24.59
24.59
24.46
24.18
23.68
22.84
21.54
19.70
17.21
14.06
10.22
5.75
0.77
-4.53
-9.93
-15.35
-20.78
-26.48
-32.65
-39.37
-46.31
-52.59
-56.89
-57.72
-54.01
-45.49
-32.93
-17.78
-1.82
13.36
26.71
37.64
46.04
52.01
55.77
57.42
57.16
55.14
51.61
47.07
42.06
37.20
33.02
29.76
27.34
25.51
23.90
22.13
19.96
17.13
13.49
8.99
3.71
-2.02
-7.79
-13.16
-17.92
-22.06
-25.90
-29.93
-34.74
-40.87
-48.48
-57.25
-66.21
-73.91
-78.61
-78.86
-73.82
-63.68
-49.56
-33.30
-17.01
-2.55
8.97
17.22
22.58
25.71
27.21
27.50
26.79
25.46
24.01
23.11
23.20
24.35
26.12
27.85
28.98
29.34
29.14
28.69
28.15
27.36
25.91
23.35
19.47
14.41
8.55
2.31
-3.94
-10.08
-16.18
-22.49
-29.29
-36.80
-44.99
-53.41
-61.01
-66.29
-67.65
-63.90
-54.85
-41.33
-25.13
-8.32
7.18
20.20
30.29
37.52
42.15
44.44
44.59
42.85
39.69
35.78
31.99
29.03
27.26
26.57
26.55
26.60
26.27
25.38
24.09
22.75
21.52
20.21
18.27
15.10
10.44
4.52
-1.87
-7.88
-12.99
-17.26
-21.20
-25.32
-29.75
-34.24
-38.48
-42.35
-45.93
-49.07
-50.97
-50.12
-44.88
-34.44
-19.49
-2.24
14.35
27.78
36.88
41.93
44.16
44.73
44.22
42.55
39.36
34.59
28.71
22.68
17.67
14.55
13.56
14.20
15.62
16.94
17.70
18.02
18.23
18.53
18.61
17.70
14.92
9.89
3.00
-4.63
-11.58
-16.82
-20.07
-21.81
-23.02
-24.75
-27.71
-32.22
-38.15
-45.01
-51.93
-57.72
-60.98
-60.41
-55.24
-45.53
-32.28
-17.11
-1.88
11.82
23.07
31.69
37.98
42.32
45.01
45.97
45.08
42.34
38.07
32.91
27.67
22.90
18.88
15.54
12.73
10.41
8.72
7.78
7.43
7.19
6.39
4.32
0.70
-4.33
-10.15
-16.00
-21.12
-25.18
-28.18
-30.62
-33.25
-36.86
-41.88
-48.14
-54.73
-60.12
-62.68
-61.13
-55.01
-44.78
-31.58
-17.00
-2.63
10.25
20.90
29.03
34.71
38.07
39.26
38.40
35.69
31.55
26.76
22.29
19.03
17.49
17.53
18.48
19.49
19.90
19.57
18.81
17.98
17.22
16.28
14.62
11.83
7.90
3.29
-1.27
-5.23
-8.55
-11.65
-15.21
-19.90
-25.98
-33.37
-41.60
-49.90
-57.20
-62.26
-63.86
-61.13
-53.89
-42.83
-29.30
-14.93
-1.21
10.73
20.33
27.36
31.86
34.04
34.17
32.59
29.78
26.15
22.09
17.95
14.13
10.94
8.70
7.63
7.76
9.04
11.16
13.72
16.18
17.93
18.40
17.19
14.31
10.07
5.12
0.13
-4.44
-8.46
-12.25
-16.31
-21.18
-27.23
-34.46
-42.41
-50.18
-56.47
-59.80
-59.03
-53.53
-43.58
-30.39
-15.73
-1.47
10.92
20.69
27.77
32.43
35.13
36.17
35.80
34.24
31.86
29.10
26.40
24.06
22.18
20.70
19.57
18.77
18.47
18.80
19.74
21.01
22.06
22.21
20.82
17.58
12.54
6.23
-0.58
-7.05
-12.63
-17.33
-21.63
-26.41
-32.42
-39.88
-48.18
-55.97
-61.39
-62.83
-59.35
-51.04
-38.97
-24.81
-10.34
3.00
14.37
23.43
30.04
34.30
36.28
36.13
34.20
31.05
27.38
23.88
21.07
19.15
18.12
17.83
18.05
18.57
19.10
19.26
18.69
17.15
14.59
11.15
7.04
2.47
-2.35
-7.26
-12.10
-16.84
-21.62
-26.73
-32.57
-39.27
-46.39
-52.68
-56.44
-56.04
-50.62
-40.59
-27.49
-13.44
-0.40
10.32
18.22
23.35
26.02
26.59
25.40
22.96
19.91
16.92
14.44
12.56
11.11
9.91
8.92
8.31
8.24
8.66
9.21
9.39
8.71
7.00
4.46
1.39
-2.00
-5.81
-10.39
-16.10
-23.02
-30.95
-39.37
-47.67
-55.31
-61.84
-66.84
-69.80
-70.01
-66.69
-59.31
-47.82
-32.93
-15.97
1.44
17.83
32.21
44.18
53.74
61.03
66.13
68.96
69.43
67.73
64.29
59.84
55.12
50.63
46.51
42.61
38.61
34.35
29.97
25.73
21.90
18.45
15.02
11.10
6.30
0.53
-5.98
-12.75
-19.44
-25.84
-32.07
-38.43
-45.29
-52.86
-61.03
-69.19
-76.18
-80.52
-80.84
-76.48
-67.78
-56.05
-43.10
-30.57
-19.47
-10.01
-1.98
4.90
10.53
14.49
16.32
15.85
13.54
10.38
7.53
5.80
5.42
5.95
6.53
6.40
5.17
3.00
0.39
-2.14
-4.42
-6.71
-9.45
-13.17
-17.97
-23.53
-29.08
-33.81
-36.99
-38.32
-37.89
-36.09
-33.59
-30.99
-28.96
-27.89
-27.85
-28.46
-28.86
-27.91
-24.62
-18.55
-10.04
-0.24
9.44
17.88
24.64
30.02
34.77
39.58
44.72
50.06
55.22
59.88
64.12
68.36
73.11
78.79
85.49
92.92
100.51
107.56
113.26
116.79
117.39
114.50
107.88
97.70
84.56
69.41
53.31
37.28
22.10
8.24
-4.12
-15.06
-24.87
-33.86
-42.37
-50.73
-59.30
-68.36
-78.03
-87.99
-97.27
-104.37
-107.59
-105.57
-98.02
-85.85
-70.94
-55.48
-41.20
-28.92
-18.62
-9.81
-2.06
4.63
9.96
13.52
15.23
15.45
14.95
14.48
14.58
15.28
16.25
17.06
17.44
17.46
17.36
17.33
17.26
16.75
15.38
12.94
9.70
6.21
3.14
0.85
-0.72
-1.97
-3.52
-5.96
-9.77
-15.15
-22.00
-29.75
-37.41
-43.62
-47.01
-46.58
-42.02
-33.78
-22.91
-10.77
1.35
12.42
21.78
29.00
33.93
36.52
36.81
35.06
31.67
27.22
22.31
17.51
13.22
9.66
6.93
5.01
3.87
3.43
3.65
4.45
5.65
6.98
8.02
8.36
7.63
5.71
2.78
-0.77
-4.44
-7.88
-11.04
-14.17
-17.73
-22.18
-27.77
-34.47
-41.80
-48.78
-54.12
-56.49
-54.84
-48.79
-38.72
-25.71
-11.29
2.95
15.56
25.58
32.54
36.47
37.79
37.22
35.51
33.29
30.96
28.70
26.62
24.72
23.06
21.68
20.61
19.90
19.54
19.56
19.93
20.61
21.34
21.71
21.17
19.27
15.75
10.70
4.55
-2.06
-8.51
-14.34
-19.39
-23.72
-27.65
-31.59
-35.95
-40.96
-46.39
-51.54
-55.27
-56.34
-53.87
-47.61
-38.00
-25.96
-12.62
0.93
13.72
24.92
33.79
39.88
43.12
43.86
42.76
40.58
37.84
34.98
32.26
29.97
28.43
27.79
28.03
28.82
29.71
30.21
30.17
29.60
28.73
27.69
26.30
24.20
20.94
16.37
10.66
4.32
-2.15
-8.26
-13.87
-19.06
-24.01
-28.92
-33.95
-39.22
-44.83
-50.67
-56.30
-60.71
-62.62
-60.75
-54.39
-43.78
-30.03
-14.84
0.08
13.52
24.91
34.15
41.33
46.31
48.80
48.56
45.79
41.30
36.34
32.11
29.35
28.09
27.76
27.73
27.53
27.12
26.66
26.27
25.89
25.22
23.97
21.85
18.69
14.40
8.84
1.97
-6.05
-14.83
-23.70
-31.99
-39.22
-45.31
-50.53
-55.30
-59.85
-63.98
-66.95
-67.70
-65.22
-58.93
-48.94
-36.10
-21.68
-7.03
6.63
18.46
27.90
34.62
38.52
39.75
38.70
35.95
32.29
28.43
24.98
22.45
21.06
20.73
21.12
21.66
21.85
21.48
20.71
19.96
19.54
19.44
19.11
17.64
14.30
8.85
1.72
-6.16
-13.71
-20.14
-25.17
-29.09
-32.65
-36.79
-42.29
-49.47
-57.97
-66.66
-73.86
-77.64
-76.40
-69.47
-57.53
-42.71
-28.13
-16.94
-11.39
-11.94
-17.25
-24.61
-30.88
-33.59
-31.47
-24.61
-13.96
-0.93
13.03
26.64
38.70
48.11
54.02
56.03
54.39
50.09
44.53
39.19
35.15
32.73
31.65
31.19
30.79
30.15
29.39
28.80
28.56
28.49
28.21
27.28
25.41
22.61
19.02
14.79
10.09
4.98
-0.50
-6.29
-12.31
-18.48
-24.78
-31.23
-37.98
-45.10
-52.65
-60.52
-68.32
-75.36
-80.70
-83.50
-83.24
-79.86
-73.60
-64.80
-53.61
-40.01
-24.11
-6.46
11.80
29.05
43.71
54.74
61.82
65.37
66.19
65.12
62.87
59.99
56.92
53.99
51.46
49.35
47.55
45.76
43.59
40.68
36.69
31.36
24.41
15.73
5.52
-5.53
-16.28
-25.40
-31.73
-34.66
-34.46
-32.06
-28.83
-26.12
-24.95
-25.79
-28.62
-32.94
-37.75
-41.76
-43.52
-41.85
-36.21
-26.89
-14.98
-1.94
10.73
21.85
30.74
37.12
41.06
42.86
42.96
41.85
39.98
37.66
35.21
32.87
30.94
29.56
28.70
28.13
27.50
26.69
25.80
25.18
25.16
25.73
26.40
26.33
24.71
21.02
15.29
7.93
-0.44
-9.24
-18.00
-26.38
-34.21
-41.45
-48.27
-54.74
-60.74
-65.72
-68.63
-68.42
-64.29
-56.14
-44.68
-31.11
-16.72
-2.67
10.24
21.54
30.83
37.94
42.76
45.45
46.29
45.70
44.08
41.73
38.91
35.76
32.44
29.11
25.87
22.87
20.24
18.09
16.46
15.14
13.59
11.19
7.36
1.89
-4.78
-11.80
-18.23
-23.47
-27.57
-31.15
-35.05
-39.98
-46.27
-53.66
-61.45
-68.56
-73.70
-75.65
-73.45
-66.64
-55.43
-40.76
-24.16
-7.47
7.53
19.62
28.24
33.48
35.96
36.39
35.42
33.54
31.10
28.40
25.90
23.95
22.80
22.46
22.73
23.30
23.92
24.32
24.26
23.48
21.70
18.70
14.41
8.96
2.72
-3.90
-10.48
-16.66
-22.19
-27.07
-31.50
-35.85
-40.60
-46.02
-52.00
-57.87
-62.49
-64.46
-62.69
-56.58
-46.36
-33.00
-17.94
-2.72
11.33
23.30
32.74
39.53
43.78
45.76
45.68
43.96
41.16
37.95
35.04
32.98
32.10
32.33
33.32
34.49
35.38
35.60
34.99
33.67
31.69
29.15
26.00
22.05
17.09
11.11
4.30
-2.87
-9.89
-16.40
-22.44
-28.26
-34.24
-40.72
-47.71
-55.00
-61.94
-67.57
-70.72
-70.17
-65.04
-55.13
-41.16
-24.68
-7.74
7.75
20.38
29.53
35.10
37.36
36.72
33.75
29.16
23.68
18.03
12.66
7.62
2.70
-2.41
-7.81
-13.10
-17.46
-19.82
-19.32
-15.60
-9.03
-0.56
8.46
16.65
22.89
26.52
27.32
25.37
20.92
14.31
5.90
-3.78
-14.04
-23.88
-32.02
-37.00
-37.58
-33.13
-23.82
-10.75
4.33
19.41
32.70
42.91
49.45
52.36
52.19
49.83
46.24
42.29
38.55
35.25
32.32
29.56
26.84
24.15
21.63
19.37
17.50
15.99
14.76
13.74
12.83
11.85
10.49
8.34
4.93
0.09
-6.06
-13.08
-20.42
-27.56
-34.40
-41.17
-48.25
-56.01
-64.51
-73.39
-81.98
-89.38
-94.60
-96.73
-95.16
-89.79
-81.19
-70.61
-59.62
-49.67
-41.56
-35.35
-30.48
-26.25
-22.17
-18.12
-14.10
-9.90
-5.03
1.14
9.02
18.54
29.10
39.92
50.37
60.26
69.65
78.62
86.90
93.86
98.66
100.56
99.19
94.68
87.57
78.69
68.91
59.00
49.40
40.29
31.44
22.37
12.56
1.61
-10.46
-22.95
-34.60
-43.75
-48.82
-48.78
-43.55
-34.04
-21.86
-8.90
3.22
13.44
21.24
26.61
29.76
30.92
30.38
28.38
25.28
21.56
17.73
14.32
11.76
10.23
9.59
9.53
9.63
9.66
9.53
9.27
8.85
8.09
6.63
4.05
0.15
-4.88
-10.53
-16.07
-21.05
-25.38
-29.36
-33.65
-38.97
-45.67
-53.52
-61.60
-68.45
-72.53
-72.70
-68.53
-60.34
-49.00
-35.66
-21.33
-7.05
6.27
17.76
26.67
32.59
35.52
35.89
34.37
31.80
28.83
25.98
23.61
21.83
20.68
20.02
19.72
19.63
19.63
19.54
19.18
18.26
16.37
13.20
8.62
2.80
-3.77
-10.46
-16.79
-22.43
-27.38
-32.03
-36.91
-42.55
-49.13
-56.17
-62.48
-66.45
-66.42
-61.41
-51.57
-38.11
-22.93
-7.94
5.61
17.13
26.51
33.74
38.63
40.89
40.53
38.08
34.54
31.12
28.55
27.00
26.07
25.21
24.03
22.62
21.42
20.90
21.29
22.26
23.08
22.86
20.90
16.90
11.19
4.47
-2.48
-8.99
-14.79
-20.00
-24.99
-30.27
-36.32
-43.34
-51.17
-59.12
-65.90
-69.89
-69.57
-64.11
-53.75
-39.72
-23.86
-8.08
6.15
18.03
27.31
34.07
38.48
40.76
41.19
40.20
38.30
35.97
33.68
31.72
30.18
29.02
28.14
27.46
27.00
26.87
27.13
27.73
28.34
28.38
27.19
24.25
19.36
12.73
5.04
-2.79
-9.83
-15.46
-19.55
-22.55
-25.31
-28.90
-34.08
-40.89
-48.57
-55.54
-60.02
-60.53
-56.41
-47.93
-36.17
-22.57
-8.58
4.59
16.12
25.47
32.39
36.86
39.06
39.32
38.06
35.75
32.85
29.78
26.94
24.57
22.76
21.49
20.62
19.97
19.43
18.95
18.54
18.20
17.79
17.02
15.65
13.43
10.31
6.44
2.14
-2.21
-6.45
-10.68
-15.42
-21.21
-28.47
-37.06
-46.07
-54.09
-59.33
-60.33
-56.32
-47.55
-35.12
-20.72
-6.05
7.55
19.18
28.39
35.00
39.01
40.46
39.65
37.07
33.37
29.38
25.72
22.84
20.90
19.82
19.34
19.15
18.97
18.53
17.80
16.68
15.22
13.34
10.98
7.97
4.16
-0.44
-5.65
-10.97
-15.86
-19.93
-23.13
-25.89
-28.99
-33.28
-39.24
-46.79
-54.97
-62.25
-66.85
-67.20
-62.56
-53.07
-39.82
-24.44
-8.79
5.60
17.62
26.81
33.17
36.93
38.43
37.99
36.00
32.89
29.28
25.87
23.24
21.78
21.44
21.83
22.51
23.20
23.82
24.47
25.18
25.66
25.45
23.94
20.69
15.70
9.36
2.34
-4.69
-11.31
-17.34
-22.87
-28.14
-33.55
-39.47
-46.05
-53.07
-59.72
-64.71
-66.55
-64.04
-56.83
-45.49
-31.38
-16.16
-1.31
12.18
23.69
32.84
39.27
42.72
43.21
41.30
37.95
34.27
31.17
29.03
27.73
26.85
26.05
25.22
24.52
24.19
24.33
24.84
25.34
25.28
24.16
21.68
17.86
13.04
7.70
2.33
-2.82
-7.74
-12.66
-17.86
-23.59
-29.91
-36.78
-43.97
-51.03
-57.15
-61.30
-62.28
-59.07
-51.34
-39.56
-25.04
-9.58
5.09
17.67
27.42
34.13
37.86
38.83
37.40
34.15
29.85
25.32
21.27
18.08
15.82
14.40
13.70
13.73
14.44
15.72
17.18
18.17
18.08
16.54
13.59
9.54
4.95
0.20
-4.56
-9.28
-14.10
-19.15
-24.58
-30.60
-37.37
-44.85
-52.58
-59.61
-64.50
-65.81
-62.47
-54.28
-41.95
-26.92
-10.94
4.28
17.41
27.66
34.68
38.56
39.64
38.48
35.81
32.37
28.79
25.61
23.18
21.61
20.78
20.39
20.07
19.57
18.85
18.01
17.23
16.51
15.56
13.86
10.94
6.62
1.15
-4.83
-10.65
-15.75
-20.04
-23.88
-27.83
-32.51
-38.22
-44.78
-51.40
-56.79
-59.39
-57.95
-51.85
-41.42
-27.86
-12.90
1.72
14.60
24.90
32.23
36.57
38.08
37.15
34.32
30.34
26.00
22.03
18.96
17.01
16.12
16.09
16.59
17.37
18.19
18.90
19.33
19.35
18.77
17.45
15.34
12.43
8.81
4.56
-0.20
-5.31
-10.58
-15.79
-20.84
-25.70
-30.57
-35.60
-40.81
-45.70
-49.22
-50.04
-46.98
-39.54
-28.18
-14.33
0.10
13.30
24.03
31.80
36.72
39.22
39.75
38.56
35.82
31.81
26.98
22.03
17.71
14.56
12.81
12.29
12.64
13.48
14.49
15.41
16.02
16.01
15.10
13.17
10.24
6.50
2.26
-2.21
-6.77
-11.44
-16.32
-21.62
-27.67
-34.69
-42.53
-50.44
-57.05
-60.62
-59.67
-53.63
-43.02
-29.41
-14.79
-0.89
11.21
21.08
28.66
33.87
36.45
36.27
33.54
29.04
24.05
19.86
17.20
16.10
15.91
15.77
15.27
14.45
13.77
13.67
14.20
14.89
14.99
13.85
11.21
7.26
2.50
-2.47
-7.24
-11.66
-15.80
-19.94
-24.51
-29.94
-36.46
-43.93
-51.58
-58.12
-62.00
-61.81
-56.75
-47.03
-33.93
-19.34
-5.21
7.04
16.75
24.00
29.19
32.72
34.68
34.98
33.55
30.68
27.05
23.53
20.90
19.53
19.27
19.69
20.27
20.74
21.06
21.32
21.44
21.21
20.11
17.71
13.93
9.01
3.55
-1.82
-6.75
-11.18
-15.42
-19.99
-25.31
-31.56
-38.59
-45.80
-52.31
-56.92
-58.49
-56.13
-49.58
-39.33
-26.54
-12.71
0.73
12.68
22.57
30.11
35.15
37.64
37.58
35.35
31.66
27.42
23.55
20.59
18.68
17.66
17.24
17.17
17.39
17.86
18.51
19.12
19.43
19.22
18.35
16.85
14.69
11.92
8.52
4.50
-0.03
-4.88
-9.85
-14.85
-19.94
-25.36
-31.28
-37.63
-43.93
-49.19
-52.25
-52.02
-47.92
-40.09
-29.29
-16.75
-3.92
7.89
17.75
25.20
30.23
33.11
34.25
33.97
32.49
29.97
26.66
23.03
19.71
17.24
15.94
15.68
16.03
16.53
16.94
17.27
17.65
17.94
17.69
16.28
13.28
8.81
3.48
-1.78
-6.26
-9.80
-12.90
-16.44
-21.19
-27.50
-35.19
-43.58
-51.60
-58.06
-61.66
-61.33
-56.49
-47.32
-34.92
-21.04
-7.54
4.17
13.40
20.17
24.84
27.74
29.03
28.69
26.94
24.27
21.50
19.40
18.42
18.54
19.38
20.49
21.58
22.57
23.53
24.38
24.88
24.58
23.14
20.42
16.68
12.40
8.10
4.16
0.66
-2.52
-5.69
-9.11
-13.07
-17.68
-23.04
-29.06
-35.53
-41.98
-47.58
-51.27
-51.92
-48.81
-41.79
-31.51
-19.21
-6.50
5.15
14.79
22.04
26.97
29.94
31.25
31.16
29.86
27.65
25.08
22.79
21.42
21.29
22.27
23.87
25.38
26.16
25.93
24.76
22.92
20.67
18.13
15.16
11.54
7.15
2.11
-3.11
-7.95
-12.06
-15.37
-18.30
-21.42
-25.32
-30.15
-35.59
-40.83
-44.81
-46.54
-45.37
-41.09
-33.99
-24.72
-14.18
-3.39
6.75
15.38
21.93
26.03
27.71
27.22
25.12
22.03
18.52
15.11
12.15
9.88
8.52
8.16
8.82
10.41
12.62
14.93
16.73
17.50
16.87
14.77
11.34
6.94
2.01
-2.98
-7.67
-11.83
-15.37
-18.46
-21.36
-24.49
-28.18
-32.58
-37.47
-42.28
-46.09
-47.77
-46.38
-41.56
-33.59
-23.56
-12.78
-2.43
6.72
14.43
20.69
25.49
28.67
29.99
29.30
26.83
23.24
19.43
16.28
14.29
13.47
13.38
13.44
13.15
12.48
11.75
11.46
11.92
12.96
13.94
14.03
12.55
9.22
4.34
-1.30
-6.89
-11.72
-15.44
-18.13
-20.18
-22.19
-24.87
-28.80
-34.19
-40.68
-47.26
-52.40
-54.55
-52.58
-46.23
-36.17
-23.82
-10.86
1.28
11.67
19.86
25.72
29.38
31.05
31.04
29.79
27.79
25.52
23.47
21.90
20.91
20.50
20.51
20.71
20.94
21.18
21.50
21.99
22.54
22.90
22.63
21.35
18.88
15.36
11.11
6.54
1.97
-2.46
-6.65
-10.58
-14.23
-17.63
-21.01
-24.76
-29.21
-34.42
-39.89
-44.62
-47.33
-47.03
-43.31
-36.49
-27.49
-17.44
-7.33
2.20
10.72
17.98
23.64
27.42
29.15
28.88
26.91
23.79
20.16
16.68
13.92
12.21
11.70
12.20
13.31
14.51
15.39
15.74
15.54
14.90
13.77
11.98
9.24
5.37
0.54
-4.77
-9.78
-14.03
-17.31
-19.98
-22.70
-26.14
-30.74
-36.41
-42.56
-48.13
-51.89
-52.69
-49.78
-43.07
-33.17
-21.25
-8.80
2.85
12.77
20.51
26.11
29.78
31.78
32.35
31.68
30.13
28.16
26.28
24.80
23.77
22.93
21.87
20.36
18.41
16.37
14.70
13.70
13.34
13.25
12.83
11.48
8.92
5.14
0.43
-4.73
-9.89
-14.69
-19.03
-23.09
-27.31
-32.18
-37.95
-44.42
-50.78
-55.87
-58.40
-57.53
-53.11
-45.74
-36.40
-26.20
-15.96
-6.26
2.46
9.87
15.60
19.49
21.62
22.37
22.15
21.38
20.29
18.91
17.27
15.47
13.75
12.42
11.69
11.58
11.99
12.73
13.51
14.06
13.99
13.02
10.93
7.75
3.71
-0.78
-5.26
-9.41
-13.17
-16.70
-20.33
-24.50
-29.54
-35.57
-42.47
-49.63
-56.06
-60.55
-61.97
-59.76
-54.18
-46.26
-37.46
-29.24
-22.60
-18.07
-15.70
-15.40
-17.05
-20.49
-25.34
-31.00
-36.77
-42.01
-46.57
-50.60
-54.52
-58.63
-62.96
-67.07
-70.32
-72.19
-72.37
-70.95
-68.17
-64.14
-58.71
-51.44
-41.84
-29.74
-15.45
0.28
16.58
32.69
48.16
62.73
76.06
87.70
97.26
104.81
111.14
117.45
124.91
133.96
143.99
153.68
161.47
166.20
167.39
165.21
160.01
152.12
141.78
129.19
114.82
99.39
83.83
69.07
55.91
44.86
36.07
29.36
24.23
20.08
16.27
12.23
7.55
1.94
-4.77
-12.57
-21.25
-30.49
-39.86
-48.98
-57.73
-66.14
-74.48
-82.86
-91.12
-98.62
-104.29
-106.85
-105.23
-98.96
-88.39
-74.69
-59.39
-44.05
-29.84
-17.44
-7.20
0.73
6.20
9.14
9.70
8.40
6.04
3.50
1.50
0.43
0.37
1.05
2.13
3.14
3.70
3.54
2.57
0.81
-1.55
-4.27
-7.24
-10.40
-13.77
-17.33
-21.01
-24.66
-28.29
-32.10
-36.39
-41.41
-47.00
-52.34
-56.11
-56.78
-53.21
-45.15
-33.46
-19.81
-6.09
6.16
16.06
23.44
28.57
31.92
33.87
34.65
34.42
33.17
30.99
27.99
24.40
20.57
16.98
14.06
12.02
10.86
10.30
9.97
9.44
8.40
6.65
4.16
1.09
-2.19
-5.21
-7.61
-9.34
-10.76
-12.50
-15.19
-19.22
-24.49
-30.44
-36.15
-40.45
-42.12
-40.15
-34.00
-23.92
-11.06
2.73
15.55
25.97
33.36
37.91
40.19
40.73
39.79
37.45
33.78
29.10
23.95
18.97
14.76
11.66
9.75
8.93
8.82
8.95
8.83
8.04
6.39
3.98
1.03
-2.31
-6.03
-10.32
-15.37
-21.29
-28.03
-35.42
-43.19
-50.95
-58.06
-63.57
-66.41
-65.64
-60.84
-52.30
-41.10
-28.72
-16.74
-6.39
1.70
7.47
11.40
14.23
16.61
18.88
20.86
22.17
22.43
21.77
20.73
20.15
20.72
22.62
25.55
28.86
31.91
34.23
35.64
36.06
35.37
33.30
29.71
24.68
18.71
12.47
6.54
1.13
-4.07
-9.63
-15.94
-22.70
-28.87
-32.89
-33.28
-29.21
-20.92
-9.54
3.25
15.82
27.01
36.33
43.74
49.38
53.34
55.56
56.01
54.86
52.51
49.59
46.69
44.10
41.84
39.64
37.28
34.75
32.34
30.37
28.95
27.94
26.86
25.17
22.39
18.41
13.44
7.94
2.39
-2.80
-7.56
-12.08
-16.77
-22.10
-28.45
-35.84
-43.86
-51.57
-57.55
-60.36
-58.86
-52.66
-42.29
-29.09
-14.83
-1.18
10.72
20.45
28.04
33.68
37.39
39.03
38.44
35.81
31.74
27.10
22.80
19.34
16.79
14.85
13.13
11.47
10.03
9.20
9.25
10.15
11.38
12.19
11.81
9.77
6.18
1.60
-3.21
-7.61
-11.32
-14.48
-17.57
-21.17
-25.82
-31.77
-38.81
-46.19
-52.61
-56.60
-56.85
-52.64
-44.07
-32.13
-18.25
-4.07
9.03
20.09
28.53
34.14
36.95
37.24
35.48
32.30
28.41
24.46
20.89
17.96
15.69
14.01
12.85
12.23
12.30
13.19
14.87
16.97
18.85
19.79
19.22
16.89
13.01
8.04
2.59
-2.82
-7.92
-12.69
-17.35
-22.23
-27.74
-34.09
-41.04
-47.81
-53.02
-55.21
-53.26
-46.94
-37.01
-24.95
-12.44
-0.84
9.07
17.09
23.26
27.61
30.02
30.40
28.87
25.94
22.48
19.39
17.40
16.81
17.42
18.69
19.94
20.61
20.46
19.56
18.15
16.53
14.85
13.04
10.92
8.25
4.93
1.03
-3.24
-7.68
-12.08
-16.43
-20.75
-25.06
-29.45
-33.99
-38.73
-43.63
-48.36
-52.26
-54.38
-53.76
-49.79
-42.47
-32.59
-21.38
-10.18
0.03
8.77
15.98
21.76
26.04
28.64
29.39
28.36
25.94
22.85
19.89
17.74
16.78
17.05
18.34
20.26
22.40
24.32
25.78
26.68
27.04
26.97
26.36
24.93
22.25
17.95
12.06
4.99
-2.54
-9.78
-16.26
-21.82
-26.65
-31.03
-35.27
-39.60
-44.12
-48.66
-52.71
-55.41
-55.68
-52.63
-45.90
-35.90
-23.82
-11.26
0.27
9.77
16.86
21.77
25.00
27.06
28.19
28.38
27.53
25.65
23.08
20.41
18.29
17.15
16.99
17.46
17.99
18.20
17.93
17.30
16.48
15.61
14.59
13.19
11.14
8.30
4.68
0.43
-4.21
-8.95
-13.46
-17.56
-21.16
-24.37
-27.49
-30.79
-34.57
-38.73
-42.84
-46.06
-47.35
-45.75
-40.71
-32.36
-21.43
-9.18
3.17
14.66
24.74
33.19
39.89
44.61
47.08
47.14
44.94
41.02
36.20
31.34
27.11
23.80
21.39
19.62
18.24
17.04
16.02
15.23
14.70
14.43
14.20
13.75
12.83
11.25
8.82
5.49
1.32
-3.52
-8.57
-13.38
-17.54
-21.04
-24.20
-27.77
-32.40
-38.42
-45.38
-52.06
-56.89
-58.37
-55.75
-49.23
-39.87
-29.19
-18.65
-9.31
-1.58
4.46
9.00
12.18
14.14
15.10
15.31
14.98
14.31
13.41
12.28
11.07
9.98
9.26
9.10
9.47
10.13
10.75
11.09
11.03
10.59
9.85
8.73
7.17
5.08
2.57
-0.21
-3.09
-6.05
-9.23
-12.86
-17.15
-22.07
-27.46
-33.09
-38.76
-44.29
-49.27
-52.94
-54.28
-52.41
-46.84
-37.93
-26.73
-14.75
-3.34
6.55
14.60
20.77
25.07
27.54
28.12
26.97
24.53
21.58
18.93
17.21
16.65
17.00
17.79
18.48
18.70
18.38
17.68
16.86
16.12
15.47
14.72
13.52
11.54
8.60
4.81
0.60
-3.53
-7.07
-9.75
-11.68
-13.25
-15.08
-17.82
-21.92
-27.49
-34.17
-41.10
-47.09
-50.83
-51.28
-48.00
-41.19
-31.63
-20.44
-8.76
2.48
12.55
20.91
27.23
31.26
32.99
32.62
30.57
27.41
23.85
20.51
17.86
16.16
15.35
15.10
15.07
14.96
14.68
14.37
14.23
14.30
14.37
14.08
13.05
11.08
8.19
4.62
0.65
-3.51
-7.84
-12.36
-17.14
-22.14
-27.27
-32.47
-37.61
-42.49
-46.67
-49.50
-50.11
-47.79
-42.19
-33.64
-23.11
-11.87
-1.14
8.26
15.94
21.90
26.19
28.78
29.60
28.64
26.18
22.86
19.54
17.01
15.68
15.33
15.42
15.31
14.62
13.38
11.90
10.50
9.29
8.10
6.54
4.32
1.30
-2.30
-6.15
-9.91
-13.42
-16.71
-20.01
-23.65
-27.92
-32.95
-38.62
-44.47
-49.77
-53.56
-54.86
-53.05
-47.88
-39.74
-29.51
-18.36
-7.37
2.60
11.12
18.11
23.56
27.37
29.40
29.54
27.93
25.12
21.81
18.73
16.37
14.80
13.91
13.55
13.72
14.51
15.94
17.72
19.33
20.12
19.50
17.19
13.31
8.36
3.07
-1.94
-6.30
-10.08
-13.66
-17.58
-22.30
-28.00
-34.69
-42.10
-49.72
-56.76
-62.09
-64.34
-62.34
-55.62
-44.62
-30.84
-16.25
-2.71
8.60
17.25
23.52
27.90
30.78
32.37
32.70
31.78
29.85
27.35
24.81
22.82
21.72
21.47
21.84
22.44
23.10
23.83
24.71
25.64
26.24
25.89
23.94
20.14
14.70
8.34
1.96
-3.70
-8.42
-12.38
-16.20
-20.60
-26.02
-32.60
-39.98
-47.33
-53.53
-57.44
-58.06
-54.81
-47.70
-37.25
-24.61
-11.12
1.77
12.95
21.80
28.18
32.22
34.20
34.48
33.34
31.16
28.46
25.82
23.77
22.68
22.66
23.50
24.97
26.64
28.11
29.10
29.36
28.85
27.66
25.91
23.62
20.77
17.23
13.01
8.29
3.34
-1.58
-6.41
-11.30
-16.60
-22.53
-29.16
-36.06
-42.49
-47.47
-49.88
-48.81
-43.86
-35.28
-24.04
-11.60
0.62
11.53
20.46
27.20
31.74
34.09
34.32
32.64
29.46
25.39
21.16
17.32
14.33
12.37
11.48
11.59
12.44
13.75
15.14
16.29
16.95
16.89
15.87
13.65
10.11
5.25
-0.64
-7.12
-13.67
-19.88
-25.68
-31.23
-36.92
-42.85
-48.65
-53.43
-55.94
-54.99
-50.01
-41.29
-29.88
-17.32
-5.07
5.79
14.79
21.82
27.00
30.46
32.20
32.20
30.50
27.40
23.52
19.75
17.05
16.19
17.44
20.48
24.49
28.50
31.61
33.31
33.35
31.74
28.64
24.31
19.13
13.52
7.86
2.39
-2.79
-7.75
-12.72
-18.02
-24.06
-31.21
-39.55
-48.65
-57.39
-64.17
-67.30
-65.67
-59.11
-48.49
-35.40
-21.64
-8.66
2.69
12.23
20.09
26.43
31.33
34.67
36.34
36.33
34.85
32.36
29.46
26.74
24.61
23.21
22.42
22.03
21.74
21.41
20.92
20.26
19.33
17.94
15.81
12.81
8.97
4.61
0.15
-4.09
-8.02
-11.86
-16.00
-20.84
-26.66
-33.55
-41.34
-49.57
-57.43
-63.74
-67.09
-66.30
-60.76
-50.85
-37.82
-23.52
-9.68
2.46
12.47
20.53
27.08
32.37
36.32
38.68
39.34
38.51
36.78
34.87
33.40
32.57
32.24
32.05
31.75
31.27
30.74
30.26
29.86
29.38
28.51
26.99
24.60
21.31
17.25
12.62
7.67
2.68
-2.16
-6.71
-10.93
-14.87
-18.67
-22.57
-26.88
-31.93
-37.90
-44.65
-51.47
-57.19
-60.54
-60.42
-56.36
-48.62
-38.03
-25.74
-12.95
-0.59
10.65
20.27
27.96
33.61
37.26
39.14
39.65
39.17
38.10
36.80
35.58
34.72
34.44
34.80
35.75
37.12
38.54
39.63
40.09
39.76
38.56
36.46
33.52
29.76
25.21
19.98
14.18
8.08
2.05
-3.53
-8.36
-12.35
-15.65
-18.58
-21.55
-24.96
-29.17
-34.43
-40.83
-48.00
-55.08
-60.72
-63.31
-61.58
-55.11
-44.59
-31.61
-18.01
-5.29
5.76
14.96
22.50
28.46
32.76
35.32
36.10
35.35
33.58
31.40
29.32
27.74
26.84
26.63
26.95
27.57
28.13
28.42
28.33
27.86
27.05
25.90
24.29
22.04
18.93
14.91
10.10
4.78
-0.54
-5.40
-9.56
-13.10
-16.46
-20.22
-24.78
-30.29
-36.60
-43.25
-49.66
-55.11
-58.79
-59.79
-57.29
-50.95
-41.11
-28.82
-15.61
-2.97
8.08
17.05
23.96
28.96
32.06
33.21
32.43
30.08
26.87
23.83
21.86
21.38
22.20
23.63
24.82
25.15
24.37
22.62
20.24
17.73
15.39
13.45
11.95
10.80
9.76
8.41
6.44
3.68
0.28
-3.30
-6.61
-9.39
-11.80
-14.37
-17.89
-23.06
-30.35
-39.74
-50.56
-61.52
-70.80
-76.35
-76.45
-70.33
-58.38
-42.28
-24.31
-6.77
8.68
21.30
31.01
38.13
42.96
45.69
46.46
45.47
43.02
39.50
35.37
31.03
26.76
22.83
19.37
16.52
14.31
12.72
11.69
11.05
10.51
9.65
8.15
5.86
2.93
-0.24
-3.16
-5.43
-6.98
-8.12
-9.33
-11.08
-13.64
-16.94
-20.77
-24.95
-29.48
-34.42
-39.74
-45.00
-49.21
-51.06
-49.29
-43.29
-33.36
-20.74
-7.27
5.30
15.74
23.51
28.72
31.78
33.11
33.02
31.71
29.44
26.65
24.05
22.26
21.62
22.01
22.86
23.44
23.26
22.19
20.57
18.92
17.57
16.47
15.16
13.04
9.64
4.87
-0.95
-7.24
-13.30
-18.69
-23.20
-27.04
-30.66
-34.59
-39.33
-45.11
-51.81
-58.71
-64.72
-68.43
-68.68
-64.95
-57.53
-47.49
-36.22
-25.06
-14.81
-5.85
1.81
8.20
13.18
16.62
18.52
19.15
18.99
18.68
18.66
19.31
21.01
24.49
30.87
41.31
56.37
75.66
98.07
122.42
148.28
175.82
204.91
234.06
259.66
276.64
280.09
267.10
237.64
194.32
141.11
81.81
19.63
-42.62
-101.91
-154.71
-197.24
-226.29
-239.90
-237.97
-222.52
-197.32
-167.14
-136.66
-109.56
-87.98
-72.66
-63.27
-58.99
-58.57
-60.39
-62.48
-62.88
-60.28
-54.58
-47.08
-39.81
-34.67
-32.33
-31.77
-30.58
-25.86
-15.51
0.48
19.62
37.42
49.07
51.42
44.42
31.13
16.18
3.60
-4.95
-10.34
-14.91
-20.53
-27.28
-33.47
-36.56
-34.80
-28.18
-18.25
-7.17
3.48
13.36
23.10
33.54
44.64
55.21
63.19
66.54
64.16
56.44
45.23
33.31
23.53
18.12
18.11
23.14
31.52
40.56
47.26
49.03
44.44
33.54
17.90
0.00
-17.53
-32.69
-44.59
-53.33
-59.82
-65.19
-70.48
-76.58
-84.23
-93.85
-105.29
-117.51
-128.26
-134.62
-133.74
-124.02
-105.78
-81.47
-54.95
-30.30
-10.58
2.99
11.08
15.72
19.27
23.46
28.86
34.92
40.41
44.03
45.03
43.30
39.20
33.48
27.04
20.97
16.33
13.89
13.87
15.76
18.52
21.14
23.00
23.99
24.34
24.29
23.89
22.95
21.26
18.55
14.54
8.90
1.40
-7.87
-18.08
-27.78
-35.43
-40.10
-42.12
-43.05
-44.77
-48.24
-52.72
-56.13
-56.38
-52.81
-46.65
-40.27
-35.33
-31.36
-25.79
-15.47
1.19
22.90
45.76
65.24
78.29
84.71
86.73
87.45
89.37
93.45
99.40
106.43
113.98
121.79
129.72
137.00
141.82
141.58
133.80
117.38
93.51
65.61
37.97
14.04
-5.02
-20.34
-34.18
-48.26
-62.76
-76.42
-87.63
-95.65
-100.97
-104.91
-108.63
-112.44
-116.00
-118.94
-121.42
-124.48
-129.50
-137.37
-147.84
-159.08
-168.15
-171.76
-167.32
-153.69
-131.73
-104.09
-74.47
-46.74
-23.76
-6.59
5.71
15.64
26.20
39.45
55.52
72.62
87.79
98.68
104.75
107.74
110.65
116.10
125.03
136.51
148.67
160.17
171.16
183.11
197.59
214.90
233.33
249.69
260.72
264.27
259.87
248.08
229.59
204.63
173.29
136.21
95.21
53.15
13.14
-22.49
-52.75
-77.90
-98.83
-116.52
-131.87
-145.91
-159.85
-174.78
-191.04
-207.93
-223.89
-237.20
-246.73
-252.19
-253.50
-249.95
-239.98
-221.70
-194.38
-159.65
-121.64
-85.93
-57.21
-37.50
-25.58
-18.10
-11.45
-3.49
5.97
15.83
24.89
32.78
39.91
46.76
53.34
58.82
62.25
63.24
62.38
61.14
61.10
63.10
66.51
69.31
68.91
63.65
54.20
43.83
37.09
37.72
46.56
61.07
76.52
88.31
93.99
93.83
89.85
84.13
77.84
71.23
64.54
58.88
56.01
57.47
63.37
71.98
80.22
84.84
83.67
76.43
64.59
50.81
37.78
27.24
19.60
13.97
8.72
2.31
-6.21
-17.00
-29.37
-41.97
-53.02
-60.76
-64.06
-63.13
-59.89
-57.53
-59.31
-67.02
-80.03
-95.58
-110.15
-121.18
-128.17
-132.48
-136.18
-140.64
-145.87
-150.87
-154.57
-156.58
-157.26
-157.04
-155.73
-152.30
-145.40
-134.17
-119.02
-101.74
-84.94
-71.28
-62.47
-58.65
-58.27
-58.65
-57.10
-51.92
-43.33
-33.29
-24.81
-20.59
-21.79
-27.44
-35.06
-41.74
-45.55
-46.44
-46.13
-47.19
-51.60
-59.35
-67.66
-71.54
-65.24
-44.62
-9.44
35.74
82.42
120.90
144.34
151.95
149.69
147.83
156.19
179.67
216.27
258.31
295.73
320.07
326.61
314.90
288.02
251.45
212.32
178.44
156.41
149.38
155.36
167.38
176.01
173.19
155.39
124.76
87.55
51.04
20.89
-0.19
-12.28
-16.95
-16.00
-11.02
-3.35
5.66
14.55
22.25
28.42
33.36
37.57
41.27
43.88
44.23
40.86
32.59
19.00
0.73
-20.35
-41.21
-58.21
-68.22
-69.66
-63.34
-52.12
-39.78
-29.60
-23.10
-19.95
-18.69
-17.89
-16.90
-15.89
-15.34
-15.51
-16.14
-16.75
-16.95
-16.65
-16.06
-15.48
-15.10
-14.95
-15.00
-15.09
-15.00
-14.36
-12.72
-9.75
-5.44
-0.38
4.29
7.13
6.92
2.90
-4.87
-15.67
-27.87
-39.26
-47.34
-49.99
-46.06
-35.54
-19.97
-1.91
15.52
29.74
39.43
44.40
45.46
43.95
41.77
40.09
39.41
39.03
37.77
34.35
27.36
15.91
-0.26
-19.82
-41.26
-62.51
-82.03
-98.26
-109.97
-117.21
-120.67
-121.79
-121.58
-122.55
-122.83
-122.66
-123.40
-126.67
-133.35
-141.29
-152.53
-162.85
-168.19
-166.76
-159.99
-150.81
-137.95
-121.86
-102.96
-81.90
-58.71
-34.59
-11.36
8.54
22.95
30.53
30.61
24.31
14.21
4.56
-1.06
-0.36
6.78
18.66
32.45
44.77
53.37
57.48
57.99
56.03
52.54
48.12
43.19
38.43
34.39
31.64
30.22
29.56
28.17
24.34
16.93
5.97
-7.10
-20.21
-31.14
-38.31
-41.05
-39.81
-35.78
-30.32
-24.53
-18.93
-13.62
-8.50
-3.57
0.84
4.15
5.89
5.85
4.18
1.30
-2.20
-5.70
-8.47
-9.90
-9.52
-7.19
-3.22
1.73
6.87
11.54
15.34
18.12
19.85
20.57
20.29
19.14
17.33
15.16
12.89
10.51
7.77
4.28
-0.28
-5.85
-11.96
-17.62
-21.68
-23.15
-21.62
-17.33
-11.05
-3.79
3.54
10.32
16.19
20.85
23.97
25.18
24.35
21.67
17.79
13.60
9.92
7.19
5.40
4.19
2.99
1.35
-0.95
-3.80
-6.72
-8.98
-9.91
-9.01
-6.22
-1.87
3.44
9.17
14.98
20.90
27.12
33.66
40.21
46.06
50.33
52.35
51.88
49.26
45.25
40.69
36.35
32.78
30.27
28.99
29.01
30.19
32.13
34.19
35.56
35.59
33.94
30.75
26.47
21.66
16.76
12.02
7.53
3.40
-0.20
-3.06
-5.04
-6.12
-6.44
-6.17
-5.59
-4.94
-4.44
-4.42
-5.23
-7.31
-10.96
-16.25
-22.83
-30.05
-37.08
-43.17
-47.92
-51.52
-54.54
-57.78
-61.80
-66.60
-71.51
-75.36
-76.83
-74.89
-69.20
-60.12
-48.65
-36.12
-23.72
-12.36
-2.52
5.68
12.28
17.51
21.62
24.91
27.63
29.93
31.84
33.34
34.43
35.15
35.71
36.40
37.41
38.70
40.03
40.91
40.98
40.10
38.45
36.44
34.49
32.71
30.93
28.72
25.64
21.49
16.39
10.68
4.88
-0.43
-4.71
-7.37
-7.86
-5.86
-1.44
4.82
11.95
18.87
24.59
28.46
30.24
30.02
28.17
25.27
21.95
18.83
16.32
14.59
13.55
12.96
12.53
12.01
11.32
10.47
9.59
8.87
8.53
8.72
9.44
10.63
12.16
13.86
15.51
16.76
17.19
16.39
14.23
11.03
7.45
4.30
2.21
1.51
2.15
3.97
6.75
10.25
14.01
17.29
19.19
18.98
16.49
12.23
7.32
3.01
0.23
-0.78
-0.58
-0.18
-0.63
-2.56
-5.92
-10.11
-14.20
-17.38
-19.23
-19.82
-19.46
-18.57
-17.40
-16.02
-14.48
-12.86
-11.47
-10.72
-10.95
-12.21
-14.14
-16.13
-17.57
-18.12
-17.94
-17.53
-17.37
-17.65
-17.97
-17.62
-15.89
-12.39
-7.36
-1.53
4.24
9.27
13.20
16.05
17.94
19.00
19.25
18.73
17.61
16.22
14.95
14.01
13.37
12.76
11.93
10.87
9.78
9.01
8.86
9.40
10.47
11.82
13.13
14.07
14.27
13.32
10.89
6.97
1.89
-3.65
-8.97
-13.69
-17.77
-21.37
-24.50
-26.81
-27.75
-26.86
-24.10
-19.97
-15.28
-10.73
-6.75
-3.34
-0.35
2.20
4.01
4.65
3.83
1.63
-1.39
-4.54
-7.25
-9.31
-10.88
-12.30
-13.85
-15.53
-17.08
-18.11
-18.36
-17.75
-16.49
-14.87
-13.22
-11.79
-10.72
-10.05
-9.77
-9.93
-10.63
-12.09
-14.60
-18.10
-22.25
-26.27
-29.10
-29.83
-28.05
-23.99
-18.43
-12.38
-6.55
-1.37
3.06
6.73
9.53
11.20
11.48
10.28
7.78
4.50
1.10
-1.70
-3.32
-3.51
-2.36
-0.37
1.75
3.39
4.15
3.92
2.89
1.34
-0.41
-2.11
-3.53
-4.53
-5.16
-5.63
-6.45
-8.26
-11.47
-16.16
-21.85
-27.66
-32.62
-35.96
-37.24
-36.39
-33.60
-29.10
-23.22
-16.33
-9.01
-1.98
4.11
8.73
11.70
13.12
13.33
12.71
11.57
10.10
8.41
6.55
4.70
3.13
2.14
2.05
2.90
4.50
6.41
8.02
8.79
8.30
6.40
3.16
-1.05
-5.56
-9.50
-12.03
-12.83
-12.29
-11.52
-11.81
-14.15
-18.68
-24.54
-30.19
-34.06
-35.10
-33.03
-28.26
-21.57
-13.89
-6.04
1.26
7.44
12.07
14.97
16.09
15.65
14.01
11.68
9.26
7.35
6.40
6.56
7.56
8.74
9.46
9.22
7.96
6.03
3.85
1.80
-0.10
-2.02
-4.36
-7.43
-11.39
-16.23
-21.76
-27.65
-33.39
-38.38
-42.24
-44.99
-47.06
-49.03
-51.33
-53.72
-55.35
-54.97
-51.40
-44.10
-33.32
-20.08
-5.79
8.10
20.49
30.78
38.96
45.42
50.84
55.91
61.07
66.24
70.83
73.99
74.97
73.39
69.56
64.28
58.55
53.17
48.30
43.49
37.92
30.85
21.88
11.18
-0.66
-12.89
-24.76
-35.77
-45.53
-53.83
-60.55
-65.71
-69.58
-72.75
-75.97
-79.93
-84.88
-90.54
-96.02
-100.20
-101.94
-100.40
-95.27
-86.85
-75.91
-63.65
-51.47
-40.66
-32.13
-26.04
-21.90
-18.78
-15.87
-12.97
-10.65
-9.90
-11.46
-15.19
-19.84
-23.68
-25.03
-22.76
-16.29
-5.34
10.25
30.16
53.02
76.03
95.37
107.48
110.63
105.80
96.27
86.24
78.78
74.76
72.99
71.35
68.25
63.42
57.81
52.73
49.09
46.94
45.75
44.92
44.31
44.36
45.79
48.99
53.64
58.60
62.25
63.11
60.51
54.88
47.58
40.39
34.78
31.43
30.11
29.96
30.07
29.82
29.02
27.90
26.81
25.94
25.27
24.44
22.85
19.93
15.45
9.70
3.45
-2.33
-6.87
-9.96
-11.88
-13.35
-15.13
-17.79
-21.50
-26.08
-30.99
-35.45
-38.49
-39.16
-36.95
-31.83
-24.44
-15.70
-6.64
1.90
9.38
15.45
20.00
22.99
24.54
24.84
24.19
22.87
21.13
19.13
16.89
14.36
11.45
8.08
4.29
0.30
-3.55
-6.74
-8.97
-10.29
-11.18
-12.42
-14.77
-18.66
-24.04
-30.39
-37.15
-43.98
-51.07
-58.90
-67.77
-77.25
-85.87
-91.57
-92.30
-86.88
-75.38
-59.13
-39.96
-19.64
0.48
19.46
36.41
50.52
61.07
67.88
71.40
72.66
72.82
72.70
72.60
72.33
71.59
70.21
68.22
65.79
63.03
59.90
56.25
52.04
47.33
42.26
36.94
31.36
25.48
19.22
12.55
5.50
-1.79
-9.21
-16.68
-24.20
-31.81
-39.53
-47.34
-55.07
-62.45
-68.95
-73.80
-76.19
-75.43
-71.28
-63.98
-54.29
-43.25
-32.02
-21.65
-12.90
-6.25
-1.78
0.75
1.86
2.23
2.53
3.18
4.30
5.68
6.86
7.47
7.26
6.27
4.77
3.13
1.57
0.11
-1.41
-3.32
-5.76
-8.67
-11.72
-14.52
-16.73
-18.35
-19.69
-21.28
-23.69
-27.28
-32.03
-37.46
-42.65
-46.29
-47.13
-44.27
-37.47
-27.41
-15.41
-3.12
7.92
16.72
22.96
26.90
28.99
29.75
29.45
28.23
26.24
23.54
20.45
17.45
15.05
13.65
13.38
13.99
14.98
15.95
16.60
16.92
16.86
16.24
14.62
11.63
7.07
1.26
-5.02
-10.93
-15.89
-19.87
-23.39
-27.12
-31.47
-36.24
-40.63
-43.38
-43.31
-39.66
-32.38
-22.23
-10.34
1.87
13.18
22.66
29.83
34.50
36.73
36.83
35.17
32.38
29.03
25.72
22.96
21.15
20.49
21.01
22.43
24.26
25.95
26.99
27.10
26.24
24.53
22.16
19.22
15.79
11.94
7.87
3.80
-0.09
-3.82
-7.72
-12.24
-17.76
-24.30
-31.48
-38.34
-43.63
-46.09
-44.73
-39.35
-30.52
-19.46
-7.66
3.51
13.11
20.65
25.94
28.94
29.65
28.26
25.29
21.50
17.83
15.01
13.40
12.86
13.04
13.59
14.40
15.53
16.94
18.40
19.38
19.17
17.21
13.44
8.31
2.60
-2.83
-7.49
-11.36
-14.82
-18.47
-22.82
-28.04
-33.91
-39.90
-45.11
-48.50
-49.02
-45.91
-38.98
-28.66
-16.04
-2.57
10.21
21.05
29.25
34.61
37.39
37.99
36.88
34.45
31.12
27.41
23.91
21.19
19.55
18.98
19.15
19.62
20.14
20.71
21.45
22.39
23.24
23.37
22.13
19.09
14.31
8.32
1.83
-4.50
-10.28
-15.29
-19.57
-23.34
-26.92
-30.81
-35.34
-40.54
-45.70
-49.60
-50.75
-48.02
-41.12
-30.70
-18.20
-5.18
7.07
17.74
26.48
33.08
37.40
39.35
39.12
37.13
34.13
30.89
28.07
26.09
24.99
24.58
24.58
24.70
24.76
24.69
24.54
24.35
24.11
23.67
22.57
20.28
16.33
10.65
3.70
-3.66
-10.49
-16.08
-20.28
-23.54
-26.54
-30.02
-34.38
-39.65
-45.39
-50.80
-54.90
-56.61
-55.09
-49.96
-41.49
-30.50
-18.23
-5.94
5.33
14.83
22.22
27.38
30.37
31.29
30.43
28.25
25.34
22.42
20.15
19.02
19.17
20.36
22.07
23.81
25.22
26.17
26.61
26.54
25.92
24.58
22.35
19.14
14.96
10.02
4.60
-0.99
-6.46
-11.64
-16.52
-21.34
-26.53
-32.45
-39.21
-46.48
-53.31
-58.38
-60.36
-58.28
-51.90
-41.81
-29.30
-15.92
-3.09
8.25
17.63
24.92
30.11
33.26
34.40
33.62
31.27
27.90
24.28
21.07
18.67
17.18
16.40
16.00
15.71
15.37
15.03
14.76
14.62
14.57
14.43
13.89
12.60
10.34
7.04
2.92
-1.61
-6.04
-9.98
-13.33
-16.34
-19.56
-23.51
-28.52
-34.46
-40.68
-46.09
-49.51
-49.94
-46.85
-40.30
-30.87
-19.67
-7.97
3.07
12.58
20.14
25.64
29.31
31.42
32.32
32.22
31.26
29.63
27.51
25.19
22.99
21.14
19.70
18.70
18.01
17.54
17.22
16.98
16.75
16.39
15.69
14.35
12.23
9.28
5.64
1.51
-2.92
-7.40
-11.73
-15.69
-19.16
-22.13
-24.88
-27.93
-31.72
-36.48
-41.61
-45.93
-47.87
-46.14
-40.26
-30.83
-19.24
-7.08
4.26
14.09
22.18
28.60
33.29
36.13
36.86
35.42
32.13
27.61
22.82
18.65
15.81
14.58
14.94
16.47
18.65
20.92
22.67
23.51
23.08
21.32
18.38
14.64
10.55
6.45
2.65
-0.71
-3.46
-5.52
-6.84
-7.73
-8.74
-10.68
-14.15
-19.09
-24.66
-29.30
-31.35
-29.63
-23.83
-14.33
-1.91
12.60
28.44
44.63
59.74
71.96
79.54
81.38
77.40
68.63
56.56
42.72
28.37
14.49
2.05
-7.94
-14.64
-17.71
-17.46
-14.95
-11.60
-8.74
-7.32
-7.75
-9.90
-13.39
-17.61
-22.05
-26.39
-30.48
-34.39
-38.23
-41.97
-45.61
-49.22
-53.00
-57.36
-62.72
-69.07
-75.79
-81.62
-84.95
-84.29
-78.87
-68.87
-55.38
-40.02
-24.44
-9.91
2.75
13.14
21.05
26.38
29.19
29.73
28.62
26.64
24.52
22.77
21.54
20.78
20.39
20.38
20.84
21.92
23.64
25.77
27.87
29.34
29.58
28.21
25.28
21.27
17.04
13.49
11.28
10.58
10.93
11.38
10.79
7.99
2.09
-7.35
-20.04
-34.94
-50.23
-63.73
-73.45
-78.10
-77.44
-72.24
-63.94
-54.08
-44.00
-34.49
-25.95
-18.59
-12.59
-8.14
-5.24
-3.48
-1.95
0.43
4.64
11.01
19.08
27.72
35.62
41.87
46.12
48.53
49.35
48.67
46.27
42.01
35.99
28.86
21.51
14.85
9.33
4.86
0.84
-3.37
-8.32
-14.06
-20.31
-26.47
-31.76
-35.41
-36.73
-35.29
-30.98
-24.21
-15.71
-6.46
2.59
10.72
17.57
22.94
26.74
28.95
29.51
28.51
26.28
23.35
20.24
17.48
15.25
13.59
12.30
11.17
10.18
9.43
9.09
9.20
9.60
9.81
9.23
7.46
4.42
0.48
-3.75
-7.65
-10.95
-13.78
-16.67
-20.24
-24.94
-30.90
-37.72
-44.64
-50.60
-54.55
-55.54
-53.08
-47.10
-38.10
-26.98
-14.91
-3.14
7.31
15.71
21.76
25.53
27.31
27.41
26.16
23.76
20.49
16.73
12.99
9.82
7.67
6.72
6.83
7.72
9.07
10.61
12.14
13.35
13.84
13.24
11.27
7.97
3.77
-0.73
-4.85
-8.13
-10.54
-12.44
-14.45
-17.17
-20.96
-25.68
-30.81
-35.39
-38.43
-39.09
-36.95
-32.07
-24.90
-16.20
-6.85
2.22
10.22
16.59
21.11
23.81
24.90
24.62
23.22
20.99
18.30
15.71
13.76
12.88
13.21
14.49
16.26
17.94
19.13
19.60
19.44
18.76
17.62
16.04
13.91
11.19
7.87
4.17
0.41
-3.12
-6.33
-9.52
-13.24
-18.10
-24.35
-31.66
-38.98
-44.86
-47.98
-47.57
-43.82
-37.61
-30.30
-23.08
-16.77
-11.61
-7.48
-4.09
-1.19
1.36
3.75
6.15
8.77
11.65
14.47
16.64
17.41
16.37
13.60
9.87
6.31
4.00
3.50
4.60
6.52
8.00
7.98
5.73
1.21
-5.13
-12.46
-19.81
-26.35
-31.39
-34.55
-35.79
-35.58
-34.76
-34.46
-35.56
-38.25
-41.76
-44.45
-44.32
-39.85
-30.69
-17.77
-2.90
11.80
24.76
35.16
43.04
48.88
53.24
56.38
58.32
58.95
58.23
56.41
53.93
51.34
49.12
47.54
46.52
45.79
45.02
43.99
42.67
41.10
39.33
37.21
34.44
30.62
25.51
19.12
11.78
4.16
-3.11
-9.52
-14.92
-19.53
-23.78
-28.17
-33.16
-38.87
-44.93
-50.50
-54.35
-55.22
-52.30
-45.58
-35.95
-24.81
-13.66
-3.50
5.12
12.21
17.91
22.22
25.03
26.24
25.98
24.71
23.12
21.78
21.00
20.79
20.83
20.81
20.48
19.80
18.90
17.97
17.21
16.78
16.69
16.61
16.07
14.45
11.38
6.86
1.39
-4.26
-9.41
-13.71
-17.35
-20.80
-24.68
-29.40
-34.90
-40.68
-45.80
-49.14
-49.70
-46.98
-41.18
-33.16
-24.32
-15.89
-8.72
-3.03
1.42
4.93
7.70
9.75
10.99
11.35
11.04
10.41
9.92
9.96
10.55
11.48
12.37
12.94
13.11
13.03
12.93
12.92
12.87
12.42
11.14
8.75
5.32
1.12
-3.40
-7.80
-11.76
-14.99
-17.37
-18.99
-20.26
-21.86
-24.59
-28.94
-34.66
-40.70
-45.33
-46.86
-44.21
-37.37
-27.40
-15.88
-4.48
5.67
13.98
20.33
24.81
27.48
28.39
27.59
25.37
22.17
18.67
15.44
12.92
11.27
10.33
9.75
9.14
8.24
7.05
5.79
4.70
3.79
2.85
1.35
-1.22
-5.11
-10.08
-15.45
-20.29
-23.80
-25.66
-26.00
-25.52
-25.05
-25.33
-26.88
-29.84
-33.93
-38.37
-42.11
-43.92
-42.88
-38.56
-31.24
-21.74
-11.30
-1.25
7.21
13.12
16.09
16.37
14.90
13.00
11.81
11.87
13.11
15.22
18.19
22.36
28.08
35.09
42.12
47.35
49.35
47.98
44.58
41.27
39.85
40.67
42.63
43.75
42.27
37.47
29.80
20.45
10.64
1.06
-8.35
-18.19
-29.13
-41.39
-54.39
-66.86
-77.34
-84.71
-88.52
-89.01
-86.70
-82.11
-75.76
-68.40
-61.15
-55.50
-52.78
-53.47
-57.07
-62.26
-67.82
-73.30
-79.30
-86.84
-96.37
-106.74
-115.13
-118.13
-113.16
-99.68
-79.43
-55.81
-32.78
-14.16
-3.32
-2.84
-14.08
-36.33
-66.11
-97.61
-123.99
-139.57
-141.55
-130.62
-109.95
-83.58
-54.55
-23.87
9.15
45.90
87.05
131.61
176.54
217.82
251.66
276.07
291.33
299.36
302.53
302.39
299.36
293.04
282.98
269.02
251.26
229.83
204.90
177.38
149.20
123.10
101.63
86.05
75.72
68.36
60.95
50.64
35.63
15.59
-8.21
-32.86
-54.29
-68.62
-73.70
-70.07
-61.04
-51.29
-44.95
-43.99
-47.79
-54.12
-60.37
-64.79
-66.60
-65.65
-61.84
-54.98
-44.88
-31.70
-16.23
0.22
15.91
29.06
38.03
41.89
40.60
35.39
28.57
22.95
21.20
24.94
34.37
48.52
66.09
86.16
108.48
133.06
159.25
185.17
207.82
223.91
231.17
228.98
218.02
199.15
172.56
137.56
93.49
40.91
-17.39
-76.32
-129.59
-171.25
-197.15
-205.77
-198.26
-177.85
-149.03
-116.90
-86.58
-62.65
-48.39
-44.99
-50.92
-62.34
-74.33
-82.84
-86.43
-86.73
-87.41
-92.16
-102.82
-118.74
-137.58
-156.82
-175.07
-192.75
-211.78
-234.68
-263.64
-299.77
-342.47
-388.80
-433.36
-468.98
-488.08
-484.63
-456.02
-403.95
-334.46
-256.40
-179.30
-111.09
-56.46
-16.45
11.02
29.75
43.90
56.78
70.27
84.69
99.08
111.69
120.47
123.37
118.58
105.02
82.91
54.35
23.36
-4.89
-25.47
-35.17
-33.49
-22.47
-5.31
15.20
37.72
62.39
89.52
118.39
146.59
170.70
187.53
195.55
195.29
189.00
179.47
168.96
158.60
148.27
137.25
124.89
111.19
96.83
83.14
71.71
64.09
61.29
63.35
69.07
76.17
82.09
84.86
83.93
80.28
75.88
72.60
71.42
72.03
73.36
74.20
73.71
71.52
67.56
62.09
56.01
51.06
49.66
53.97
64.63
80.00
96.36
109.22
115.16
113.01
103.80
89.64
72.21
52.11
29.20
3.74
-22.68
-46.91
-65.13
-74.30
-73.35
-63.63
-48.31
-31.19
-15.41
-2.82
6.16
12.10
15.82
17.99
19.01
19.30
19.66
21.39
25.79
33.65
44.68
57.28
68.98
77.06
79.35
74.84
63.93
48.24
30.18
12.20
-3.88
-17.25
-28.08
-37.05
-44.77
-51.37
-56.44
-59.41
-59.90
-58.07
-54.52
-50.10
-45.58
-41.56
-38.61
-37.32
-38.27
-41.64
-46.88
-52.64
-57.24
-59.40
-58.90
-56.78
-54.86
-54.88
-57.68
-62.90
-69.11
-74.57
-77.82
-78.27
-76.37
-73.27
-70.36
-68.81
-69.13
-71.19
-74.40
-78.02
-81.60
-85.04
-88.45
-92.08
-96.29
-101.55
-108.54
-117.70
-128.74
-140.13
-149.10
-152.27
-146.87
-131.83
-108.42
-79.85
-50.17
-23.06
-0.67
16.57
29.71
40.51
50.55
60.74
71.14
81.06
89.48
95.41
98.19
97.83
94.98
90.81
86.78
84.10
83.40
84.70
87.40
90.61
93.27
94.39
93.09
88.86
81.65
72.02
61.02
49.84
39.26
29.45
20.11
11.02
2.56
-4.13
-7.52
-6.23
0.12
10.72
23.72
36.77
47.81
55.53
59.44
59.60
56.52
50.78
43.11
34.51
26.12
19.25
14.91
13.59
14.94
18.01
21.52
24.35
25.90
26.09
25.33
24.13
22.89
21.78
20.73
19.50
17.83
15.56
12.71
9.52
6.36
3.58
1.22
-1.02
-3.64
-6.97
-10.67
-13.86
-15.27
-13.77
-8.94
-1.35
7.71
16.64
24.07
29.18
31.63
31.46
28.85
24.11
17.76
10.71
4.31
0.02
-0.91
1.91
7.78
15.00
21.39
25.05
25.00
21.36
14.94
6.58
-3.43
-15.26
-29.23
-45.08
-61.57
-76.82
-89.13
-97.71
-103.16
-107.10
-111.24
-116.46
-122.08
-126.09
-126.03
-120.22
-108.51
-92.40
-74.22
-56.12
-39.20
-23.41
-8.15
6.87
21.05
33.19
42.38
48.70
53.27
57.62
62.83
68.93
75.12
80.55
85.00
89.10
93.90
100.00
107.03
113.56
117.46
116.78
110.61
99.45
85.35
71.30
59.99
52.54
47.82
42.65
33.46
17.88
-4.18
-30.77
-59.07
-86.74
-112.60
-136.43
-158.20
-177.43
-193.21
-204.91
-212.81
-218.24
-223.33
-230.13
-239.84
-252.34
-266.07
-278.63
-287.68
-291.49
-289.45
-281.97
-270.09
-254.92
-237.10
-216.41
-191.70
-161.53
-124.72
-81.35
-32.72
19.23
73.05
128.55
186.56
247.52
309.55
367.38
412.98
438.27
438.53
414.58
372.77
322.50
272.96
230.32
197.02
172.51
154.96
142.86
135.54
132.79
133.97
137.38
140.35
139.90
133.87
121.47
103.62
82.28
59.67
37.54
16.88
-1.91
-18.58
-32.62
-43.38
-50.50
-54.41
-56.49
-58.24
-59.93
-59.64
-53.68
-38.25
-12.03
22.32
58.47
88.60
106.33
108.81
96.91
73.99
44.30
11.74
-20.17
-48.05
-68.73
-79.78
-80.50
-72.32
-58.49
-42.93
-29.13
-19.42
-14.75
-15.02
-19.35
-26.51
-35.34
-45.10
-55.44
-66.50
-78.56
-91.58
-105.09
-117.94
-128.56
-135.44
-137.41
-133.95
-125.24
-112.04
-95.58
-77.48
-59.50
-43.47
-30.97
-23.08
-20.16
-21.87
-27.27
-35.04
-43.76
-51.96
-58.28
-61.51
-60.78
-55.69
-46.44
-33.82
-18.90
-2.90
13.09
28.10
41.27
51.82
59.16
63.05
63.81
62.47
60.68
60.48
63.61
70.91
81.89
94.71
106.78
115.76
120.61
121.86
121.42
121.62
124.25
129.97
138.02
146.57
153.13
155.21
150.85
138.98
119.70
93.95
63.27
29.48
-5.52
-39.61
-70.29
-94.90
-111.12
-117.54
-114.25
-102.81
-85.84
-66.32
-47.04
-30.38
-18.13
-11.46
-10.74
-15.51
-24.48
-35.98
-48.24
-59.88
-70.04
-78.47
-85.31
-90.80
-95.03
-97.79
-98.67
-97.35
-93.83
-88.60
-82.42
-75.99
-69.60
-62.99
-55.65
-47.21
-38.02
-29.27
-22.69
-19.85
-21.40
-26.61
-33.51
-39.52
-42.33
-40.71
-34.79
-25.80
-15.45
-5.31
3.54
10.51
15.25
17.48
16.93
13.55
7.60
-0.24
-9.03
-17.67
-25.20
-30.89
-34.25
-35.13
-33.60
-29.96
-24.69
-18.30
-11.22
-3.75
3.91
11.57
19.04
26.01
32.07
36.72
39.36
39.42
36.52
30.75
22.71
13.72
5.47
-0.22
-2.08
0.27
6.28
14.59
23.59
31.93
38.76
43.79
47.09
48.71
48.65
46.87
43.44
38.71
33.29
27.92
23.14
19.28
16.39
14.34
12.91
11.81
10.68
9.25
7.37
5.08
2.57
0.05
-2.49
-5.42
-9.35
-14.82
-21.97
-30.37
-39.05
-46.81
-52.44
-55.00
-53.89
-48.96
-40.51
-29.34
-16.70
-4.01
7.37
16.44
22.73
26.44
28.17
28.67
28.49
27.89
26.86
25.27
23.14
20.66
18.21
16.14
14.68
13.73
13.06
12.35
11.32
9.96
8.29
6.41
4.37
2.14
-0.39
-3.44
-7.16
-11.69
-16.90
-22.44
-27.72
-32.01
-34.62
-34.94
-32.64
-27.64
-20.13
-10.70
-0.31
9.80
18.33
24.18
26.73
26.02
22.68
17.76
12.49
8.06
5.58
5.68
8.29
12.49
16.70
19.25
19.04
16.01
11.19
6.20
2.50
0.73
0.50
0.74
0.33
-1.41
-4.59
-8.93
-14.07
-19.76
-25.79
-31.75
-36.85
-39.95
-39.93
-36.00
-28.23
-17.60
-5.78
5.46
14.70
21.21
25.06
26.72
26.90
26.15
24.67
22.52
19.76
16.71
13.76
11.38
9.84
9.13
8.91
8.72
8.08
6.70
4.52
1.68
-1.45
-4.53
-7.25
-9.61
-11.95
-14.70
-18.35
-23.12
-28.77
-34.51
-39.27
-41.83
-41.19
-36.93
-29.25
-19.13
-7.93
2.84
12.05
19.07
23.89
26.87
28.30
28.37
27.03
24.26
20.25
15.56
10.92
7.15
4.81
4.03
4.53
5.69
6.78
7.19
6.58
4.93
2.54
-0.14
-2.73
-5.01
-7.07
-9.28
-11.99
-15.38
-19.42
-23.80
-27.98
-31.40
-33.39
-33.40
-31.01
-26.13
-19.14
-10.74
-1.85
6.80
14.76
21.94
28.34
33.80
37.93
40.22
40.41
38.63
35.56
32.05
28.88
26.39
24.53
22.98
21.44
19.78
18.14
16.73
15.56
14.55
13.34
11.65
9.40
6.78
4.10
1.60
-0.79
-3.47
-7.00
-11.70
-17.34
-23.10
-27.76
-30.07
-29.26
-25.23
-18.52
-10.13
-1.16
7.41
14.85
20.71
24.83
27.20
27.94
27.26
25.42
22.67
19.35
15.86
12.62
10.04
8.38
7.71
7.79
8.25
8.59
8.46
7.75
6.59
5.26
3.94
2.66
1.21
-0.76
-3.53
-7.17
-11.55
-16.41
-21.49
-26.46
-30.77
-33.65
-34.27
-32.03
-26.94
-19.78
-11.79
-4.16
2.32
7.56
11.82
15.40
18.25
20.09
20.46
19.16
16.48
13.05
9.69
7.04
5.37
4.56
4.23
4.01
3.67
3.21
2.67
2.05
1.14
-0.28
-2.35
-4.98
-7.86
-10.62
-13.06
-15.34
-17.74
-20.60
-23.92
-27.19
-29.49
-29.74
-27.19
-21.64
-13.66
-4.39
4.81
12.77
18.81
22.80
24.99
25.71
25.23
23.69
21.22
18.07
14.63
11.35
8.60
6.47
4.77
3.10
1.03
-1.72
-5.15
-9.06
-13.14
-17.04
-20.47
-23.17
-25.04
-26.16
-26.92
-27.94
-29.81
-32.86
-36.79
-40.69
-43.23
-43.17
-39.85
-33.36
-24.55
-14.64
-4.85
3.90
11.08
16.56
20.41
22.82
24.05
24.32
23.76
22.32
19.92
16.51
12.33
8.05
4.66
3.24
4.45
8.24
13.71
19.42
23.78
25.66
24.57
20.86
15.40
9.19
3.11
-2.33
-7.01
-11.07
-14.84
-18.64
-22.57
-26.42
-29.64
-31.37
-30.71
-27.10
-20.53
-11.60
-1.40
8.83
18.11
25.76
31.45
35.12
36.76
36.52
34.82
32.21
29.31
26.59
24.24
22.20
20.37
18.77
17.66
17.36
18.03
19.43
20.90
21.65
21.06
19.08
16.20
13.20
10.72
8.83
7.02
4.37
0.03
-6.21
-13.64
-20.89
-26.30
-28.49
-26.73
-20.88
-11.40
0.96
15.41
31.17
47.68
64.58
81.62
98.30
113.53
125.28
130.98
128.30
116.60
97.72
75.73
56.00
42.76
37.55
38.06
39.01
34.06
18.14
-10.52
-49.69
-93.49
-134.16
-164.25
-179.11
-178.26
-165.59
-147.83
-131.96
-122.79
-121.53
-125.99
-132.04
-135.52
-133.35
-123.95
-106.97
-82.95
-53.45
-21.09
10.38
37.18
56.54
67.39
70.59
68.13
62.45
55.92
50.50
47.61
47.87
50.74
54.73
58.27
60.92
63.98
69.45
78.00
87.10
91.20
84.24
63.31
30.98
-5.25
-36.34
-56.07
-63.69
-63.55
-62.14
-64.66
-72.99
-85.75
-99.86
-112.10
-119.86
-121.16
-114.64
-100.05
-78.68
-53.34
-27.67
-4.87
13.21
26.32
35.38
41.72
46.41
50.11
53.40
56.95
61.44
67.10
73.43
79.33
83.60
85.63
85.77
85.12
84.80
85.21
85.77
85.34
83.07
78.95
73.81
68.75
64.39
60.40
55.78
49.65
41.88
33.53
26.18
21.17
18.84
18.39
18.48
17.87
15.95
12.88
9.56
7.28
7.58
11.70
20.03
31.35
42.51
48.86
45.64
30.02
2.58
-32.18
-67.22
-95.19
-110.60
-111.00
-97.03
-71.43
-37.62
1.35
43.33
87.06
131.45
174.97
215.13
248.70
272.46
284.42
284.69
275.49
260.14
241.30
219.97
195.25
165.54
130.12
90.55
50.68
15.50
-10.65
-25.92
-31.36
-30.39
-27.16
-24.97
-25.23
-27.64
-31.16
-35.09
-39.98
-47.19
-57.87
-71.78
-86.82
-99.64
-107.04
-107.41
-101.23
-90.80
-78.99
-68.31
-60.29
-55.61
-54.56
-57.06
-62.46
-69.20
-75.09
-78.06
-77.16
-73.34
-68.97
-66.93
-69.30
-76.57
-87.52
-99.70
-110.12
-115.97
-115.35
-107.80
-94.65
-78.61
-63.03
-50.59
-42.53
-38.50
-37.29
-37.86
-39.91
-43.63
-48.97
-55.07
-60.47
-63.64
-63.87
-61.42
-57.23
-52.28
-47.06
-41.44
-34.98
-27.44
-18.95
-9.97
-0.90
8.13
17.32
26.95
37.17
47.69
57.82
66.64
73.41
77.92
80.58
82.31
84.20
86.98
90.67
94.55
97.40
97.95
95.48
90.03
82.43
73.90
65.66
58.33
52.02
46.41
41.00
35.42
29.49
23.20
16.64
9.96
3.26
-3.27
-9.37
-14.90
-19.87
-24.51
-29.16
-34.25
-40.08
-46.85
-54.46
-62.65
-71.07
-79.30
-86.91
-93.54
-98.78
-102.15
-103.10
-101.12
-95.91
-87.71
-77.27
-65.80
-54.65
-44.87
-37.01
-31.07
-26.62
-23.15
-20.31
-17.95
-16.10
-14.85
-14.17
-13.93
-13.86
-13.55
-12.64
-10.96
-8.64
-6.14
-4.12
-3.15
-3.45
-4.67
-6.00
-6.43
-5.24
-2.37
1.27
4.16
4.75
2.30
-2.67
-8.59
-13.53
-16.16
-16.18
-14.29
-11.61
-8.90
-6.20
-2.89
1.64
7.52
14.09
20.21
24.58
26.42
25.42
21.84
16.26
9.45
2.33
-4.14
-8.99
-11.69
-12.47
-12.69
-14.59
-20.39
-31.34
-46.76
-64.17
-79.97
-90.78
-94.69
-91.70
-83.38
-72.00
-59.56
-47.22
-35.27
-23.45
-11.46
0.78
12.91
24.28
34.18
42.10
47.97
52.00
54.62
56.00
56.08
54.59
51.26
46.21
39.95
33.34
27.17
21.95
17.66
13.84
9.78
4.75
-1.91
-10.58
-21.37
-34.06
-47.94
-61.93
-74.82
-85.76
-94.73
-102.76
-111.67
-123.02
-137.30
-153.02
-167.08
-175.92
-177.06
-170.29
-157.68
-142.60
-128.02
-115.44
-104.49
-93.60
-81.14
-66.26
-49.25
-31.20
-13.42
3.10
18.04
31.81
45.04
57.99
70.24
80.66
87.84
90.82
89.02
82.10
69.52
50.65
25.39
-4.49
-34.83
-59.94
-74.62
-77.05
-69.75
-58.64
-50.01
-47.50
-50.21
-53.61
-52.17
-42.22
-24.60
-3.51
15.78
29.51
36.92
39.92
41.46
43.85
47.98
51.67
52.30
48.45
40.85
32.25
25.85
23.73
26.02
31.56
36.19
36.44
30.76
20.05
6.76
-6.99
-21.48
-39.88
-67.12
-111.34
-178.44
-269.53
-379.64
-498.66
-614.56
-717.07
-799.78
-838.90
-817.38
-727.97
-578.76
-391.65
-193.64
-7.23
153.67
283.06
380.53
445.73
480.00
486.50
470.85
441.19
407.85
381.69
371.62
382.10
408.79
441.61
471.43
489.09
490.02
475.21
448.92
415.64
378.28
335.94
286.84
226.26
158.19
89.16
25.76
-27.78
-70.19
-102.41
-127.43
-147.78
-164.86
-178.36
-188.63
-194.75
-196.55
-194.82
-190.86
-186.21
-181.66
-177.22
-171.94
-165.32
-157.11
-147.90
-138.87
-131.37
-126.58
-124.70
-125.31
-127.46
-130.29
-132.92
-134.73
-135.15
-133.44
-131.06
-128.33
-125.19
-121.33
-116.62
-111.02
-104.71
-97.98
-91.20
-84.81
-78.86
-73.39
-68.43
-64.03
-60.16
-56.87
-54.10
-51.81
-49.98
-48.32
-46.65
-44.87
-42.93
-40.87
-38.71
-36.57
-34.56
-32.83
-31.28
-29.91
-28.60
-27.29
-25.84
-24.14
-22.13
-19.78
-17.18
-14.33
-11.33
-8.26
-5.27
-2.40
0.21
2.53
4.51
6.09
7.33
8.30
9.12
9.95
10.96
12.30
14.01
16.05
18.31
20.61
22.83
24.94
27.00
29.13
31.48
34.05
36.74
39.33
41.61
43.54
45.30
47.35
50.24
54.44
60.18
67.23
75.13
83.31
91.35
99.26
107.43
116.48
126.97
139.06
152.39
166.33
180.07
193.11
205.37
217.19
229.23
242.28
257.20
274.68
294.85
316.65
337.67
354.41
363.20
361.57
349.28
328.37
302.35
274.81
248.12
223.09
199.49
176.87
155.24
135.22
117.52
102.53
90.03
79.32
69.61
60.38
51.47
43.06
35.38
28.45
21.91
15.09
7.25
-2.20
-13.32
-25.60
-38.08
-49.60
-59.18
-66.11
-70.11
-71.27
-70.00
-66.94
-62.83
-58.34
-53.87
-49.55
-45.29
-41.01
-36.80
-33.03
-30.12
-28.25
-27.26
-26.55
-25.50
-23.63
-20.82
-17.30
-13.51
-9.85
-6.64
-4.15
-2.52
-1.89
-2.25
-3.47
-5.19
-7.00
-8.56
-9.74
-10.60
-11.40
-12.37
-13.57
-14.87
-15.88
-16.11
-15.11
-12.66
-8.96
-4.56
-0.24
3.42
6.19
8.18
9.70
11.03
12.25
13.21
13.67
13.48
12.58
10.97
8.68
5.72
2.09
-2.08
-6.57
-11.03
-15.20
-18.84
-22.00
-24.84
-27.65
-30.84
-34.68
-39.18
-44.02
-48.68
-52.63
-55.70
-58.13
-60.51
-63.46
-67.11
-71.05
-74.24
-75.63
-74.57
-71.20
-66.38
-61.44
-57.78
-56.52
-58.43
-63.72
-71.62
-80.00
-85.17
-82.41
-67.57
-39.02
1.05
46.52
89.34
122.20
140.95
145.53
139.12
126.26
110.84
95.33
80.69
67.35
55.79
46.56
40.06
35.91
33.10
30.21
26.25
21.09
15.64
11.41
9.69
11.06
14.93
19.88
24.30
26.98
27.53
26.32
24.09
21.47
18.86
16.29
13.62
10.70
7.54
4.33
1.36
-1.01
-2.53
-3.09
-2.96
-2.60
-2.61
-3.39
-4.97
-7.00
-8.97
-10.43
-11.22
-11.71
-12.43
-13.84
-16.16
-19.15
-22.30
-25.01
-26.70
-26.96
-25.72
-23.06
-19.29
-14.80
-10.05
-5.48
-1.51
1.53
3.48
4.28
4.04
2.85
0.86
-1.67
-4.41
-6.96
-8.93
-10.05
-10.31
-9.92
-9.32
-8.90
-8.79
-8.94
-9.11
-9.16
-9.02
-8.81
-8.67
-8.78
-9.25
-10.11
-11.39
-12.97
-14.64
-15.95
-16.27
-14.91
-11.46
-5.93
1.15
8.91
16.49
23.28
29.00
33.67
37.52
40.73
43.25
44.95
45.58
45.08
43.69
41.95
40.65
40.50
41.89
44.63
47.99
50.97
52.74
52.86
51.31
48.33
44.10
38.68
32.09
24.42
15.96
7.12
-1.77
-10.48
-18.99
-27.23
-34.99
-41.83
-47.16
-50.42
-51.41
-50.25
-47.49
-43.85
-40.07
-36.74
-34.26
-32.78
-32.26
-32.49
-33.24
-34.17
-35.05
-35.64
-35.83
-35.53
-34.78
-33.61
-32.14
-30.50
-28.81
-27.22
-25.81
-24.63
-23.68
-22.97
-22.53
-22.44
-22.74
-23.42
-24.44
-25.65
-26.92
-28.11
-29.09
-29.65
-29.51
-28.26
-25.52
-21.11
-15.26
-8.54
-1.76
4.42
9.59
13.67
16.71
18.92
20.36
21.06
21.07
20.48
19.52
18.48
17.71
17.32
17.41
17.73
17.97
17.83
17.18
16.09
14.86
13.76
12.81
11.83
10.47
8.52
6.04
3.34
0.67
-1.86
-4.42
-7.24
-10.29
-13.13
-14.95
-14.91
-12.58
-8.14
-2.40
3.53
8.61
12.22
14.25
15.04
15.17
15.06
14.90
14.61
13.91
12.58
10.63
8.26
5.82
3.65
1.80
0.11
-1.69
-3.87
-6.44
-9.19
-11.85
-14.23
-16.34
-18.33
-20.45
-22.78
-25.21
-27.49
-29.44
-31.08
-32.66
-34.56
-36.97
-39.73
-42.20
