1720632757.00
64.000000
-0.00
-0.00
-0.00
-0.00
-0.00
-0.00
-0.00
-0.00
-0.00
-0.00
0.00
0.01
0.01
-0.00
-0.03
-0.05
-0.05
0.00
0.13
0.36
0.66
1.01
1.37
1.72
2.06
2.40
2.79
3.24
3.80
4.42
5.06
5.66
6.20
6.68
7.15
7.68
8.31
9.14
10.09
11.04
11.88
12.56
13.14
13.76
14.65
15.96
17.91
20.32
22.90
25.38
27.58
29.57
31.68
34.32
37.81
42.54
48.15
54.10
59.83
64.97
69.58
74.14
79.34
85.71
93.76
103.00
112.62
121.73
129.77
136.75
143.30
150.75
157.77
166.64
177.95
191.79
206.97
220.57
228.25
225.36
208.53
176.87
132.76
80.05
23.07
-34.94
-92.44
-149.16
-205.23
-260.37
-313.74
-363.87
-409.83
-450.91
-486.50
-515.74
-537.23
-549.22
-549.96
-538.37
-514.21
-478.67
-433.88
-382.45
-327.02
-269.84
-212.63
-156.66
-102.95
-52.37
-5.91
35.57
71.42
101.36
125.52
144.41
158.72
169.15
176.32
180.62
182.37
181.80
179.21
174.93
169.36
162.90
155.87
148.50
140.93
133.25
125.50
117.77
110.11
102.59
95.25
88.09
81.13
74.38
67.89
61.73
55.96
50.60
45.62
40.90
36.35
31.91
27.60
23.53
19.84
16.64
13.95
11.66
9.56
7.44
5.16
2.76
0.41
-1.62
-3.10
-3.97
-4.40
-4.74
-5.35
-6.48
-8.14
-10.04
-11.77
-13.00
-13.53
-13.46
-13.11
-12.87
-13.20
-14.54
-17.17
-20.92
-24.81
-27.14
-26.08
-20.56
-10.97
0.89
12.50
21.68
27.27
29.28
28.34
25.30
20.96
16.26
12.38
10.51
11.25
14.20
18.01
21.11
22.58
22.47
21.59
20.52
19.38
17.72
15.10
11.67
8.27
5.91
5.09
5.40
5.71
4.91
2.60
-0.66
-3.64
-5.24
-5.04
-3.55
-1.82
-0.88
-1.17
-2.43
-4.00
-5.18
-5.70
-5.67
-5.48
-5.45
-5.67
-6.00
-6.16
-5.95
-5.35
-4.53
-3.73
-3.12
-2.70
-2.33
-1.70
-0.46
1.64
4.68
8.50
12.76
16.98
20.64
23.39
25.07
25.86
26.09
26.13
26.17
26.13
25.79
24.86
23.28
21.16
18.76
16.25
13.71
11.03
8.10
5.01
1.84
-1.19
-4.02
-6.75
-9.59
-12.61
-15.65
-18.35
-20.42
-21.87
-23.02
-24.35
-26.15
-28.25
-30.12
-31.05
-30.54
-28.55
-25.49
-21.91
-18.29
-15.05
-12.49
-11.02
-11.01
-12.55
-15.18
-17.86
-19.20
-18.15
-14.43
-8.72
-2.38
3.12
6.80
8.48
8.65
8.13
7.64
7.56
7.93
8.61
9.27
9.58
9.25
8.18
6.55
4.64
2.78
1.14
-0.24
-1.34
-1.97
-1.63
0.22
3.73
8.17
11.97
13.46
11.76
7.49
2.64
-0.39
-0.31
3.00
7.98
12.26
14.07
13.19
10.89
8.87
8.11
8.35
8.68
8.38
7.61
7.29
8.24
10.49
13.25
15.63
17.39
19.17
21.91
25.97
30.61
34.32
35.56
33.57
28.72
22.09
14.95
8.18
2.22
-2.70
-6.47
-8.99
-10.33
-10.78
-10.77
-10.76
-11.01
-11.53
-12.10
-12.36
-12.00
-10.89
-9.14
-7.12
-5.27
-3.98
-3.32
-3.10
-2.93
-2.46
-1.64
-0.82
-0.65
-1.87
-4.93
-9.82
-15.97
-22.41
-28.09
-32.26
-34.68
-35.71
-35.99
-36.05
-35.87
-34.77
-31.73
-25.89
-17.09
-5.97
6.15
17.87
28.20
36.73
43.52
48.81
52.73
55.17
55.97
55.00
52.29
48.04
42.57
36.36
29.96
23.99
19.01
15.30
12.77
10.93
9.17
6.98
4.29
1.46
-0.90
-2.49
-3.50
-4.60
-6.53
-9.52
-13.17
-16.64
-19.27
-20.89
-21.86
-22.51
-22.60
-21.28
-17.59
-11.35
-3.76
2.79
5.77
3.74
-2.86
-11.88
-20.53
-26.61
-29.29
-29.11
-27.37
-25.26
-23.33
-21.55
-19.67
-17.76
-16.35
-16.21
-17.84
-21.05
-24.87
-27.97
-29.30
-28.62
-26.58
-24.39
-23.29
-24.02
-26.66
-30.59
-34.69
-37.53
-37.76
-34.55
-27.85
-18.58
-8.31
1.13
8.41
12.95
15.08
15.68
15.72
15.99
16.84
18.24
19.88
21.31
22.01
21.53
19.50
15.69
10.06
2.89
-4.99
-12.16
-16.99
-18.33
-16.09
-11.54
-6.77
-3.77
-3.52
-5.64
-8.76
-11.35
-12.43
-11.67
-9.13
-4.86
1.24
8.98
17.48
25.00
29.47
29.52
25.32
18.80
12.90
10.37
12.56
18.92
27.35
35.26
40.58
42.38
40.92
37.02
31.57
25.05
17.51
8.86
-0.76
-10.64
-19.55
-26.19
-29.76
-30.45
-29.43
-28.33
-28.38
-29.82
-31.88
-33.25
-32.87
-30.39
-26.15
-20.75
-14.62
-7.92
-0.87
6.06
12.19
16.99
20.44
23.14
25.73
28.39
30.55
31.17
29.50
25.59
20.44
15.38
11.30
8.19
5.33
1.92
-2.25
-6.64
-10.39
-12.98
-14.57
-15.97
-17.95
-20.69
-23.48
-25.17
-24.98
-23.17
-21.05
-20.44
-22.70
-28.06
-35.56
-43.51
-50.22
-54.49
-55.75
-53.96
-49.40
-42.71
-34.84
-27.05
-20.51
-15.85
-12.88
-10.74
-8.39
-5.25
-1.54
1.97
4.56
6.07
6.94
7.92
9.35
10.87
11.51
10.25
6.60
0.91
-5.73
-12.02
-17.08
-20.78
-23.67
-26.59
-29.98
-33.50
-35.97
-35.69
-31.33
-22.73
-11.24
0.59
10.03
15.19
15.53
11.53
3.97
-6.40
-18.72
-31.41
-41.90
-47.09
-44.57
-33.88
-17.02
2.21
19.68
32.38
39.31
41.28
40.17
38.01
36.10
34.67
33.09
30.40
26.17
21.09
16.78
15.01
16.68
21.14
26.53
30.76
32.35
30.51
24.77
14.76
0.44
-16.74
-33.37
-45.02
-48.29
-43.20
-33.76
-26.36
-26.54
-36.43
-54.00
-74.62
-93.47
-107.22
-114.19
-113.61
-105.11
-88.72
-65.62
-38.41
-10.69
14.17
33.97
47.79
55.79
58.62
57.37
53.76
50.20
49.03
51.23
55.62
59.17
59.01
54.46
47.71
42.74
42.80
48.17
55.70
60.63
59.09
50.52
37.70
24.98
15.79
10.96
8.74
6.27
1.38
-6.35
-15.88
-25.73
-34.62
-41.75
-46.57
-48.34
-46.32
-40.31
-31.34
-21.54
-13.33
-8.31
-7.00
-8.99
-13.36
-19.17
-24.91
-28.57
-27.98
-22.33
-13.52
-6.10
-5.20
-13.11
-26.91
-38.87
-39.57
-22.39
13.23
61.64
113.41
158.97
190.89
204.70
199.08
175.91
140.32
99.98
63.23
36.59
22.68
20.14
25.26
34.56
45.81
57.84
69.33
78.13
81.94
79.56
72.20
63.30
56.92
55.68
59.55
66.39
73.50
79.08
82.66
84.54
84.71
82.31
76.02
65.13
50.44
34.39
20.18
10.48
6.29
6.66
9.44
12.41
14.47
16.03
18.67
24.22
33.65
46.27
59.67
70.78
77.52
80.20
81.68
85.77
94.63
106.75
116.85
118.32
106.88
83.19
52.87
23.83
2.37
-9.51
-14.29
-16.65
-20.47
-26.92
-34.68
-41.64
-46.84
-51.17
-56.32
-63.07
-70.09
-74.24
-72.17
-62.43
-46.60
-29.14
-15.79
-11.51
-18.57
-35.59
-57.92
-79.13
-93.48
-98.41
-96.12
-92.98
-96.67
-112.21
-139.09
-171.17
-199.72
-217.72
-222.79
-216.93
-203.87
-186.10
-163.86
-136.74
-106.23
-76.77
-54.00
-41.09
-35.94
-31.51
-19.80
3.05
33.85
63.89
84.14
90.82
87.83
84.27
88.84
104.61
127.45
148.77
160.60
159.83
149.12
134.61
122.07
113.91
108.57
102.04
90.34
71.63
47.13
20.80
-2.26
-17.70
-23.75
-21.94
-16.38
-11.88
-11.71
-16.31
-23.38
-29.44
-31.62
-28.84
-22.02
-13.18
-4.25
3.87
11.71
20.70
32.15
45.92
59.81
69.97
72.52
65.49
50.08
30.43
11.91
-1.12
-7.01
-7.13
-4.87
-3.74
-5.84
-11.17
-18.06
-24.32
-28.34
-29.68
-28.99
-27.26
-25.13
-22.46
-18.72
-13.80
-8.72
-5.50
-6.09
-10.98
-18.35
-24.65
-26.46
-22.42
-14.13
-5.29
0.33
0.93
-2.68
-8.13
-13.21
-17.44
-22.03
-28.73
-38.25
-49.46
-60.02
-67.75
-71.82
-73.07
-73.29
-73.99
-75.69
-77.88
-79.74
-80.92
-81.74
-82.86
-84.52
-86.07
-86.03
-82.95
-76.17
-66.33
-55.14
-44.59
-36.03
-29.67
-24.63
-19.44
-12.78
-4.03
6.35
16.78
24.88
28.26
25.43
16.58
3.79
-9.57
-19.97
-24.93
-23.83
-17.92
-9.57
-1.46
4.24
6.49
5.36
2.03
-1.57
-3.37
-2.20
1.45
5.39
6.77
3.63
-3.87
-13.37
-21.43
-25.49
-25.07
-21.87
-18.64
-17.49
-18.97
-22.13
-25.52
-28.15
-29.87
-30.85
-30.92
-29.27
-24.85
-17.28
-7.38
3.01
11.68
16.96
18.45
16.95
13.88
10.63
8.12
6.71
6.47
7.27
8.92
11.07
13.26
14.98
15.95
16.21
16.06
15.86
15.73
15.48
14.77
13.27
10.79
7.38
3.24
-1.35
-6.16
-11.02
-15.84
-20.59
-25.23
-29.75
-34.05
-38.00
-41.42
-44.03
-45.47
-45.35
-43.43
-39.71
-34.57
-28.65
-22.64
-16.98
-11.74
-6.66
-1.52
3.73
8.78
13.18
16.67
19.25
21.21
22.85
24.32
25.50
26.12
26.02
25.25
24.14
23.08
22.38
22.10
22.04
21.87
21.21
19.77
17.39
14.14
10.31
6.36
2.68
-0.51
-3.30
-6.06
-9.18
-12.89
-17.19
-21.90
-26.83
-31.79
-36.55
-40.65
-43.36
-43.83
-41.51
-36.43
-29.26
-21.14
-13.08
-5.72
0.80
6.54
11.47
15.33
17.77
18.68
18.40
17.66
17.15
17.21
17.59
17.72
17.13
15.86
14.46
13.63
13.77
14.65
15.52
15.55
14.28
11.79
8.53
5.04
1.60
-1.74
-5.08
-8.49
-11.95
-15.42
-18.95
-22.79
-27.24
-32.41
-38.03
-43.41
-47.58
-49.63
-49.08
-45.98
-40.90
-34.61
-27.80
-20.85
-13.80
-6.60
0.69
7.75
13.97
18.73
21.65
22.78
22.66
22.03
21.54
21.48
21.67
21.74
21.41
20.74
20.15
20.03
20.49
21.17
21.39
20.45
17.99
14.09
9.21
4.01
-0.89
-5.02
-8.15
-10.43
-12.39
-14.83
-18.54
-23.97
-30.91
-38.44
-45.19
-49.82
-51.37
-49.47
-44.31
-36.53
-26.97
-16.54
-6.15
3.37
11.45
17.82
22.60
26.16
28.96
31.29
33.23
34.69
35.56
35.82
35.56
34.93
34.06
32.97
31.71
30.28
28.73
27.07
25.23
23.01
20.16
16.51
12.10
7.17
2.08
-2.79
-7.23
-11.26
-15.11
-19.06
-23.43
-28.46
-34.25
-40.72
-47.43
-53.54
-58.02
-59.85
-58.48
-53.99
-47.06
-38.58
-29.36
-19.84
-10.22
-0.60
8.80
17.60
25.36
31.68
36.45
39.69
41.58
42.39
42.40
41.92
41.17
40.20
38.89
37.11
34.82
32.21
29.64
27.40
25.53
23.76
21.70
19.09
15.89
12.27
8.44
4.40
0.06
-4.72
-9.83
-14.93
-19.58
-23.54
-27.05
-30.75
-35.35
-41.20
-47.89
-54.33
-59.05
-60.73
-58.70
-53.08
-44.65
-34.51
-23.66
-12.77
-2.19
7.95
17.46
26.06
33.41
39.24
43.50
46.31
47.92
48.57
48.40
47.55
46.16
44.54
43.02
41.93
41.39
41.24
41.18
40.85
40.03
38.69
36.89
34.70
32.15
29.23
25.97
22.53
19.10
15.83
12.75
9.73
6.58
3.21
-0.38
-4.01
-7.54
-10.91
-14.26
-17.92
-22.29
-27.53
-33.40
-39.16
-43.74
-45.99
-45.11
-40.81
-33.27
-23.03
-10.85
2.26
14.86
25.34
32.25
34.88
33.76
30.51
27.31
26.04
27.48
30.98
34.77
36.66
35.17
30.27
23.69
18.37
17.21
21.66
30.74
41.28
49.08
50.83
45.63
35.36
23.74
14.71
10.86
12.53
17.91
23.79
26.51
22.86
10.92
-9.18
-34.61
-59.94
-78.49
-84.63
-76.22
-55.76
-29.46
-4.52
14.07
25.40
32.45
39.79
50.93
66.65
85.09
103.19
118.13
128.03
131.63
127.87
115.87
95.57
68.36
37.30
6.49
-19.96
-38.99
-49.11
-50.49
-44.88
-35.21
-25.18
-18.48
-17.64
-23.24
-33.64
-45.71
-56.29
-63.58
-67.70
-70.25
-73.04
-76.97
-81.58
-85.62
-87.98
-88.67
-88.82
-90.10
-93.73
-99.76
-106.93
-113.23
-116.69
-116.15
-111.42
-103.24
-92.77
-81.22
-69.48
-57.95
-46.59
-35.10
-23.21
-10.99
1.00
11.97
21.19
28.37
33.75
37.75
40.59
42.05
41.80
39.75
36.51
33.28
31.28
31.11
32.40
34.00
34.71
33.91
31.85
29.37
27.36
26.21
25.65
24.99
23.38
20.28
15.66
10.01
4.20
-0.88
-4.71
-7.47
-9.95
-13.18
-17.91
-24.20
-31.29
-37.91
-42.68
-44.66
-43.49
-39.38
-32.92
-24.91
-16.16
-7.55
0.23
6.81
12.23
16.88
21.19
25.23
28.64
30.77
31.14
29.78
27.26
24.32
21.40
18.40
14.79
10.03
4.03
-2.67
-9.11
-14.22
-17.28
-18.18
-17.37
-15.56
-13.31
-10.65
-7.02
-1.49
6.69
17.58
30.33
43.41
55.17
64.42
70.67
74.04
74.92
73.65
70.55
65.94
60.36
54.46
49.07
45.01
43.10
43.97
47.86
54.27
62.11
69.94
76.55
81.43
84.85
87.53
90.06
92.37
93.72
92.98
89.19
81.91
71.41
58.51
44.36
30.31
17.71
7.84
1.59
-0.87
-0.31
1.59
2.68
1.11
-4.06
-12.49
-22.81
-33.28
-42.54
-50.06
-55.92
-60.48
-63.96
-66.34
-67.63
-68.10
-68.41
-69.27
-71.13
-73.84
-76.73
-78.83
-79.18
-77.03
-71.96
-63.93
-53.32
-40.96
-28.00
-15.76
-5.44
1.97
5.94
6.39
3.74
-1.21
-7.49
-14.25
-20.98
-27.61
-34.26
-40.98
-47.53
-53.48
-58.64
-63.66
-70.30
-81.49
-101.07
-133.02
-180.31
-243.29
-318.26
-397.00
-468.05
-519.54
-542.86
-535.40
-501.17
-449.11
-389.47
-330.60
-276.80
-228.34
-182.78
-136.70
-86.75
-30.27
34.07
104.97
177.21
241.22
285.12
298.84
278.88
231.15
170.23
114.51
79.65
73.34
93.51
130.52
171.97
207.56
232.26
246.83
256.04
265.40
277.82
291.59
300.66
297.30
276.23
237.52
186.79
132.66
83.16
43.21
14.63
-2.17
-6.62
1.90
22.42
50.90
80.61
104.72
119.60
126.38
130.06
136.54
149.53
169.38
193.76
219.57
244.30
266.32
284.14
295.76
298.56
290.00
268.81
235.81
194.23
149.04
105.72
68.81
40.72
21.26
8.28
-1.10
-9.17
-16.74
-23.18
-27.23
-27.80
-24.55
-17.81
-8.25
3.35
16.21
29.33
41.60
51.89
59.44
64.13
66.32
66.43
64.51
60.02
52.08
39.94
23.44
3.23
-19.04
-40.74
-58.51
-68.95
-69.81
-61.10
-45.67
-28.51
-15.11
-9.58
-13.35
-25.05
-41.52
-59.12
-74.89
-86.99
-94.51
-97.33
-95.90
-91.29
-84.96
-78.48
-72.96
-68.87
-66.05
-64.16
-63.20
-63.63
-66.34
-72.28
-81.96
-95.06
-110.39
-126.12
-140.34
-151.57
-159.06
-162.88
-163.69
-162.61
-160.82
-159.27
-158.47
-158.44
-158.83
-159.29
-159.68
-160.10
-160.77
-161.77
-163.11
-164.80
-167.03
-169.97
-173.49
-177.05
-179.83
-181.34
-181.90
-182.47
-183.83
-185.61
-185.97
-182.20
-172.12
-155.10
-132.50
-106.91
-80.95
-56.26
-33.26
-11.77
8.04
24.84
36.18
39.30
32.53
16.70
-4.49
-25.48
-41.14
-48.97
-49.95
-47.38
-44.31
-41.32
-36.08
-25.27
-7.12
16.98
43.00
66.50
84.93
98.55
109.51
119.95
130.50
140.16
147.34
151.16
152.01
151.24
150.20
149.37
148.20
145.49
140.28
132.52
123.31
114.49
107.86
104.45
104.09
105.53
107.21
107.92
107.30
105.74
103.91
102.22
100.49
98.14
94.60
89.67
83.69
77.31
71.15
65.48
60.25
55.25
50.34
45.63
41.36
37.70
34.53
31.48
28.04
23.83
18.71
12.81
6.43
-0.12
-6.53
-12.53
-17.88
-22.40
-26.07
-29.05
-31.68
-34.34
-37.28
-40.51
-43.78
-46.63
-48.58
-49.16
-48.00
-44.78
-39.35
-31.76
-22.38
-11.87
-1.10
9.09
18.11
25.69
31.90
36.95
41.05
44.37
47.08
49.46
51.93
54.92
58.66
63.08
67.75
72.16
75.96
79.09
81.76
84.31
87.03
90.11
93.63
97.69
102.38
107.65
113.13
118.03
121.33
122.23
120.79
118.15
116.24
116.87
120.67
126.48
131.56
132.58
126.83
113.27
92.77
67.73
41.38
17.09
-2.24
-14.48
-18.59
-14.82
-4.77
8.82
22.62
33.41
38.89
38.19
32.22
23.46
15.11
9.83
8.51
9.67
10.29
7.27
-0.84
-13.11
-26.87
-39.16
-48.20
-53.87
-57.18
-59.19
-60.31
-60.37
-59.39
-58.10
-58.00
-60.42
-65.54
-71.97
-77.18
-78.54
-74.35
-64.35
-49.90
-33.63
-19.12
-10.36
-11.14
-24.04
-49.52
-85.40
-127.22
-169.48
-207.06
-236.30
-255.40
-264.03
-262.88
-253.21
-236.71
-215.52
-191.92
-168.00
-145.28
-124.55
-105.96
-89.26
-74.16
-60.45
-48.08
-37.08
-27.50
-19.38
-12.57
-6.56
-0.63
5.95
13.51
21.66
29.44
35.69
39.56
40.84
39.88
37.28
33.55
28.98
23.84
18.58
13.79
10.01
7.41
5.72
4.39
2.91
1.12
-0.96
-3.23
-5.82
-9.13
-13.59
-19.47
-26.70
-34.95
-43.69
-52.22
-59.52
-64.22
-64.97
-60.82
-51.66
-38.47
-22.96
-6.98
7.94
20.82
31.10
38.47
42.83
44.43
44.00
42.66
41.53
41.25
41.69
42.24
42.32
41.96
41.76
42.56
44.70
47.68
50.31
51.36
50.24
47.27
43.36
39.30
35.26
30.69
24.80
17.07
7.79
-2.05
-11.18
-18.54
-23.66
-26.68
-28.13
-28.69
-28.94
-29.30
-29.99
-31.17
-32.94
-35.29
-37.93
-40.13
-40.71
-38.41
-32.38
-22.81
-11.02
0.83
10.53
16.71
19.25
19.06
17.38
15.04
12.15
8.41
3.73
-1.33
-5.58
-7.72
-6.98
-3.47
1.94
8.07
13.99
19.24
23.79
27.69
30.86
33.11
34.22
34.14
33.02
31.08
28.46
25.22
21.41
17.19
12.87
8.83
5.39
2.63
0.47
-1.27
-2.73
-4.00
-5.25
-6.74
-8.86
-11.88
-15.91
-20.77
-26.14
-31.64
-36.92
-41.57
-45.01
-46.47
-45.19
-40.68
-33.11
-23.35
-12.78
-2.80
5.58
12.00
16.67
20.10
22.79
24.95
26.59
27.65
28.17
28.32
28.28
28.12
27.68
26.71
25.02
22.65
19.89
17.16
14.83
13.07
11.88
11.14
10.78
10.79
11.08
11.44
11.49
10.82
9.20
6.65
3.46
-0.07
-3.74
-7.55
-11.57
-15.71
-19.68
-23.09
-25.70
-27.64
-29.41
-31.54
-34.23
-37.07
-39.12
-39.40
-37.28
-32.82
-26.59
-19.43
-12.01
-4.70
2.36
9.07
15.16
20.20
23.68
25.27
25.03
23.50
21.62
20.39
20.48
22.03
24.55
27.14
28.84
29.04
27.65
24.91
21.22
16.89
12.15
7.31
2.93
-0.28
-1.72
-1.39
-0.04
1.08
0.70
-1.90
-6.54
-12.33
-18.17
-23.36
-27.81
-31.94
-36.18
-40.57
-44.60
-47.47
-48.41
-47.01
-43.32
-37.77
-30.97
-23.48
-15.78
-8.16
-0.80
6.24
12.93
19.20
24.91
29.74
33.32
35.36
35.85
35.11
33.75
32.32
31.14
30.12
28.85
26.93
24.27
21.12
17.97
15.27
13.15
11.44
9.83
8.11
6.33
4.68
3.29
2.05
0.62
-1.34
-3.91
-6.78
-9.46
-11.63
-13.43
-15.50
-18.58
-23.11
-28.81
-34.77
-39.75
-42.64
-42.81
-40.12
-34.87
-27.59
-18.99
-9.95
-1.34
6.20
12.40
17.48
21.89
26.08
30.13
33.73
36.28
37.24
36.36
33.94
30.72
27.67
25.53
24.53
24.23
23.89
22.88
21.17
19.36
18.21
18.12
18.62
18.59
16.86
13.06
7.90
2.80
-0.83
-2.46
-2.69
-2.87
-4.36
-7.81
-12.95
-18.84
-24.54
-29.42
-33.40
-36.62
-39.06
-40.34
-39.72
-36.56
-30.73
-22.88
-14.34
-6.64
-0.82
2.89
5.16
7.00
9.25
12.14
15.27
17.95
19.63
20.16
19.76
18.83
17.72
16.60
15.58
14.67
13.89
13.21
12.52
11.72
10.74
9.60
8.41
7.31
6.35
5.48
4.61
3.64
2.52
1.26
-0.11
-1.57
-3.15
-4.90
-6.86
-8.92
-10.85
-12.32
-13.18
-13.60
-14.04
-15.14
-17.26
-20.24
-23.31
-25.45
-25.79
-23.95
-20.22
-15.31
-10.05
-5.03
-0.43
3.88
8.22
12.86
17.87
23.18
28.60
33.91
38.86
43.16
46.41
48.20
48.24
46.59
43.70
40.51
38.14
37.60
39.52
43.76
49.35
54.44
56.64
53.68
44.27
28.79
9.47
-10.18
-26.60
-37.35
-41.73
-40.56
-35.40
-27.65
-18.27
-8.04
2.01
10.56
16.37
19.12
19.76
20.18
22.28
26.96
33.68
40.99
47.34
51.82
54.15
54.15
51.31
44.84
34.41
20.95
7.04
-3.66
-7.60
-2.77
10.66
30.44
53.24
75.98
96.89
115.88
134.03
152.61
171.88
190.34
204.83
211.33
206.35
188.10
157.11
115.67
67.00
13.98
-41.68
-99.47
-159.84
-223.80
-292.66
-367.56
-448.51
-533.21
-616.13
-688.98
-742.65
-770.12
-768.95
-742.11
-696.57
-640.53
-580.72
-521.13
-463.27
-407.48
-354.00
-303.13
-254.84
-208.25
-161.89
-114.44
-65.69
-16.76
30.39
73.71
112.31
146.94
179.87
214.05
251.72
293.13
335.74
374.70
404.31
420.16
420.74
408.03
386.52
361.64
337.79
317.28
299.94
283.68
265.58
243.14
215.54
184.07
151.60
121.07
93.78
68.44
42.10
12.16
-21.61
-56.38
-87.44
-110.38
-122.94
-125.27
-118.65
-104.01
-81.00
-48.57
-6.11
45.64
105.05
170.53
241.18
316.18
393.23
467.18
530.30
574.28
593.29
586.17
556.79
512.23
460.01
405.64
351.79
299.14
247.83
198.41
151.84
108.72
68.32
28.60
-13.01
-58.04
-105.87
-153.64
-197.03
-232.11
-256.77
-271.33
-277.94
-279.31
-277.47
-273.16
-266.24
-256.45
-244.10
-230.22
-216.14
-202.99
-191.37
-181.31
-172.40
-164.00
-155.26
-145.43
-134.10
-121.42
-108.07
-95.08
-83.36
-73.34
-64.91
-57.55
-50.72
-44.07
-37.57
-31.37
-25.68
-20.58
-16.05
-11.94
-8.14
-4.59
-1.40
1.23
3.12
4.17
4.49
4.40
4.38
4.87
6.15
8.17
10.62
13.00
14.81
15.67
15.40
13.94
11.30
7.55
2.91
-2.26
-7.38
-11.89
-15.38
-17.81
-19.43
-20.60
-21.48
-21.92
-21.51
-19.93
-17.14
-13.50
-9.60
-5.90
-2.52
0.71
4.00
7.32
10.30
12.47
13.51
13.50
12.83
11.99
11.28
10.76
10.30
9.76
9.12
8.41
7.66
6.85
6.02
5.29
4.82
4.73
4.88
4.99
4.67
3.77
2.39
0.86
-0.63
-2.13
-4.02
-6.66
-10.25
-14.57
-19.17
-23.57
-27.40
-30.50
-32.77
-34.11
-34.39
-33.47
-31.32
-28.00
-23.69
-18.60
-12.93
-6.96
-1.03
4.51
9.34
13.29
16.34
18.55
20.13
21.20
21.78
21.77
21.11
19.91
18.43
17.08
16.12
15.71
15.83
16.22
16.58
16.66
16.38
15.73
14.70
13.24
11.57
9.98
8.44
6.54
3.86
0.26
-3.93
-8.09
-11.61
-13.68
-14.04
-13.46
-13.52
-15.61
-20.09
-26.22
-32.62
-37.67
-39.32
-36.05
-27.98
-17.22
-6.50
2.00
7.28
9.67
10.91
14.87
26.03
47.32
78.69
117.47
159.27
198.72
230.60
244.85
234.47
203.03
163.80
129.40
104.93
89.08
78.31
70.13
63.01
58.81
59.38
63.83
68.21
67.86
59.68
43.04
19.05
-6.49
-28.97
-46.04
-58.82
-71.53
-89.23
-115.19
-149.37
-188.21
-225.38
-253.58
-266.50
-261.16
-238.93
-204.75
-165.53
-128.57
-99.86
-82.65
-76.67
-78.12
-81.22
-80.49
-72.83
-58.52
-40.86
-24.34
-12.40
-5.94
-3.05
-0.48
4.52
12.78
22.89
31.79
36.33
34.88
28.34
20.10
14.67
15.51
23.20
34.94
45.86
51.58
50.41
44.03
36.26
30.62
28.38
28.21
27.44
24.00
17.67
9.97
3.07
-1.54
-3.66
-4.30
-5.07
-7.41
-12.02
-18.68
-26.34
-33.57
-39.23
-42.98
-45.42
-47.74
-50.97
-55.53
-61.06
-66.89
-72.56
-78.04
-83.42
-88.24
-91.18
-90.41
-84.58
-73.83
-60.30
-47.68
-40.05
-40.62
-50.74
-69.60
-94.36
-120.67
-143.30
-156.97
-157.37
-142.55
-113.93
-76.44
-37.52
-4.91
15.93
23.53
20.66
12.85
5.88
3.74
7.80
17.46
31.32
48.05
66.59
85.61
103.33
117.70
127.08
130.92
129.89
125.44
118.91
110.82
100.73
87.97
72.69
56.49
42.10
32.24
28.34
29.91
34.89
40.71
45.47
48.45
49.86
50.07
49.00
46.28
41.98
37.23
34.17
34.95
40.37
49.09
58.06
63.88
64.52
60.27
53.42
47.15
43.94
44.64
48.33
53.04
56.74
58.22
57.26
54.47
50.69
46.54
42.15
37.25
31.48
24.82
17.73
11.11
5.78
2.01
-0.72
-3.52
-7.52
-13.27
-20.49
-28.34
-35.79
-42.02
-46.54
-49.09
-49.52
-47.79
-44.06
-38.73
-32.34
-25.36
-18.05
-10.56
-3.10
3.87
9.71
13.95
16.52
17.92
18.92
20.19
21.88
23.68
24.99
25.50
25.31
25.00
25.19
26.15
27.58
28.76
28.96
27.81
25.46
22.39
19.10
15.87
12.72
9.61
6.51
3.52
0.62
-2.28
-5.47
-9.19
-13.52
-18.24
-23.02
-27.59
-31.93
-36.37
-41.31
-46.95
-53.01
-58.64
-62.74
-64.35
-62.97
-58.83
-52.62
-45.30
-37.65
-30.09
-22.76
-15.68
-8.93
-2.72
2.70
7.17
10.68
13.39
15.52
17.31
18.96
20.59
22.24
23.83
25.20
26.19
26.72
26.87
26.74
26.39
25.76
24.65
22.89
20.46
17.53
14.39
11.35
8.61
6.21
4.08
2.07
-0.00
-2.27
-4.80
-7.55
-10.39
-13.12
-15.63
-17.95
-20.40
-23.45
-27.43
-32.28
-37.46
-42.04
-45.04
-45.79
-44.11
-40.33
-34.99
-28.65
-21.65
-14.08
-6.00
2.45
10.85
18.58
25.03
29.78
32.80
34.42
35.15
35.46
35.55
35.32
34.61
33.32
31.66
30.02
28.77
28.12
27.92
27.80
27.35
26.29
24.57
22.27
19.55
16.50
13.19
9.61
5.82
1.92
-1.92
-5.58
-9.00
-12.27
-15.49
-18.79
-22.16
-25.63
-29.29
-33.40
-38.24
-43.91
-49.99
-55.57
-59.42
-60.47
-58.29
-53.21
-46.11
-37.98
-29.55
-21.13
-12.76
-4.47
3.53
10.84
17.00
21.69
24.78
26.43
27.01
26.97
26.76
26.73
26.97
27.44
27.99
28.46
28.81
29.02
29.04
28.67
27.69
25.96
23.61
20.98
18.46
16.26
14.26
12.06
9.29
5.81
1.87
-2.02
-5.40
-8.05
-10.20
-12.37
-15.23
-19.31
-24.80
-31.43
-38.50
-44.97
-49.77
-52.04
-51.34
-47.71
-41.51
-33.29
-23.65
-13.17
-2.44
7.94
17.47
25.85
32.98
38.90
43.60
46.98
48.88
49.24
48.32
46.63
44.76
43.16
41.88
40.66
39.17
37.18
34.77
32.16
29.53
26.86
23.98
20.60
16.62
12.18
7.60
3.29
-0.54
-3.88
-7.02
-10.30
-13.94
-17.94
-22.05
-25.98
-29.56
-32.82
-35.97
-39.28
-42.97
-47.20
-51.95
-57.03
-61.96
-65.92
-67.93
-67.05
-62.80
-55.34
-45.46
-34.31
-22.96
-12.08
-1.92
7.51
16.16
23.79
30.06
34.74
37.87
39.81
41.12
42.27
43.50
44.71
45.55
45.68
44.92
43.40
41.49
39.63
38.12
36.99
35.99
34.69
32.73
29.98
26.60
22.96
19.43
16.20
13.16
10.01
6.43
2.27
-2.33
-7.01
-11.37
-15.15
-18.29
-20.97
-23.51
-26.29
-29.76
-34.27
-39.97
-46.61
-53.42
-59.14
-62.32
-61.69
-56.59
-47.23
-34.60
-20.26
-5.81
7.45
18.78
27.99
35.23
40.81
45.02
48.05
50.08
51.30
51.93
52.12
51.92
51.29
50.10
48.30
45.94
43.19
40.30
37.54
35.08
32.94
30.98
28.96
26.58
23.66
20.19
16.38
12.60
9.13
6.08
3.24
0.31
-3.01
-6.74
-10.60
-14.19
-17.12
-19.32
-21.01
-22.59
-24.56
-27.25
-30.85
-35.34
-40.46
-45.78
-50.63
-54.23
-55.84
-54.99
-51.58
-45.92
-38.55
-30.11
-21.20
-12.36
-4.03
3.43
9.74
14.75
18.46
20.96
22.47
23.26
23.70
24.08
24.60
25.30
26.05
26.64
26.96
27.02
26.96
26.93
26.88
26.65
25.94
24.53
22.45
19.98
17.50
15.34
13.57
11.95
10.11
7.76
4.85
1.56
-1.86
-5.30
-8.89
-12.88
-17.49
-22.66
-28.20
-33.79
-39.18
-44.20
-48.63
-52.07
-53.85
-53.35
-50.14
-44.30
-36.32
-26.95
-16.92
-6.80
2.96
12.01
20.11
27.12
33.04
37.93
41.82
44.67
46.38
46.87
46.21
44.58
42.26
39.44
36.27
32.90
29.52
26.44
23.87
21.80
19.90
17.63
14.50
10.29
5.20
-0.23
-5.41
-9.89
-13.48
-16.27
-18.50
-20.48
-22.48
-24.69
-27.15
-29.73
-32.15
-34.12
-35.53
-36.52
-37.56
-39.21
-41.86
-45.46
-49.46
-52.99
-55.09
-55.09
-52.75
-48.28
-42.18
-35.03
-27.36
-19.50
-11.70
-4.14
2.98
9.43
14.98
19.47
22.84
25.16
26.61
27.39
27.67
27.60
27.32
26.95
26.64
26.49
26.56
26.79
27.04
27.10
26.76
25.88
24.47
22.64
20.58
18.46
16.50
14.78
13.31
11.90
10.29
8.17
5.37
1.95
-1.80
-5.44
-8.66
-11.31
-13.52
-15.58
-17.77
-20.23
-23.01
-26.11
-29.56
-33.40
-37.51
-41.56
-44.95
-46.98
-47.10
-45.07
-41.03
-35.36
-28.64
-21.37
-14.04
-7.05
-0.70
4.77
9.32
13.02
16.01
18.44
20.40
21.93
23.09
23.95
24.51
24.67
24.22
22.98
20.96
18.52
16.15
14.36
13.30
12.72
12.07
10.81
8.72
6.06
3.48
1.64
0.91
1.25
2.15
3.00
3.36
3.12
2.50
1.83
1.24
0.65
-0.16
-1.41
-3.08
-5.05
-7.21
-9.70
-12.91
-17.26
-22.92
-29.46
-35.99
-41.38
-44.69
-45.49
-43.88
-40.32
-35.41
-29.65
-23.52
-17.42
-11.71
-6.62
-2.15
1.89
5.78
9.67
13.42
16.72
19.25
20.97
22.12
23.01
23.83
24.45
24.57
23.99
22.85
21.63
20.84
20.58
20.43
19.55
17.22
13.20
8.01
2.63
-2.03
-5.54
-8.13
-10.52
-13.44
-17.23
-21.71
-26.22
-30.02
-32.47
-33.31
-32.68
-30.94
-28.61
-26.25
-24.42
-23.57
-23.95
-25.43
-27.45
-29.14
-29.59
-28.23
-24.96
-20.16
-14.43
-8.28
-2.02
4.24
10.41
16.27
21.49
25.75
28.82
30.72
31.58
31.59
30.92
29.80
28.53
27.37
26.49
25.84
25.14
24.09
22.48
20.42
18.18
16.13
14.41
12.96
11.51
9.79
7.62
5.05
2.28
-0.45
-3.01
-5.47
-8.04
-10.96
-14.34
-18.03
-21.69
-24.98
-27.74
-30.13
-32.50
-35.19
-38.34
-41.92
-45.86
-50.22
-55.22
-61.05
-67.53
-74.04
-79.61
-83.38
-84.98
-84.68
-83.19
-81.26
-79.45
-77.96
-76.81
-76.03
-75.78
-76.37
-78.13
-81.35
-86.15
-92.40
-99.68
-107.33
-114.71
-121.50
-127.84
-134.23
-141.15
-148.55
-155.81
-161.98
-166.34
-168.65
-168.87
-166.61
-160.52
-148.46
-128.43
-99.52
-62.55
-19.65
26.40
72.86
117.10
156.32
187.55
208.29
217.57
216.86
209.84
201.08
194.11
189.99
187.35
183.48
176.14
164.51
149.23
131.73
113.48
95.79
79.97
67.29
58.63
53.88
51.69
49.81
46.10
39.56
30.75
21.55
14.41
11.66
15.02
25.13
41.32
61.42
81.95
99.11
110.11
114.22
112.95
109.12
105.60
104.33
106.19
111.35
119.80
131.31
145.16
160.00
174.01
185.66
194.23
199.97
203.84
206.86
209.56
211.91
213.37
213.26
211.21
207.43
202.83
198.89
197.28
199.19
204.89
213.63
223.58
232.09
235.90
231.50
215.63
186.01
141.67
83.02
11.72
-69.20
-154.47
-236.03
-303.53
-346.90
-360.27
-345.27
-311.39
-272.66
-242.04
-226.51
-225.64
-233.97
-245.26
-255.69
-264.11
-270.10
-271.92
-266.39
-250.88
-225.73
-194.91
-164.41
-139.36
-121.69
-109.89
-100.62
-91.07
-80.29
-69.21
-59.49
-52.34
-47.94
-45.59
-44.28
-43.19
-41.96
-40.61
-39.31
-38.22
-37.25
-36.18
-34.85
-33.40
-32.36
-32.54
-34.59
-38.58
-43.71
-48.56
-51.54
-51.53
-48.39
-42.86
-36.27
-29.87
-24.30
-19.40
-14.39
-8.47
-1.38
6.29
13.28
18.16
20.00
18.86
15.80
12.36
9.95
9.15
9.58
10.08
9.30
6.37
1.20
-5.47
-12.49
-18.76
-23.69
-27.36
-30.42
-33.92
-39.08
-47.12
-58.79
-73.85
-90.65
-106.14
-116.46
-117.95
-108.26
-87.17
-56.88
-21.53
14.05
45.58
70.55
88.42
100.08
106.88
109.74
109.09
105.46
100.18
95.54
94.19
97.71
105.52
114.94
122.27
124.51
120.50
110.99
97.89
83.44
69.45
57.12
47.01
38.89
31.83
24.64
16.49
7.60
-0.63
-6.35
-8.40
-7.18
-4.53
-2.80
-3.44
-6.31
-9.88
-12.36
-12.81
-11.53
-9.67
-8.41
-8.34
-9.25
-10.60
-11.88
-12.86
-13.68
-14.60
-15.94
-18.02
-21.10
-25.33
-30.67
-36.79
-43.16
-49.14
-54.12
-57.49
-58.71
-57.31
-53.09
-46.39
-38.04
-29.14
-20.65
-13.02
-6.11
0.60
7.62
15.17
23.03
30.70
37.47
42.69
45.85
46.75
45.65
43.22
40.46
38.31
37.42
37.88
39.28
40.97
42.31
42.82
42.25
40.55
37.79
34.23
30.36
26.81
24.12
22.44
21.40
20.27
18.25
14.93
10.51
5.70
1.37
-1.98
-4.36
-6.29
-8.39
-10.99
-14.01
-17.00
-19.39
-20.81
-21.20
-20.83
-20.11
-19.50
-19.38
-20.01
-21.45
-23.59
-26.25
-29.22
-32.35
-35.53
-38.55
-40.95
-42.09
-41.32
-38.26
-32.96
-26.01
-18.25
-10.64
-3.90
1.62
5.91
9.29
12.13
14.64
16.81
18.41
19.28
19.50
19.40
19.41
19.75
20.20
20.22
19.29
17.32
14.75
12.45
11.25
11.55
13.14
15.31
17.21
18.17
17.94
16.53
14.09
10.70
6.40
1.34
-4.10
-9.38
-13.97
-17.67
-20.73
-23.60
-26.70
-30.14
-33.77
-37.36
-40.83
-44.21
-47.38
-49.85
-50.82
-49.51
-45.64
-39.60
-32.26
-24.51
-16.88
-9.50
-2.37
4.42
10.50
15.47
19.13
21.62
23.39
24.94
26.69
28.80
31.16
33.43
35.13
35.85
35.40
33.92
31.86
29.76
27.89
26.08
23.80
20.43
15.64
9.65
3.20
-2.68
-7.04
-9.40
-9.90
-9.44
-9.33
-11.06
-15.66
-23.32
-33.23
-43.91
-53.82
-62.02
-68.57
-74.07
-79.00
-83.41
-86.94
-89.07
-89.46
-87.99
-84.55
-78.82
-70.27
-58.36
-42.92
-24.24
-3.05
19.97
44.54
70.79
99.04
128.96
158.73
184.44
200.73
202.78
189.12
163.62
135.23
115.03
111.39
125.78
151.89
178.61
195.23
196.32
183.55
163.52
143.51
127.47
114.94
102.70
88.05
71.07
54.63
42.35
35.92
33.72
31.51
24.77
11.22
-7.96
-29.04
-47.62
-60.69
-67.48
-69.20
-68.02
-65.96
-64.52
-64.53
-66.24
-69.36
-73.01
-76.01
-77.26
-76.28
-73.50
-70.06
-67.30
-66.12
-66.58
-67.86
-68.70
-68.05
-65.61
-61.96
-58.29
-55.78
-54.93
-55.33
-56.02
-55.96
-54.52
-51.36
-46.20
-38.50
-27.72
-13.81
2.40
19.33
35.24
49.06
60.56
70.09
77.70
82.66
83.58
79.15
68.93
53.83
35.77
17.11
-0.01
-14.10
-24.44
-31.11
-34.91
-37.05
-38.71
-40.60
-42.62
-44.07
-44.19
-42.67
-39.90
-36.74
-33.99
-32.01
-30.58
-29.14
-27.22
-24.67
-21.73
-18.81
-16.31
-14.35
-12.86
-11.60
-10.39
-9.24
-8.34
-8.01
-8.47
-9.70
-11.41
-13.09
-14.29
-14.79
-14.78
-14.65
-14.85
-15.61
-16.87
-18.26
-19.42
-20.06
-20.14
-19.82
-19.38
-19.19
-19.60
-20.86
-22.96
-25.55
-27.93
-29.22
-28.71
-26.14
-21.85
-16.57
-11.15
-6.16
-1.75
2.23
5.98
9.52
12.59
14.87
16.19
16.78
17.12
17.77
18.99
20.63
22.23
23.29
23.56
23.15
22.46
21.81
21.27
20.58
19.39
17.45
14.84
11.88
8.93
6.21
3.71
1.26
-1.32
-4.11
-7.02
-9.90
-12.54
-14.82
-16.70
-18.23
-19.58
-21.05
-23.01
-25.78
-29.44
-33.61
-37.55
-40.29
-41.01
-39.40
-35.67
-30.43
-24.38
-18.11
-11.90
-5.90
-0.20
5.06
9.69
13.49
16.39
18.49
19.95
21.02
21.87
22.66
23.46
24.32
25.30
26.37
27.45
28.32
28.68
28.28
26.99
24.92
22.36
19.62
16.92
14.29
11.64
8.90
6.07
3.17
0.24
-2.77
-5.93
-9.23
-12.52
-15.55
-18.15
-20.37
-22.63
-25.50
-29.47
-34.60
-40.40
-45.90
-50.03
-51.98
-51.45
-48.67
-44.16
-38.47
-32.05
-25.20
-18.20
-11.46
-5.46
-0.63
2.79
4.87
5.93
6.46
6.92
7.66
8.86
10.50
12.42
14.33
15.92
16.97
17.39
17.30
16.93
16.47
15.98
15.28
14.15
12.36
9.91
7.02
4.03
1.21
-1.33
-3.70
-6.08
-8.60
-11.23
-13.97
-16.85
-20.16
-24.18
-29.01
-34.29
-39.17
-42.58
-43.64
-42.03
-38.07
-32.50
-26.10
-19.41
-12.69
-6.03
0.48
6.59
12.02
16.43
19.60
21.49
22.23
22.14
21.67
21.27
21.25
21.66
22.29
22.84
23.04
22.86
22.42
21.91
21.41
20.80
19.82
18.17
15.61
12.10
7.85
3.26
-1.15
-4.99
-8.12
-10.75
-13.31
-16.19
-19.65
-23.66
-28.08
-32.82
-37.85
-43.09
-48.25
-52.71
-55.64
-56.32
-54.38
-49.90
-43.36
-35.40
-26.70
-17.78
-9.07
-0.88
6.56
13.06
18.46
22.62
25.47
27.09
27.76
27.96
28.18
28.75
29.71
30.75
31.43
31.41
30.67
29.40
27.93
26.47
25.01
23.40
21.45
19.02
16.14
12.95
9.60
6.22
2.84
-0.56
-4.04
-7.63
-11.28
-14.91
-18.47
-22.05
-25.91
-30.45
-35.90
-42.09
-48.23
-53.05
-55.23
-53.91
-49.04
-41.37
-32.06
-22.26
-12.71
-3.71
4.72
12.56
19.68
25.82
30.77
34.42
36.83
38.20
38.76
38.71
38.21
37.41
36.51
35.71
35.16
34.87
34.68
34.26
33.31
31.63
29.28
26.50
23.65
20.99
18.61
16.40
14.18
11.71
8.90
5.80
2.55
-0.65
-3.65
-6.40
-8.97
-11.54
-14.40
-17.92
-22.39
-27.91
-34.23
-40.63
-46.07
-49.46
-49.93
-47.20
-41.54
-33.71
-24.61
-15.06
-5.59
3.46
11.87
19.45
26.02
31.39
35.44
38.16
39.66
40.19
40.06
39.58
38.99
38.41
37.88
37.39
36.94
36.55
36.28
36.12
36.02
35.81
35.28
34.23
32.52
30.17
27.36
24.37
21.48
18.83
16.32
13.71
10.73
7.22
3.29
-0.76
-4.60
-8.06
-11.24
-14.55
-18.47
-23.43
-29.43
-36.06
-42.45
-47.49
-50.17
-49.79
-46.24
-39.93
-31.63
-22.27
-12.67
-3.42
5.12
12.75
19.34
24.79
29.01
31.98
33.80
34.75
35.14
35.26
35.27
35.12
34.70
33.95
32.97
32.05
31.47
31.35
31.50
31.42
30.58
28.66
25.76
22.36
19.05
16.26
14.00
11.91
9.50
6.42
2.64
-1.51
-5.58
-9.20
-12.31
-15.11
-17.95
-21.25
-25.32
-30.32
-36.18
-42.50
-48.57
-53.47
-56.26
-56.33
-53.49
-48.03
-40.56
-31.81
-22.53
-13.31
-4.64
3.19
10.03
15.87
20.74
24.59
27.34
28.91
29.36
28.95
28.07
27.09
26.16
25.21
23.99
22.30
20.12
17.57
14.85
11.93
8.62
4.50
-0.79
-7.38
-15.07
-23.34
-31.59
-39.37
-46.49
-53.05
-59.31
-65.47
-71.73
-78.23
-85.08
-92.29
-99.64
-106.49
-111.96
-115.25
-116.07
-114.78
-112.19
-109.10
-105.90
-102.47
-98.42
-93.46
-87.59
-81.13
-74.51
-68.22
-62.76
-58.62
-56.00
-54.73
-54.04
-52.53
-48.53
-40.66
-28.34
-12.03
6.85
26.46
44.60
59.06
68.08
70.98
68.47
62.70
56.67
53.42
55.65
64.71
80.32
100.75
123.33
144.94
162.82
175.20
181.82
184.78
186.37
187.78
188.89
189.02
187.68
185.28
182.45
179.55
178.02
177.52
176.00
171.26
162.71
151.24
138.92
127.06
116.00
108.53
105.84
106.74
108.91
110.82
111.81
112.89
114.69
117.20
123.73
134.90
147.77
157.81
162.20
160.17
153.90
145.24
111.20
45.97
-36.58
-114.14
-173.01
-207.41
-226.72
-237.04
-242.17
-244.70
-241.65
-231.82
-217.41
-202.64
-190.70
-183.37
-179.62
-178.18
-177.86
-174.59
-166.36
-154.31
-141.48
-130.47
-122.90
-118.32
-116.13
-115.79
-114.97
-112.63
-109.61
-107.73
-108.06
-110.66
-114.08
-116.98
-118.63
-117.99
-114.90
-109.91
-103.50
-95.56
-85.85
-74.31
-61.91
-50.42
-41.20
-34.92
-31.34
-29.36
-27.65
-25.28
-21.91
-17.92
-13.84
-9.93
-5.96
-1.45
3.91
10.03
16.48
22.82
28.96
35.26
42.32
50.47
59.41
68.22
75.73
81.22
84.69
86.83
88.51
90.33
92.57
95.29
98.64
102.76
107.52
112.28
115.86
117.08
115.22
110.42
103.42
95.11
85.89
75.65
64.03
51.05
37.55
24.91
14.55
7.24
2.79
0.22
-1.72
-3.83
-6.21
-8.34
-9.56
-9.55
-8.70
-7.77
-7.44
-7.81
-8.21
-7.52
-4.81
0.04
6.17
12.09
16.54
19.21
20.95
23.21
27.15
32.90
39.41
45.11
48.62
49.39
47.71
44.39
40.39
36.60
33.78
32.65
33.65
36.74
41.14
45.43
47.95
47.39
43.29
36.17
27.35
18.44
10.96
5.90
3.74
4.46
7.70
12.97
19.66
26.97
33.96
39.58
43.05
44.05
42.87
40.28
37.24
34.49
32.45
31.14
30.43
30.21
30.64
32.10
34.91
38.81
42.38
42.83
36.63
20.96
-4.83
-38.38
-74.88
-108.81
-135.77
-153.78
-163.15
-165.43
-162.23
-154.78
-144.22
-132.01
-120.12
-110.46
-104.06
-100.60
-98.58
-96.12
-91.86
-85.49
-77.65
-69.25
-60.62
-51.05
-38.97
-22.76
-2.01
21.79
45.42
65.21
78.63
85.35
87.17
86.81
86.34
86.40
86.53
85.98
84.39
81.85
78.30
73.28
66.08
56.54
45.59
35.12
27.26
23.23
22.71
23.82
23.99
20.99
13.85
3.13
-9.27
-20.94
-29.91
-35.41
-38.08
-39.42
-40.92
-43.20
-45.72
-47.27
-46.90
-44.72
-41.96
-40.33
-40.98
-43.82
-47.54
-50.33
-50.69
-47.99
-42.44
-34.73
-25.60
-15.72
-5.76
3.53
11.35
17.19
21.04
23.35
24.62
24.93
23.64
19.95
13.72
6.13
-0.48
-3.79
-3.00
0.39
3.12
1.84
-5.13
-16.99
-31.13
-44.52
-55.08
-62.15
-66.21
-68.27
-69.54
-71.26
-74.41
-79.25
-84.80
-88.88
-89.20
-84.73
-76.81
-68.71
-63.83
-63.46
-66.01
-67.89
-65.81
-58.86
-48.94
-39.49
-33.49
-32.22
-35.33
-41.94
-51.49
-63.66
-77.30
-89.66
-96.87
-95.89
-86.82
-73.75
-63.34
-61.62
-70.90
-88.38
-107.35
-120.36
-122.59
-113.58
-96.77
-77.21
-58.87
-42.91
-27.41
-8.57
17.07
50.76
90.80
133.16
172.78
205.02
226.65
236.43
234.78
223.02
202.78
175.84
144.58
112.10
81.97
57.58
41.40
34.04
33.75
37.21
39.52
36.40
26.76
13.18
-0.62
-11.84
-19.48
-23.78
-25.98
-27.33
-28.11
-27.65
-25.12
-20.41
-14.25
-7.77
-1.97
2.64
6.13
8.94
11.39
13.35
14.28
13.81
12.05
9.48
6.61
3.71
0.79
-2.24
-5.52
-9.15
-13.18
-17.55
-22.21
-27.11
-32.10
-36.78
-40.52
-42.70
-42.86
-40.92
-37.10
-31.93
-26.07
-20.08
-14.30
-8.87
-3.86
0.64
4.48
7.50
9.62
10.93
11.61
11.98
12.32
12.82
13.52
14.37
15.19
15.85
16.27
16.49
16.60
16.74
16.96
17.27
17.58
17.75
17.58
16.89
15.49
13.26
10.17
6.34
1.93
-2.90
-8.01
-13.33
-18.74
-23.98
-28.61
-31.99
-33.55
-32.80
-29.50
-23.66
-15.38
-4.81
7.81
22.05
37.22
52.43
66.80
79.68
90.72
99.83
106.96
111.97
114.60
114.52
111.58
105.91
97.96
88.40
78.09
67.94
58.91
51.69
46.56
43.30
41.30
40.00
39.18
38.94
39.13
38.96
36.99
31.83
23.30
12.93
3.41
-2.78
-4.78
-3.75
-2.14
-2.21
-4.88
-9.64
-15.40
-21.39
-27.55
-34.10
-40.74
-46.31
-49.22
-48.38
-43.90
-37.26
-30.59
-25.80
-23.82
-24.51
-27.14
-31.04
-36.06
-42.41
-50.06
-58.08
-64.56
-67.42
-65.56
-59.58
-51.57
-44.14
-39.03
-36.46
-35.29
-33.93
-31.17
-26.74
-21.16
-15.42
-10.58
-7.47
-6.41
-7.14
-8.76
-10.20
-10.67
-9.92
-8.32
-6.42
-4.66
-3.31
-2.64
-3.05
-4.80
-7.52
-9.96
-10.31
-7.12
-0.26
8.86
17.91
24.77
28.54
29.81
29.77
29.37
28.61
26.68
22.86
17.38
11.47
6.50
3.00
0.28
-2.55
-5.22
-5.62
-0.72
11.20
28.87
47.86
62.77
70.02
69.55
64.22
57.43
50.97
44.26
35.63
24.19
10.85
-2.11
-12.42
-19.08
-22.76
-24.99
-27.45
-31.08
-35.93
-41.26
-46.04
-49.36
-50.59
-49.64
-46.41
-40.57
-31.60
-19.79
-7.19
1.92
1.96
-11.62
-40.19
-80.77
-126.61
-169.30
-201.24
-217.69
-217.45
-202.55
-177.22
-146.63
-115.84
-89.05
-69.05
-56.74
-50.84
-47.76
-42.16
-28.30
-2.36
35.40
79.67
121.24
150.64
161.80
154.71
134.86
110.29
87.65
69.61
54.90
40.69
25.61
11.41
2.25
1.92
10.95
25.54
39.22
46.28
44.85
37.80
30.90
29.36
35.03
45.63
56.43
63.02
63.53
59.01
52.16
45.41
39.72
34.45
28.17
19.67
8.51
-4.84
-19.23
-32.99
-44.25
-51.61
-54.63
-53.94
-50.87
-46.73
-42.07
-36.60
-29.52
-20.35
-9.51
1.61
11.04
17.08
18.95
17.13
13.11
8.71
5.41
3.77
3.60
4.24
5.18
6.37
8.11
10.67
13.86
16.86
18.61
18.24
15.39
10.22
3.20
-5.01
-13.55
-21.35
-27.19
-30.07
-29.59
-26.07
-20.43
-13.73
-6.76
0.25
7.55
15.57
24.59
34.51
44.91
55.23
64.96
73.82
81.70
88.71
95.12
101.36
107.77
114.33
120.45
125.07
127.15
126.14
122.29
116.43
109.35
101.40
92.33
81.70
69.43
55.90
41.71
27.30
12.85
-1.44
-15.05
-27.18
-37.28
-45.53
-52.96
-60.82
-69.75
-79.14
-87.53
-93.34
-95.80
-95.14
-92.03
-86.86
-79.42
-69.37
-57.01
-43.65
-31.15
-20.99
-13.43
-7.54
-1.94
4.17
10.58
16.44
21.12
24.86
28.68
33.66
40.12
47.46
54.67
61.18
67.22
73.45
80.12
86.49
91.03
92.44
90.67
87.35
85.23
86.77
92.73
101.55
109.95
114.42
112.84
105.35
93.94
81.18
68.73
57.12
46.46
37.30
30.95
28.63
30.28
33.77
35.58
32.32
23.00
9.77
-3.43
-13.36
-19.30
-23.03
-26.97
-32.10
-37.69
-41.73
-42.55
-40.29
-37.06
-35.38
-36.06
-37.13
-34.63
-26.25
-11.63
7.92
30.22
52.85
74.03
93.31
111.46
129.77
146.20
159.33
170.64
184.46
204.67
231.39
260.03
282.80
291.79
276.90
234.09
168.05
90.03
11.38
-61.25
-126.28
-184.79
-238.10
-293.51
-356.52
-427.76
-503.26
-578.74
-652.40
-724.43
-795.21
-820.82
-772.63
-654.70
-502.18
-352.86
-227.51
-130.95
-59.67
-7.19
33.34
61.03
74.68
76.45
72.20
67.57
65.17
65.09
66.92
70.95
72.84
69.16
59.97
48.61
38.59
31.28
26.23
22.17
17.94
9.65
-4.53
-21.99
-35.78
-38.33
-25.53
1.31
36.07
70.42
95.56
106.82
105.17
95.68
83.99
73.35
64.20
55.59
46.88
38.04
30.00
23.89
20.22
18.46
17.37
15.68
13.17
10.70
9.73
11.64
16.96
25.08
34.43
43.07
49.40
52.81
53.68
53.11
52.24
51.75
51.53
50.86
48.74
44.45
38.19
30.98
24.39
19.82
17.99
18.61
20.65
22.50
22.78
21.16
18.41
16.06
15.63
17.87
22.40
28.07
33.09
35.96
36.35
35.20
34.19
35.17
39.81
49.42
64.83
84.79
105.71
122.05
127.60
117.79
91.90
53.92
9.57
-30.77
-59.20
-73.37
-76.01
-72.17
-66.13
-59.78
-53.04
-45.42
-36.94
-29.23
-24.10
-22.23
-22.79
-23.92
-23.57
-20.64
-15.33
-8.65
-2.41
1.88
3.81
4.07
4.04
5.07
7.85
12.23
17.52
22.52
26.18
28.12
28.59
28.26
27.82
27.60
27.53
27.28
26.30
23.99
20.35
15.64
10.37
4.98
-0.17
-4.92
-9.14
-12.77
-15.71
-17.70
-18.42
-17.53
-14.94
-10.65
-4.78
2.44
10.72
19.73
29.17
38.77
48.34
57.41
65.70
73.08
79.51
85.06
89.82
94.03
97.93
101.92
105.82
109.62
113.45
117.44
121.76
126.55
131.98
138.24
145.55
153.32
161.08
168.39
174.74
179.52
181.87
180.59
173.79
164.71
154.12
142.50
130.16
117.40
104.48
91.69
79.37
67.93
57.90
49.01
41.22
34.55
29.03
24.63
21.28
18.89
17.37
16.68
16.17
15.42
14.15
12.17
9.41
5.87
1.63
-3.11
-8.14
-13.56
-19.35
-25.50
-31.92
-38.51
-45.14
-51.64
-57.75
-63.13
-67.59
-70.87
-72.67
-72.76
-70.91
-67.04
-61.08
-53.11
-43.26
-31.77
-18.94
-5.10
9.37
24.05
38.50
52.33
65.20
76.85
87.16
96.08
103.61
109.80
114.68
118.28
120.59
121.62
121.41
120.05
117.58
114.04
109.41
103.63
96.62
87.88
77.24
65.03
52.01
38.94
26.26
13.92
1.53
-11.46
-25.97
-42.39
-60.27
-78.45
-95.63
-110.99
-124.44
-136.59
-148.49
-162.26
-179.12
-198.64
-219.06
-238.36
-255.48
-270.67
-285.29
-301.19
-323.21
-353.95
-392.27
-434.06
-474.73
-511.52
-544.12
-573.93
-603.28
-641.45
-695.08
-765.07
-846.28
-930.17
-1007.18
-1067.70
-1103.21
-1108.25
-1093.08
-1069.04
-1042.69
-1013.77
-978.65
-934.31
-879.81
-816.27
-746.78
-689.51
-657.17
-650.55
-659.59
-671.78
-679.55
-681.56
-680.38
-592.46
-383.24
-77.07
256.53
551.33
776.01
930.09
1027.03
1082.42
1109.05
1102.33
1060.46
991.14
909.73
831.88
767.01
717.88
683.16
660.07
635.23
599.21
554.04
508.79
473.15
452.31
446.50
452.91
467.73
480.66
481.15
467.68
444.70
418.29
392.45
368.83
347.46
327.84
306.21
280.30
251.18
221.61
194.50
171.26
152.16
136.60
123.74
111.58
98.82
85.71
73.05
61.70
51.79
43.32
35.92
29.08
22.29
15.22
7.95
0.38
-6.19
-12.95
-20.15
-27.78
-35.74
-43.94
-51.99
-59.49
-66.25
-72.21
-77.66
-82.61
-87.26
-91.89
-96.91
-102.16
-107.54
-112.96
-118.34
-123.71
-128.80
-133.43
-137.56
-141.40
-144.39
-146.43
-147.59
-148.11
-148.44
-148.91
-149.94
-151.98
-155.54
-159.97
-164.84
-169.70
-174.00
-177.05
-177.81
-174.74
-165.40
-154.27
-142.43
-130.52
-119.03
-108.31
-98.71
-90.52
-84.00
-79.43
-77.14
-76.32
-76.46
-77.11
-77.87
-78.38
-78.37
-77.70
-76.43
-74.86
-72.61
-69.67
-66.23
-62.51
-58.76
-55.20
-51.98
-49.28
-47.25
-45.53
-43.86
-42.03
-39.83
-37.11
-33.73
-29.69
-25.08
-20.15
-14.97
-9.76
-4.72
-0.01
4.29
8.21
11.76
14.93
17.59
19.64
20.93
21.35
20.94
19.92
18.62
17.36
16.35
15.53
14.68
13.53
12.00
10.41
9.49
10.24
13.64
20.30
30.29
43.10
57.96
74.21
91.65
110.63
131.87
156.00
183.15
212.74
243.58
274.30
303.84
331.73
358.19
383.93
410.03
437.86
468.82
503.65
541.47
578.92
610.28
628.96
629.81
611.29
576.33
531.13
482.80
436.86
395.95
360.14
328.30
299.43
273.13
249.28
227.36
206.17
184.27
160.84
136.22
111.79
89.35
70.03
53.56
38.32
22.11
3.21
-18.63
-42.06
-64.61
-83.83
-98.35
-108.27
-114.88
-119.77
-123.97
-127.59
-130.09
-130.90
-130.06
-128.24
-126.40
-125.12
-124.23
-122.95
-120.48
-116.48
-111.23
-105.42
-99.77
-94.86
-91.11
-88.88
-88.40
-89.57
-91.86
-94.41
-96.25
-96.62
-94.89
-90.22
-81.61
-68.36
-51.00
-31.77
-14.01
-0.62
7.53
11.70
13.87
14.46
11.31
0.93
-18.42
-44.06
-68.82
-83.97
-83.78
-68.39
-43.81
-18.36
1.98
16.37
28.40
42.73
61.46
82.90
103.04
118.67
129.55
138.16
147.47
158.49
169.37
176.61
177.66
172.75
165.11
159.22
158.81
165.31
178.01
194.89
213.48
231.06
244.61
251.03
248.01
235.04
213.46
185.86
154.68
120.91
84.09
43.02
-2.98
-53.12
-105.35
-157.14
-206.64
-253.38
-298.25
-342.48
-387.34
-434.15
-484.33
-539.07
-597.97
-657.88
-712.42
-753.03
-771.17
-761.60
-724.59
-665.93
-594.68
-519.51
-446.55
-378.73
-316.74
-259.66
-206.39
-155.90
-107.11
-58.68
-8.51
43.69
95.22
140.13
173.46
192.40
197.36
191.43
179.09
166.70
157.98
152.92
147.43
140.35
132.90
127.63
126.40
129.50
138.97
154.12
171.12
182.07
185.00
181.94
177.71
177.52
186.22
211.36
255.15
311.77
365.63
405.74
425.89
425.27
406.73
347.43
241.91
105.84
-11.09
-103.16
-176.90
-243.97
-307.24
-365.70
-415.47
-446.34
-450.11
-424.90
-379.07
-319.22
-251.23
-179.43
-107.44
-37.95
29.68
93.37
147.07
180.60
191.05
181.66
159.96
133.79
109.25
91.67
82.63
79.87
77.63
73.22
65.99
56.50
44.99
31.47
17.02
2.70
-10.72
-23.31
-33.95
-41.72
-46.67
-50.23
-54.23
-59.55
-65.96
-72.41
-77.87
-81.26
-82.18
-81.21
-79.77
-79.48
-81.56
-86.39
-93.51
-101.75
-109.86
-116.91
-122.46
-126.31
-127.97
-126.55
-120.99
-110.56
-95.15
-75.32
-51.97
-26.33
-0.04
24.56
44.59
57.33
61.38
57.59
49.05
40.05
34.54
34.56
39.92
48.66
58.31
67.11
74.44
80.58
86.02
90.79
94.21
95.20
93.03
87.89
81.16
74.80
70.34
68.01
66.68
64.66
60.80
55.25
49.27
44.31
41.05
39.06
37.17
34.34
30.13
24.84
19.12
13.59
8.77
5.05
2.70
1.71
1.36
0.50
-1.94
-6.18
-11.37
-16.00
-18.96
-20.37
-21.61
-24.43
-29.71
-36.61
-42.89
-45.96
-44.26
-37.97
-28.81
-19.08
-10.61
-4.09
0.86
5.08
9.20
13.26
16.74
18.94
19.38
18.07
15.52
12.48
9.59
7.16
5.12
3.16
0.94
-1.66
-4.51
-7.39
-10.28
-13.49
-17.58
-23.03
-29.71
-36.74
-42.66
-46.13
-46.62
-44.81
-42.40
-41.34
-42.91
-47.14
-52.87
-58.39
-62.24
-63.84
-63.45
-61.71
-59.06
-55.22
-49.37
-40.74
-29.38
-16.49
-3.98
6.43
14.07
19.60
24.44
29.87
36.20
42.69
48.03
51.19
51.97
50.99
49.18
47.18
44.99
42.08
37.91
32.37
26.03
19.97
15.34
12.79
12.11
12.16
11.42
8.71
3.79
-2.50
-8.78
-13.93
-17.68
-20.61
-23.62
-27.30
-31.65
-36.29
-40.94
-45.62
-50.53
-55.56
-60.00
-62.67
-62.40
-58.63
-51.69
-42.51
-32.20
-21.58
-11.13
-1.10
8.26
16.64
23.78
29.67
34.51
38.71
42.63
46.38
49.76
52.21
53.06
51.72
48.11
42.84
37.12
32.30
29.30
28.10
27.79
27.04
24.74
20.56
14.90
8.56
2.28
-3.64
-9.32
-14.99
-20.73
-26.29
-31.25
-35.27
-38.37
-40.95
-43.63
-47.04
-51.52
-56.93
-62.60
-67.44
-70.20
-69.86
-65.94
-58.66
-48.83
-37.54
-25.78
-14.12
-2.82
8.05
18.20
27.12
34.21
39.10
41.95
43.40
44.25
45.14
46.18
47.08
47.42
46.95
45.77
44.22
42.66
41.26
39.92
38.35
36.29
33.63
30.42
26.87
23.27
19.77
16.40
12.96
9.12
4.62
-0.61
-6.35
-12.16
-17.57
-22.27
-26.27
-29.86
-33.55
-37.89
-43.26
-49.66
-56.64
-63.16
-67.90
-69.56
-67.34
-61.19
-51.82
-40.37
-27.93
-15.28
-2.79
9.34
20.82
31.21
39.94
46.56
50.86
53.11
53.86
53.88
54.04
55.06
57.41
60.99
65.00
67.91
67.95
63.77
55.20
43.48
30.87
19.74
11.58
6.52
3.57
1.33
-1.24
-4.50
-8.38
-12.83
-18.16
-24.88
-33.23
-42.70
-52.02
-59.62
-64.36
-66.40
-67.43
-70.37
-78.31
-93.17
-114.82
-140.92
-167.77
-191.74
-210.54
-223.67
-231.76
-235.51
-235.07
-230.18
-220.96
-208.24
-192.75
-173.94
-149.37
-115.81
-71.84
-19.94
33.42
79.87
112.71
129.77
133.98
131.50
128.58
129.22
134.52
143.65
154.89
166.52
177.03
184.93
188.74
187.11
179.54
166.87
151.31
135.26
120.97
109.97
102.82
98.87
96.15
92.38
86.27
78.50
70.18
62.57
56.12
50.29
43.40
32.78
16.82
-2.93
-20.74
-30.59
-28.32
-13.78
9.14
33.77
52.20
58.49
50.85
32.60
7.70
-20.14
-48.40
-75.10
-93.28
-96.60
-84.39
-68.29
-51.36
-35.06
-18.65
-4.27
6.07
11.89
13.92
14.12
14.84
18.39
23.36
26.19
23.08
12.59
-3.84
-23.37
-42.53
-57.84
-65.65
-64.93
-56.98
-45.23
-33.82
-26.37
-25.05
-29.20
-35.44
-38.89
-36.98
-30.49
-23.23
-19.50
-21.94
-30.57
-43.16
-56.47
-67.57
-75.00
-78.29
-77.26
-71.42
-60.41
-44.64
-25.52
-5.04
14.81
32.27
45.90
54.70
58.32
57.40
53.64
49.30
46.34
45.59
46.48
47.58
47.47
45.51
41.91
37.56
33.60
31.07
30.80
33.09
37.55
43.12
48.51
52.84
55.96
58.27
60.00
60.69
59.37
55.24
48.52
40.56
33.12
27.24
22.68
18.32
13.23
7.54
2.42
-0.94
-2.49
-3.82
-7.40
-15.16
-27.33
-42.38
-57.90
-71.79
-83.02
-91.45
-97.22
-100.11
-99.51
-94.95
-86.62
-75.66
-63.80
-52.75
-43.58
-36.50
-31.11
-26.88
-23.52
-21.08
-19.87
-20.04
-21.48
-23.80
-26.42
-28.89
-30.96
-32.65
-34.12
-35.51
-36.89
-38.21
-39.46
-40.59
-41.45
-41.72
-40.80
-37.87
-32.22
-23.53
-12.30
0.11
11.54
19.53
21.67
16.18
2.28
-19.48
-46.70
-74.90
-97.87
-108.87
-102.65
-77.35
-35.67
15.44
66.51
108.14
133.52
140.04
129.53
107.31
80.33
55.32
37.14
28.01
27.66
34.06
44.49
56.29
67.27
75.73
80.54
81.38
78.92
74.67
70.36
67.23
65.53
64.73
64.07
63.14
61.98
60.85
59.66
57.98
55.35
51.77
47.90
44.59
42.49
41.64
41.76
42.56
43.94
45.97
48.43
50.81
52.56
53.57
54.30
55.30
56.49
56.74
54.52
49.06
41.44
34.57
32.03
36.09
46.51
60.39
73.37
81.05
80.09
68.68
46.65
15.73
-20.25
-55.66
-84.45
-102.27
-108.33
-105.94
-101.07
-99.69
-105.27
-117.52
-132.99
-146.87
-154.87
-154.43
-145.07
-127.87
-104.90
-78.60
-51.43
-25.62
-2.92
15.58
29.73
40.39
49.27
58.42
69.23
81.64
93.80
102.59
105.03
99.68
87.38
71.01
54.36
40.81
32.41
29.62
31.48
35.89
39.99
40.62
35.43
24.01
8.67
-5.98
-14.88
-14.85
-6.11
7.93
22.66
34.78
43.88
52.11
62.08
74.60
87.34
95.84
95.91
86.24
69.41
50.68
35.31
26.11
22.58
22.10
22.17
22.30
24.05
29.70
40.24
54.42
69.25
81.65
89.89
93.79
93.72
89.21
78.39
58.45
27.15
-15.69
-67.32
-122.40
-174.26
-216.55
-245.25
-259.51
-261.52
-255.19
-244.40
-231.70
-217.95
-203.04
-186.88
-169.81
-152.21
-133.77
-113.22
-88.93
-60.24
-28.41
3.68
32.76
56.50
74.12
85.99
92.50
93.29
87.08
72.60
49.73
20.27
-12.16
-42.95
-68.05
-85.12
-93.94
-96.24
-94.70
-91.93
-89.59
-88.08
-86.77
-84.65
-80.98
-75.63
-68.93
-61.36
-53.27
-44.98
-36.83
-29.39
-23.39
-19.37
-17.21
-16.00
-14.31
-10.92
-5.44
1.35
7.73
11.77
12.04
8.69
4.02
2.65
10.13
30.40
62.73
100.00
130.33
142.00
129.48
96.86
56.19
21.45
1.96
-0.93
8.16
23.63
42.94
66.77
95.49
125.30
147.58
152.38
133.59
92.24
35.41
-27.64
-89.41
-145.36
-192.16
-225.36
-239.60
-231.13
-201.04
-156.16
-106.83
-62.21
-26.61
0.77
23.00
41.40
53.65
55.37
43.97
21.71
-4.16
-24.74
-33.93
-31.16
-20.86
-9.28
-1.01
2.83
3.81
4.21
5.27
6.70
7.56
7.11
5.35
2.64
-0.70
-4.51
-8.55
-12.30
-15.09
-16.59
-17.21
-18.02
-20.07
-23.66
-28.11
-32.20
-35.05
-36.80
-38.47
-41.48
-46.57
-53.33
-60.30
-65.67
-68.19
-67.58
-64.44
-59.68
-53.87
-47.15
-39.38
-30.61
-21.29
-12.15
-3.85
3.31
9.46
14.91
19.86
24.17
27.41
29.22
29.64
29.30
29.19
30.27
33.02
37.20
41.97
46.18
48.86
49.53
48.20
45.25
41.18
36.47
31.66
27.27
23.77
21.40
19.92
18.73
17.08
14.53
11.13
7.35
3.74
0.39
-3.19
-7.83
-14.21
-22.32
-31.30
-39.67
-45.94
-49.14
-49.16
-46.65
-42.58
-37.74
-32.50
-26.81
-20.54
-13.76
-6.89
-0.56
4.68
8.50
10.88
11.98
12.01
11.13
9.26
6.06
1.07
-6.23
-16.05
-28.15
-41.63
-55.30
-68.08
-79.52
-90.05
-100.85
-113.25
-128.15
-145.50
-164.41
-183.60
-202.07
-219.74
-237.55
-256.89
-278.93
-304.11
-332.19
-362.58
-394.50
-426.50
-455.88
-478.50
-489.76
-486.29
-467.49
-435.89
-395.95
-352.00
-306.48
-259.67
-210.71
-159.10
-105.59
-51.85
0.53
50.87
99.34
146.25
191.16
232.78
269.68
301.05
327.69
351.89
376.75
404.89
437.05
471.50
504.50
531.55
548.88
554.88
550.47
538.71
523.61
508.84
496.59
487.04
478.28
466.88
448.96
421.53
383.81
337.92
288.37
240.46
198.30
163.26
133.95
107.48
81.45
55.27
30.44
9.39
-6.09
-15.89
-21.34
-23.93
-24.31
-22.04
-16.41
-7.76
1.79
9.08
11.48
8.56
2.72
-1.85
-1.20
6.17
18.52
31.77
41.59
45.64
44.60
41.62
40.43
43.59
51.54
62.56
73.61
81.32
83.14
78.01
66.92
52.76
39.63
31.58
31.26
38.91
52.30
67.82
81.92
92.65
100.12
106.04
112.66
121.42
131.93
141.50
145.84
140.96
125.70
103.52
82.11
70.70
76.03
99.16
134.52
172.10
201.38
215.18
211.43
192.37
162.11
124.20
80.64
32.34
-19.45
-72.20
-122.28
-166.26
-202.34
-231.14
-255.73
-280.69
-310.82
-349.87
-399.52
-458.60
-522.73
-584.42
-634.37
-663.93
-668.07
-647.25
-607.22
-556.58
-503.30
-452.42
-404.97
-359.19
-312.80
-265.09
-217.29
-171.23
-127.79
-85.93
-44.10
-0.49
46.70
99.05
157.48
222.44
293.83
370.18
447.70
517.75
570.23
597.78
598.77
576.98
539.68
495.17
450.28
409.08
369.56
328.34
284.60
241.01
200.71
164.76
131.91
99.66
65.75
24.66
-27.76
-91.13
-160.89
-232.38
-303.50
-374.54
-446.68
-493.80
-494.46
-449.22
-380.10
-309.26
-247.24
-195.73
-152.99
-116.84
-85.42
-61.42
-47.50
-42.80
-42.54
-41.83
-38.05
-30.83
-20.86
-9.03
0.74
5.01
3.46
-0.85
-4.62
-6.03
-4.84
-1.52
3.29
7.05
7.52
4.39
-0.35
-4.68
-7.40
-8.27
-7.40
-5.02
-2.18
0.24
0.96
1.98
4.47
8.81
14.45
20.57
26.45
31.27
34.63
36.67
38.15
39.38
40.34
40.25
38.37
34.28
28.21
20.91
13.45
6.96
1.75
-2.35
-6.74
-12.78
-21.35
-32.47
-45.39
-58.84
-71.44
-82.41
-91.50
-100.18
-110.51
-125.03
-146.30
-175.96
-213.59
-256.15
-298.85
-329.75
-340.82
-328.72
-296.06
-250.39
-201.11
-155.82
-118.00
-86.68
-58.22
-29.80
-0.09
30.32
59.92
87.39
112.57
136.39
160.48
186.78
216.60
251.39
292.32
339.21
389.16
435.96
470.90
485.43
474.39
437.52
380.17
310.78
237.51
165.59
96.43
28.42
-41.29
-115.03
-193.51
-274.72
-353.68
-423.10
-475.03
-503.35
-505.95
-485.64
-448.87
-403.49
-356.06
-310.49
-268.17
-229.10
-192.95
-159.43
-128.03
-97.83
-67.66
-36.77
-5.32
25.54
54.35
79.89
101.97
121.46
139.81
158.55
178.50
199.71
221.65
243.74
266.24
290.94
321.21
361.06
413.08
476.00
543.23
603.71
645.17
658.82
642.76
602.61
548.84
491.99
438.68
390.02
343.04
293.96
241.11
185.44
129.13
74.00
20.86
-29.59
-75.47
-113.79
-142.08
-159.88
-170.65
-180.68
-195.70
-217.22
-241.07
-259.71
-267.10
-262.97
-252.77
-245.90
-250.75
-270.34
-300.77
-333.56
-360.17
-375.73
-379.71
-372.41
-354.14
-324.51
-283.23
-231.17
-171.32
-108.81
-49.64
1.56
45.34
84.83
123.34
162.20
200.42
235.52
264.38
284.12
278.67
239.75
171.03
86.99
4.17
-66.77
-122.40
-164.08
-195.11
-218.74
-235.11
-243.57
-244.58
-240.28
-233.68
-227.06
-221.87
-218.89
-218.35
-218.41
-216.98
-213.34
-208.27
-203.19
-199.02
-195.82
-192.85
-188.56
-183.05
-175.52
-165.90
-155.01
-144.05
-133.85
-124.83
-117.02
-110.30
-104.08
-97.54
-90.42
-83.01
-75.84
-69.30
-63.57
-58.71
-54.70
-51.34
-48.19
-45.06
-41.98
-39.06
-36.38
-33.97
-31.77
-29.75
-27.89
-26.00
-23.97
-21.76
-19.39
-16.87
-14.24
-11.54
-8.81
-6.11
-3.43
-0.81
1.68
3.99
6.05
7.87
9.51
11.04
12.51
13.99
15.45
16.79
17.90
18.72
19.27
19.71
20.29
21.24
22.69
24.63
26.89
29.27
31.69
34.24
37.25
41.18
46.40
53.04
60.87
69.36
77.88
86.00
93.64
101.20
109.32
118.62
129.39
141.43
154.19
167.00
179.42
191.45
203.51
216.34
230.87
248.06
268.74
293.14
320.33
347.81
371.76
388.01
393.40
386.97
370.29
346.76
320.21
293.60
268.38
244.75
222.39
201.17
181.34
163.26
147.07
132.39
118.60
105.07
91.58
78.30
65.82
54.75
45.52
38.10
32.03
26.56
20.87
14.44
7.22
-0.38
-7.70
-14.16
-19.51
-23.91
-27.76
-31.46
-35.16
-38.74
-41.94
-44.60
-46.75
-48.56
-50.20
-51.62
-52.53
-52.48
-51.04
-48.05
-43.67
-38.37
-32.77
-27.47
-22.88
-19.20
-16.17
-13.42
-10.70
-8.00
-5.54
-3.60
-2.34
-1.72
-1.53
-1.29
-0.60
0.64
2.24
3.85
5.15
6.05
6.56
6.78
7.27
8.44
10.34
12.67
14.95
16.80
18.06
18.78
19.03
20.39
24.13
30.65
39.27
48.52
56.96
63.74
68.58
71.56
75.99
84.60
98.40
116.06
134.63
151.26
164.38
173.80
180.19
189.49
206.66
233.65
268.30
305.55
340.18
368.89
390.73
406.54
424.54
452.09
492.67
544.27
600.71
655.27
703.58
744.31
737.07
656.52
497.83
283.10
50.79
-163.79
-340.52
-474.54
-570.55
-637.15
-676.65
-690.74
-682.18
-656.61
-621.96
-585.86
-553.64
-527.93
-509.22
-491.62
-469.48
-439.79
-403.74
-365.79
-330.86
-302.15
-280.68
-265.90
-253.40
-239.30
-221.65
-200.89
-179.70
-160.65
-145.06
-133.05
-124.12
-116.27
-107.92
-98.41
-88.18
-78.28
-69.59
-62.46
-56.79
-52.37
-48.44
-44.33
-39.66
-34.43
-28.98
-23.74
-19.08
-15.30
-12.61
-11.02
-10.36
-10.28
-10.38
-10.38
-10.23
-10.15
-10.03
-10.10
-10.49
-11.20
-12.02
-12.66
-12.95
-12.87
-12.52
-12.04
-11.63
-11.32
-11.12
-11.01
-11.06
-11.34
-11.85
-12.44
-12.87
-13.02
-12.89
-12.66
-12.56
-12.72
-13.04
-13.23
-12.91
-11.83
-9.98
-7.53
-4.72
-1.80
1.10
3.85
6.35
8.44
9.97
10.86
11.19
11.16
11.02
11.00
11.19
11.56
11.97
12.25
12.31
12.13
11.81
11.42
11.05
10.67
10.23
9.64
8.83
7.78
6.53
5.16
3.84
2.71
1.89
1.38
1.07
0.79
0.31
-0.52
-1.72
-3.21
-4.86
-6.50
-8.01
-9.33
-10.47
-11.50
-12.57
-13.82
-15.33
-17.03
-18.65
-19.77
-20.01
-19.14
-17.21
-14.53
-11.55
-8.63
-6.01
-3.72
-1.69
0.19
1.95
3.53
4.88
5.89
6.51
6.69
6.44
5.86
5.22
4.87
5.06
5.79
6.77
7.50
7.50
6.56
4.84
2.71
0.57
-1.32
-2.89
-4.13
-5.02
-5.39
-5.02
-3.71
-1.34
2.08
6.39
11.21
16.02
20.19
23.19
24.76
24.96
24.09
22.54
20.57
18.23
15.44
12.11
8.33
4.37
0.63
-2.46
-4.60
-5.68
-5.78
-5.14
-4.00
-2.59
-0.99
0.73
2.51
4.21
5.70
6.88
7.75
8.38
8.81
9.02
8.92
8.48
7.76
6.95
6.28
5.96
6.03
6.39
6.90
7.40
7.79
8.04
8.16
8.14
7.99
7.73
7.36
6.94
6.52
6.15
5.84
5.52
5.11
4.57
3.96
3.51
3.45
3.88
4.69
5.50
5.87
5.54
4.54
3.18
1.79
0.58
-0.56
-1.92
-3.70
-5.81
-7.76
-8.83
-8.41
-6.36
-3.21
0.01
2.11
2.29
0.48
-2.69
-6.11
-8.59
-9.29
-7.79
-4.09
1.30
7.16
11.31
10.94
3.41
-12.41
-35.18
-60.94
-84.32
-100.38
-106.36
-102.26
-90.25
-73.23
-53.61
-32.86
-11.88
8.22
25.81
38.95
46.28
47.67
44.35
38.51
32.34
27.43
24.19
22.14
20.32
17.91
14.59
10.58
6.52
3.04
0.51
-1.03
-1.71
-1.68
-0.95
0.54
2.75
5.44
8.13
10.26
11.38
11.30
10.19
8.40
6.36
4.44
2.93
2.03
1.81
2.25
3.18
4.30
5.26
5.84
5.92
5.57
4.99
4.36
3.83
3.46
3.24
3.12
3.05
2.98
2.91
2.87
2.86
2.85
2.71
2.27
1.36
-0.05
-1.80
-3.60
-5.11
-6.15
-6.79
-7.32
-8.13
-9.53
-11.57
-13.96
-16.16
-17.55
-17.65
-16.26
-13.52
-9.88
-5.91
-2.13
1.12
3.77
5.90
7.65
9.10
10.19
10.85
11.01
10.71
10.09
9.33
8.54
7.79
7.08
6.42
5.84
5.39
5.08
4.88
4.71
4.48
4.14
3.71
3.23
2.76
2.35
2.03
1.82
1.71
1.61
1.37
0.82
-0.12
-1.40
-2.84
-4.18
-5.23
-5.92
-6.34
-6.69
-7.16
-7.95
-9.16
-10.79
-12.72
-14.65
-16.17
-16.81
-16.24
-14.34
-11.32
-7.59
-3.64
0.09
3.30
5.86
7.76
9.02
9.73
9.95
9.77
9.31
8.72
8.15
7.70
7.41
7.27
7.18
7.08
6.91
6.68
6.43
6.21
6.03
5.82
5.48
4.94
4.21
3.32
2.39
1.53
0.78
0.13
-0.49
-1.19
-2.06
-3.16
-4.43
-5.80
-7.14
-8.36
-9.44
-10.46
-11.56
-12.85
-14.32
-15.80
-16.96
-17.38
-16.69
-14.71
-11.53
-7.48
-3.02
1.39
5.41
8.84
11.58
13.62
14.96
15.62
15.68
15.29
14.59
13.68
12.63
11.45
10.20
8.98
7.96
7.27
6.89
6.67
6.35
5.67
4.50
2.88
0.94
-1.13
-3.17
-5.11
-6.91
-8.58
-10.14
-11.62
-13.10
-14.66
-16.36
-18.28
-20.41
-22.73
-25.15
-27.61
-30.07
-32.56
-35.16
-37.89
-40.68
-43.27
-45.28
-46.25
-45.85
-43.93
-40.53
-35.82
-29.97
-23.19
-15.67
-7.69
0.43
8.34
15.74
22.45
28.38
33.46
37.61
40.70
42.67
43.53
43.43
42.56
41.09
39.12
36.71
33.97
31.09
28.32
25.89
23.88
22.15
20.44
18.43
15.99
13.22
10.40
7.90
5.90
4.35
2.98
1.47
-0.38
-2.53
-4.76
-6.79
-8.53
-10.12
-11.84
-13.88
-16.18
-18.38
-19.98
-20.54
-19.88
-18.11
-15.52
-12.35
-8.77
-4.86
-0.70
3.52
7.50
10.89
13.42
15.00
15.73
15.82
15.53
15.07
14.56
14.07
13.61
13.17
12.76
12.37
11.98
11.58
11.15
10.68
10.11
9.41
8.57
7.63
6.66
5.73
4.85
3.96
2.94
1.71
0.27
-1.26
-2.74
-4.08
-5.31
-6.55
-7.93
-9.50
-11.19
-12.86
-14.37
-15.66
-16.79
-17.83
-18.82
-19.67
-20.14
-19.88
-18.55
-15.93
-12.06
-7.27
-2.14
2.67
6.66
9.70
12.08
14.38
17.14
20.56
24.32
27.87
30.61
32.25
32.76
32.23
30.65
27.81
23.60
18.25
12.47
7.21
3.21
0.58
-1.29
-3.39
-6.46
-10.57
-15.03
-18.86
-21.37
-22.69
-23.72
-25.70
-29.53
-35.35
-42.50
-49.90
-56.48
-61.51
-64.70
-65.97
-65.28
-62.48
-57.36
-49.95
-40.99
-32.01
-25.06
-21.78
-22.48
-25.60
-28.22
-27.46
-21.87
-12.06
-0.05
11.97
22.76
32.20
40.61
47.80
52.78
54.12
50.90
43.48
33.47
23.20
15.07
11.05
12.59
20.14
32.90
48.54
63.57
74.33
78.11
73.99
63.00
47.85
32.42
20.84
16.20
19.15
27.18
35.39
38.65
34.18
23.05
9.59
-1.10
-6.00
-5.57
-2.82
-1.00
-1.63
-4.08
-6.71
-8.50
-9.72
-11.35
-13.97
-16.96
-18.75
-17.70
-13.06
-5.47
3.07
9.83
12.17
8.56
-0.17
-10.63
-17.81
-17.42
-8.22
7.00
22.92
34.67
40.57
42.43
43.68
46.33
49.34
49.39
43.42
31.12
15.35
0.47
-10.10
-15.49
-17.06
-16.72
-15.27
-12.05
-5.78
4.04
16.29
28.46
37.54
41.27
38.89
31.11
19.74
6.83
-6.13
-18.49
-30.10
-40.77
-49.88
-56.45
-59.86
-60.49
-59.70
-58.96
-58.71
-57.79
-54.03
-45.69
-32.78
-17.27
-1.92
11.31
22.36
32.87
44.82
59.04
74.35
88.03
96.98
99.14
94.32
84.29
71.90
59.90
50.06
42.81
37.50
33.25
29.71
27.28
26.55
27.44
28.68
28.12
23.99
16.15
6.34
-2.71
-9.01
-12.49
-14.99
-19.05
-26.30
-36.46
-47.51
-56.64
-61.72
-62.03
-58.43
-52.67
-46.53
-41.09
-36.58
-32.60
-28.66
-24.74
-21.37
-19.24
-18.58
-18.68
-17.99
-15.00
-9.34
-2.29
3.60
5.93
3.81
-1.63
-7.95
-12.85
-15.37
-16.14
-16.59
-17.87
-20.19
-22.91
-25.27
-27.01
-28.43
-30.02
-31.97
-33.94
-35.37
-35.89
-35.56
-34.79
-34.05
-33.63
-33.53
-33.62
-33.80
-34.12
-34.81
-36.14
-38.29
-41.36
-45.24
-49.56
-53.75
-57.25
-59.72
-61.13
-61.65
-61.42
-60.77
-60.06
-59.55
-59.37
-59.34
-59.04
-57.83
-55.07
-50.33
-44.16
-37.68
-32.14
-28.25
-25.82
-23.96
-21.48
-17.31
-10.95
-3.38
3.78
8.98
11.71
12.66
13.20
14.64
17.95
23.65
30.77
37.93
43.55
46.32
44.97
38.06
24.01
2.07
-21.16
-38.18
-43.10
-35.88
-21.34
-4.94
10.20
23.22
34.81
45.91
55.24
60.82
60.68
54.48
43.97
32.34
22.05
14.73
9.60
4.16
-4.24
-17.81
-37.38
-62.28
-90.55
-119.91
-146.68
-161.78
-160.94
-142.41
-108.87
-66.99
-26.62
7.82
33.57
50.85
62.12
69.31
74.25
77.30
78.48
78.87
81.38
89.42
106.32
134.08
166.71
198.01
220.97
229.99
222.49
199.25
162.78
116.46
63.63
6.97
-49.91
-103.29
-149.27
-184.15
-204.93
-210.13
-199.77
-175.59
-141.50
-102.53
-64.87
-34.25
-14.28
-5.39
-5.05
-8.84
-12.20
-11.91
-6.42
3.94
17.48
31.85
44.80
54.79
61.57
66.02
69.74
74.41
80.95
89.21
98.03
105.83
111.08
112.88
111.14
106.36
99.47
91.35
82.43
72.78
62.54
52.36
43.50
37.77
36.83
41.37
50.31
60.38
66.46
62.59
43.93
8.66
-40.86
-98.39
-155.60
-204.52
-239.71
-259.05
-263.45
-255.68
-239.39
-218.52
-196.98
-178.31
-164.79
-156.56
-151.36
-145.69
-136.50
-122.60
-105.27
-87.20
-70.96
-57.70
-47.20
-38.59
-31.17
-24.37
-17.17
-7.74
6.28
26.56
52.85
82.38
110.49
132.18
143.80
144.05
134.00
116.59
95.78
75.91
60.81
53.00
52.79
57.97
64.41
67.83
65.65
58.08
47.76
38.30
32.50
31.34
33.89
38.25
42.66
46.19
48.72
50.45
51.61
52.29
52.52
52.49
52.52
52.84
53.38
53.73
53.46
52.46
51.07
49.84
49.19
49.02
48.85
48.05
46.36
44.06
41.82
40.21
39.25
38.37
36.58
32.94
26.92
18.40
7.70
-4.54
-17.35
-29.59
-40.17
-48.46
-54.35
-58.23
-60.50
-61.20
-59.88
-55.91
-49.08
-39.97
-29.83
-20.15
-11.99
-5.73
-1.20
1.86
3.51
3.61
2.23
-0.13
-2.48
-3.80
-3.42
-1.33
2.08
6.47
11.90
18.88
27.79
38.32
49.05
57.75
62.23
61.34
55.54
46.74
37.42
29.62
24.30
21.45
20.51
21.01
22.74
25.52
28.80
31.46
32.04
29.28
22.65
12.65
0.57
-11.85
-22.92
-31.22
-35.82
-36.41
-33.31
-27.58
-20.70
-14.20
-9.08
-5.57
-3.21
-1.28
0.69
2.75
4.59
5.94
6.81
7.55
8.58
10.10
11.95
13.68
14.78
15.01
14.52
13.69
12.88
12.13
11.10
9.31
6.54
2.98
-0.79
-4.17
-6.90
-9.24
-11.62
-14.22
-16.58
-17.83
-17.20
-14.69
-11.36
-8.91
-8.90
-12.00
-17.69
-24.61
-31.21
-36.33
-39.39
-40.24
-38.94
-35.50
-29.95
-22.44
-13.41
-3.58
6.16
14.99
22.36
28.13
32.53
35.99
38.86
41.21
42.70
42.71
40.57
35.96
29.12
20.99
12.98
6.58
2.82
1.94
3.29
5.70
8.07
9.84
11.20
12.78
15.04
17.79
20.17
21.04
19.70
16.27
11.64
6.90
2.74
-0.91
-4.71
-9.47
-15.79
-23.93
-33.98
-45.77
-58.73
-71.51
-81.87
-87.12
-85.05
-74.97
-58.24
-38.00
-18.14
-1.89
9.10
15.03
17.33
17.77
17.58
17.11
16.08
14.05
11.04
7.71
5.12
4.11
4.73
6.10
6.80
5.62
2.34
-2.19
-6.46
-9.22
-10.10
-9.79
-9.50
-10.25
-12.27
-14.94
-17.25
-18.41
-18.23
-17.14
-15.93
-15.38
-15.93
-17.53
-19.65
-21.34
-21.57
-19.49
-14.75
-7.60
1.36
11.45
22.27
33.65
45.43
57.01
67.19
74.48
77.61
76.17
70.72
62.58
53.15
43.54
34.37
26.02
18.89
13.44
9.90
7.93
6.56
4.65
1.46
-2.76
-6.90
-9.52
-9.73
-7.60
-4.15
-0.73
1.61
2.41
1.77
0.03
-2.40
-5.11
-7.64
-9.53
-10.65
-11.33
-12.30
-14.24
-17.23
-20.34
-21.99
-20.66
-15.72
-7.93
0.85
8.35
12.76
13.29
10.24
4.84
-1.20
-6.07
-8.35
-7.33
-3.24
2.82
9.32
14.80
18.49
20.43
21.33
22.03
22.99
24.09
24.78
24.48
22.98
20.75
18.78
18.17
19.62
23.04
27.50
31.59
34.02
34.01
31.62
27.46
22.40
17.15
12.06
7.18
2.50
-2.01
-6.27
-10.09
-13.24
-15.50
-16.75
-17.07
-16.75
-16.14
-15.41
-14.35
-12.43
-9.12
-4.40
1.06
6.02
9.34
10.43
9.45
7.01
3.66
-0.28
-4.46
-7.95
-9.18
-6.69
-0.23
8.61
16.74
21.12
20.26
15.15
8.52
3.25
0.78
0.68
1.40
1.67
1.64
2.83
7.37
16.83
31.37
49.62
69.20
87.56
103.01
115.39
126.15
137.75
152.45
171.15
192.86
215.10
234.99
250.43
260.80
266.64
268.81
267.75
262.97
253.59
238.96
219.09
194.89
167.53
137.52
104.07
65.67
21.96
-24.17
-66.06
-95.03
-104.37
-93.40
-68.89
-43.03
-28.38
-32.87
-57.13
-95.94
-141.72
-188.03
-230.36
-264.50
-285.12
-286.49
-265.58
-225.39
-175.28
-127.23
-90.04
-65.35
-47.64
-28.72
-3.80
25.01
49.62
60.27
50.64
20.79
-23.07
-70.74
-110.77
-132.49
-127.96
-94.06
-34.08
42.58
122.81
193.91
247.56
281.01
295.99
296.01
284.41
264.65
241.34
220.65
208.87
209.48
220.78
236.11
246.64
245.46
230.79
206.13
177.95
152.20
132.04
117.04
104.64
91.91
77.03
59.74
40.90
21.92
4.13
-11.62
-25.42
-37.89
-50.14
-63.25
-77.76
-93.36
-108.85
-122.65
-133.37
-140.52
-144.85
-148.22
-153.00
-161.09
-173.20
-188.67
-205.66
-222.09
-236.56
-248.96
-260.79
-274.85
-294.78
-323.85
-363.16
-410.10
-457.41
-493.97
-507.48
-488.68
-435.38
-354.56
-261.27
-174.04
-109.17
-75.87
-74.65
-98.97
-139.57
-188.37
-240.53
-294.08
-348.40
-402.99
-457.14
-510.20
-561.45
-609.60
-651.72
-683.07
-698.38
-694.03
-670.10
-630.52
-581.73
-530.33
-481.07
-436.27
-396.46
-361.38
-330.53
-303.08
-277.64
-252.36
-225.74
-197.22
-167.55
-138.41
-111.78
-88.99
-70.23
-54.59
-40.50
-26.46
-11.57
4.15
19.91
34.57
47.20
57.45
65.72
72.91
80.09
88.04
97.04
106.81
116.71
126.04
134.38
141.71
148.44
155.20
162.60
171.05
180.60
191.01
201.91
213.06
224.40
236.07
248.28
261.16
274.78
289.35
305.33
323.37
343.72
365.65
387.20
405.53
417.93
422.66
419.28
408.24
390.29
366.08
336.45
302.90
267.82
234.01
203.79
178.19
156.93
139.23
124.86
114.60
109.79
111.23
118.20
128.55
139.48
148.63
154.62
156.95
155.50
150.34
141.85
131.17
120.05
110.18
102.20
95.18
87.07
76.00
61.58
45.43
30.55
19.87
14.94
15.37
19.33
24.44
28.62
30.46
29.36
25.61
20.23
14.67
10.25
7.54
5.97
4.20
0.89
-4.53
-11.63
-19.12
-25.55
-29.76
-31.47
-31.19
-30.12
-29.77
-31.42
-35.71
-42.29
-49.82
-56.22
-59.18
-56.75
-47.81
-32.60
-12.82
8.72
28.80
44.76
55.21
60.25
61.19
59.93
58.23
57.46
58.32
60.69
63.44
64.63
62.08
54.40
41.87
26.54
11.48
-0.59
-8.36
-12.15
-13.27
-13.10
-12.39
-11.23
-9.47
-7.24
-5.11
-3.85
-3.94
-5.13
-6.51
-6.72
-4.71
-0.31
5.52
11.01
14.46
15.23
13.98
12.21
11.11
10.53
8.80
3.59
-6.58
-21.05
-36.80
-49.46
-55.01
-51.33
-38.85
-20.04
1.79
23.81
44.30
62.63
78.53
91.33
99.73
102.17
97.76
87.03
72.12
56.03
41.45
29.61
20.04
11.17
1.54
-9.26
-20.27
-29.82
-36.49
-39.82
-40.33
-39.00
-36.58
-33.34
-29.45
-25.55
-23.05
-23.73
-28.80
-38.01
-49.33
-59.62
-65.90
-66.64
-62.30
-54.96
-47.27
-41.27
-37.91
-37.27
-39.20
-43.74
-50.93
-60.29
-70.34
-78.72
-82.97
-81.40
-73.58
-60.24
-42.76
-22.47
-0.48
22.10
43.79
62.75
77.27
86.47
90.62
90.83
88.13
82.81
74.32
62.03
46.19
28.43
11.42
-2.30
-11.46
-16.57
-19.36
-21.51
-23.63
-24.93
-24.06
-20.25
-14.10
-7.36
-1.99
0.94
1.77
2.02
3.34
6.65
11.75
17.56
22.79
26.57
28.71
29.55
29.65
29.45
29.01
28.02
25.82
21.79
15.68
7.93
-0.28
-7.34
-11.69
-12.36
-9.18
-2.66
6.30
16.75
27.77
38.48
47.95
55.30
60.05
62.23
62.42
61.46
60.01
58.29
56.11
53.11
49.14
44.39
39.29
34.30
29.67
25.40
21.35
17.33
13.29
9.33
5.64
2.37
-0.45
-2.97
-5.45
-8.08
-10.82
-13.29
-14.92
-15.23
-14.12
-12.04
-9.81
-8.27
-7.92
-8.68
-10.06
-11.48
-12.63
-13.67
-15.10
-17.48
-21.06
-25.55
-30.15
-33.82
-35.62
-34.95
-31.66
-25.90
-18.04
-8.54
2.03
12.90
23.17
31.95
38.58
42.82
44.81
44.95
43.67
41.33
38.19
34.38
30.06
25.37
20.48
15.59
10.92
6.68
2.94
-0.39
-3.56
-6.81
-10.22
-13.68
-16.90
-19.61
-21.66
-23.07
-24.01
-24.63
-25.02
-25.23
-25.27
-25.15
-24.87
-24.41
-23.73
-22.86
-21.91
-21.20
-21.11
-22.02
-24.05
-27.03
-30.40
-33.32
-34.92
-34.48
-31.62
-26.36
-19.09
-10.42
-1.07
8.25
16.87
24.23
29.97
33.96
36.37
37.59
38.03
38.01
37.67
37.03
36.06
34.87
33.63
32.59
31.93
31.78
32.17
33.07
34.33
35.71
36.87
37.43
37.05
35.60
33.26
30.54
28.11
26.50
25.83
25.69
25.39
24.24
21.86
18.20
13.25
6.90
-1.18
-11.19
-22.76
-34.78
-45.59
-53.56
-57.79
-58.26
-55.74
-51.33
-46.00
-40.53
-35.69
-32.36
-31.38
-33.01
-36.39
-39.62
-40.40
-37.14
-29.85
-20.35
-11.45
-5.76
-4.47
-6.98
-11.42
-15.64
-18.31
-19.30
-19.45
-19.81
-21.00
-22.87
-24.73
-25.83
-25.76
-24.67
-23.13
-21.83
-21.18
-21.16
-21.40
-21.39
-20.72
-19.17
-16.71
-13.57
-10.28
-7.73
-7.06
-9.35
-15.11
-23.92
-34.38
-44.36
-51.68
-54.59
-52.20
-44.69
-33.20
-19.67
-6.42
4.34
11.04
13.20
11.50
7.44
2.72
-1.33
-4.13
-5.76
-6.69
-7.28
-7.52
-6.93
-4.80
-0.53
6.06
14.58
24.20
33.90
42.79
50.37
56.36
60.58
62.61
61.87
57.82
50.46
40.61
29.87
20.03
12.47
7.66
5.15
3.99
3.29
2.49
1.38
-0.19
-2.54
-6.07
-11.00
-16.96
-22.97
-27.62
-29.54
-27.88
-22.61
-14.47
-4.81
4.77
12.67
17.69
19.25
17.50
13.19
7.33
0.83
-5.82
-12.52
-19.28
-25.93
-31.94
-36.56
-39.17
-39.62
-38.29
-36.00
-33.57
-31.46
-29.62
-27.64
-25.00
-21.32
-16.58
-11.14
-5.80
-1.62
0.27
-0.93
-5.19
-11.37
-17.24
-20.07
-17.54
-8.65
5.71
22.75
38.51
49.00
51.44
45.11
31.65
14.64
-1.36
-12.12
-15.06
-9.95
0.82
12.83
20.64
19.25
5.45
-20.92
-56.51
-94.87
-127.84
-147.56
-148.58
-129.11
-91.31
-40.48
16.20
70.83
115.71
144.01
150.52
132.80
92.30
35.00
-29.28
-88.81
-132.77
-153.83
-149.53
-122.08
-76.96
-21.00
39.06
97.38
149.04
189.77
215.95
224.94
215.63
188.83
147.34
95.68
39.56
-14.77
-61.18
-94.49
-111.36
-110.99
-95.42
-69.12
-37.86
-7.37
17.86
35.30
44.34
45.77
41.16
32.40
21.39
9.97
-0.22
-7.90
-12.27
-13.18
-11.05
-6.70
-1.28
4.01
8.02
9.89
9.33
6.61
2.46
-2.22
-6.71
-10.41
-12.87
-13.51
-11.75
-7.19
-0.11
8.31
16.10
21.13
21.86
17.91
10.18
0.38
-9.62
-18.30
-24.60
-27.76
-27.19
-22.53
-14.11
-3.41
6.97
13.82
14.42
7.65
-5.32
-21.28
-35.97
-45.60
-48.00
-43.21
-33.22
-21.01
-9.57
-1.06
3.49
4.01
1.07
-4.53
-11.81
-19.61
-26.58
-31.30
-32.72
-30.65
-25.90
-20.14
-15.20
-12.41
-12.08
-13.48
-15.27
-16.18
-15.50
-13.26
-10.07
-6.76
-4.17
-2.91
-3.39
-5.62
-9.14
-12.81
-14.98
-13.94
-8.54
1.25
14.28
28.51
41.75
52.32
59.38
62.88
63.24
60.92
56.19
49.11
39.78
28.64
16.68
5.29
-4.10
-10.50
-13.80
-14.71
-14.40
-13.94
-13.80
-13.82
-13.41
-12.14
-10.06
-7.76
-6.13
-5.92
-7.48
-10.52
-14.35
-18.09
-21.16
-23.50
-25.72
-28.81
-33.65
-40.49
-48.52
-55.90
-60.14
-58.80
-50.26
-34.35
-12.51
12.48
37.17
58.24
73.31
81.36
82.72
78.73
71.20
61.87
52.07
42.74
34.44
27.45
21.73
16.89
12.18
6.79
0.27
-6.99
-13.67
-17.85
-17.80
-12.83
-3.69
7.51
18.13
25.95
29.85
29.97
27.32
23.08
18.15
12.93
7.48
1.78
-4.11
-10.08
-16.02
-21.78
-27.16
-31.74
-34.83
-35.63
-33.45
-27.97
-19.44
-8.60
3.42
15.43
26.32
35.29
41.88
46.01
47.96
48.26
47.48
46.16
44.49
42.36
39.34
34.88
28.64
20.63
11.32
1.50
-7.94
-16.31
-23.28
-28.78
-32.87
-35.54
-36.65
-36.02
-33.66
-29.90
-25.43
-21.16
-17.93
-16.25
-16.21
-17.54
-19.74
-22.34
-24.93
-27.34
-29.58
-31.85
-34.43
-37.49
-40.98
-44.48
-47.29
-48.64
-47.96
-45.01
-39.98
-33.25
-25.31
-16.60
-7.57
1.32
9.51
16.44
21.68
25.00
26.43
26.13
24.28
21.10
16.95
12.47
8.68
6.72
7.47
11.11
16.90
23.43
29.16
33.01
34.69
34.61
33.43
31.65
29.42
26.68
23.42
19.94
16.71
14.16
12.37
11.02
9.50
7.27
4.09
0.15
-4.07
-8.05
-11.47
-14.39
-17.13
-20.15
-23.76
-27.91
-32.14
-35.63
-37.43
-36.69
-32.97
-26.38
-17.55
-7.54
2.48
11.50
18.84
24.27
27.90
30.04
30.98
30.93
29.96
28.14
25.58
22.58
19.50
16.71
14.41
12.58
10.93
9.10
6.85
4.16
1.28
-1.39
-3.50
-4.89
-5.64
-6.05
-6.40
-6.92
-7.64
-8.50
-9.42
-10.39
-11.49
-12.75
-14.13
-15.46
-16.58
-17.47
-18.36
-19.66
-21.79
-24.91
-28.76
-32.62
-35.51
-36.50
-34.95
-30.65
-23.90
-15.38
-5.98
3.41
12.00
19.27
24.91
28.85
31.15
31.97
31.57
30.20
28.20
25.87
23.45
21.04
18.64
16.16
13.47
10.59
7.66
4.97
2.77
1.24
0.32
-0.18
-0.57
-1.01
-1.57
-2.17
-2.68
-2.99
-3.06
-2.96
-2.84
-2.92
-3.48
-4.75
-6.82
-9.56
-12.69
-15.92
-19.11
-22.40
-26.10
-30.40
-35.14
-39.70
-43.12
-44.41
-42.91
-38.38
-31.12
-21.73
-11.06
-0.01
10.48
19.55
26.58
31.32
33.97
35.05
35.21
34.98
34.64
34.26
33.79
33.20
32.46
31.52
30.20
28.23
25.38
21.62
17.24
12.83
8.99
6.17
4.48
3.68
3.35
3.05
2.52
1.76
0.95
0.31
-0.04
-0.20
-0.49
-1.30
-2.86
-5.14
-7.75
-10.17
-11.98
-13.10
-13.87
-14.87
-16.60
-19.21
-22.36
-25.35
-27.39
-27.80
-26.24
-22.67
-17.37
-10.80
-3.58
3.64
10.25
15.78
19.99
22.90
24.69
25.59
25.75
25.20
23.88
21.80
19.08
16.05
13.08
10.43
8.13
5.96
3.65
1.07
-1.65
-4.16
-6.10
-7.34
-8.07
-8.66
-9.48
-10.63
-11.95
-13.12
-13.84
-14.03
-13.81
-13.44
-13.21
-13.30
-13.72
-14.37
-15.02
-15.45
-15.51
-15.23
-14.88
-14.95
-15.95
-18.22
-21.69
-25.79
-29.59
-32.06
-32.41
-30.27
-25.77
-19.42
-11.90
-3.90
3.99
11.28
17.56
22.52
26.03
28.15
29.15
29.45
29.39
29.15
28.65
27.69
26.06
23.71
20.89
18.02
15.55
13.75
12.63
11.97
11.45
10.82
9.97
8.94
7.83
6.77
5.81
4.92
3.98
2.75
0.96
-1.56
-4.80
-8.47
-12.14
-15.31
-17.69
-19.28
-20.39
-21.52
-23.16
-25.64
-28.95
-32.74
-36.32
-38.89
-39.68
-38.22
-34.43
-28.73
-21.87
-14.68
-7.94
-2.19
2.31
5.61
8.00
9.98
12.01
14.38
17.10
19.92
22.64
25.29
28.17
31.69
36.03
40.90
45.48
48.75
49.84
48.38
44.57
38.95
32.12
24.53
16.48
8.16
-0.23
-8.45
-16.35
-23.93
-31.30
-38.52
-45.24
-50.58
-53.26
-52.09
-46.63
-37.65
-27.07
-17.26
-10.17
-6.59
-6.00
-7.08
-8.41
-9.11
-9.01
-8.34
-7.39
-6.31
-5.14
-3.94
-2.93
-2.32
-2.25
-2.58
-3.00
-3.20
-3.03
-2.56
-2.01
-1.58
-1.38
-1.43
-1.71
-2.22
-3.04
-4.19
-5.63
-7.24
-8.79
-9.95
-10.28
-9.22
-6.27
-1.14
5.99
14.40
22.94
30.31
35.43
37.65
36.90
33.62
28.55
22.57
16.44
10.74
5.73
1.39
-2.55
-6.53
-10.94
-16.02
-21.66
-27.41
-32.48
-35.95
-37.05
-35.38
-31.03
-24.59
-16.90
-8.87
-1.30
5.27
10.43
13.98
15.92
16.46
16.04
15.18
14.35
13.82
13.60
13.55
13.41
12.96
12.04
10.51
8.32
5.48
2.17
-1.26
-4.42
-7.00
-8.92
-10.37
-11.63
-12.95
-14.33
-15.48
-15.93
-15.24
-13.27
-10.28
-6.91
-3.87
-1.73
-0.69
-0.50
-0.71
-0.87
-0.87
-0.95
-1.65
-3.50
-6.78
-11.34
-16.65
-21.90
-26.25
-28.91
-29.32
-27.11
-22.18
-14.72
-5.27
5.33
16.06
25.84
33.85
39.66
43.24
44.88
45.00
44.02
42.28
40.07
37.64
35.25
33.03
31.02
29.14
27.23
25.13
22.77
20.18
17.48
14.82
12.34
10.08
8.01
6.00
3.87
1.46
-1.28
-4.29
-7.40
-10.46
-13.33
-16.00
-18.49
-20.80
-22.81
-24.31
-25.08
-25.03
-24.39
-23.70
-23.62
-24.63
-26.78
-29.54
-32.02
-33.22
-32.47
-29.59
-24.94
-19.09
-12.70
-6.21
0.01
5.72
10.69
14.73
17.77
19.88
21.19
21.84
21.92
21.44
20.40
18.88
17.03
15.11
13.34
11.81
10.49
9.28
8.08
6.85
5.70
4.72
3.95
3.34
2.76
2.05
1.13
-0.02
-1.31
-2.68
-4.16
-5.86
-7.93
-10.47
-13.43
-16.60
-19.58
-22.02
-23.65
-24.45
-24.69
-24.87
-25.47
-26.78
-28.69
-30.67
-31.91
-31.62
-29.25
-24.74
-18.47
-11.12
-3.42
3.96
10.55
16.05
20.33
23.37
25.30
26.30
26.61
26.42
25.88
25.08
24.07
22.88
21.50
19.86
17.91
15.59
12.96
10.20
7.57
5.36
3.77
2.78
2.21
1.69
0.81
-0.74
-3.08
-6.06
-9.32
-12.35
-14.75
-16.34
-17.21
-17.71
-18.24
-19.10
-20.34
-21.91
-23.64
-25.44
-27.30
-29.17
-30.85
-31.94
-31.93
-30.38
-27.16
-22.47
-16.75
-10.46
-3.84
3.05
10.25
17.66
24.97
31.65
37.17
41.17
43.56
44.53
44.36
43.33
41.63
39.45
36.99
34.46
32.09
29.97
28.01
25.99
23.66
20.96
18.03
15.17
12.65
10.53
8.64
6.63
4.19
1.13
-2.53
-6.68
-11.03
-15.20
-18.67
-20.94
-21.63
-20.74
-18.72
-16.37
-14.62
-14.14
-15.15
-17.40
-20.28
-23.11
-25.28
-26.31
-25.86
-23.75
-20.09
-15.36
-10.56
-6.97
-5.75
-7.43
-11.58
-16.83
-21.34
-23.52
-22.56
-18.66
-12.70
-5.75
1.41
8.46
15.35
21.97
27.93
32.60
35.36
35.95
34.59
32.09
29.41
27.39
26.50
26.63
27.24
27.72
27.70
27.33
27.14
27.83
29.85
33.00
36.53
39.41
40.85
40.66
39.33
37.65
36.19
34.88
32.93
28.89
20.88
6.86
-14.84
-44.65
-81.00
-119.81
-154.99
-179.74
-188.52
-178.75
-151.58
-111.50
-64.90
-18.25
23.31
56.59
80.28
94.16
98.38
93.17
79.16
58.01
32.85
8.01
-12.11
-24.56
-28.87
-27.00
-22.23
-17.69
-15.30
-15.67
-18.63
-23.97
-31.40
-40.11
-48.41
-53.94
-54.69
-50.11
-41.62
-32.13
-24.80
-21.93
-24.24
-31.09
-41.01
-52.43
-63.90
-74.01
-81.22
-84.00
-81.16
-72.33
-58.23
-40.72
-22.43
-6.30
4.96
9.32
6.06
-3.74
-17.01
-29.25
-35.74
-33.07
-20.38
0.44
25.58
50.64
72.04
87.78
97.44
101.77
102.19
100.33
97.77
95.66
94.49
93.84
92.57
89.41
83.58
75.21
65.27
55.11
45.98
38.77
33.89
31.36
30.82
31.63
33.01
34.22
34.86
34.81
34.24
33.36
32.35
31.38
30.72
30.82
32.16
34.96
38.87
42.90
45.70
46.08
43.60
38.81
32.96
27.51
23.42
20.80
19.00
17.10
14.43
10.95
7.28
4.44
3.46
5.10
9.57
16.33
23.93
29.90
31.21
25.08
10.15
-12.68
-40.00
-66.75
-87.66
-98.97
-99.58
-91.32
-78.24
-65.03
-55.27
-50.16
-48.28
-46.49
-41.62
-32.12
-18.88
-4.80
6.58
12.66
12.79
8.30
1.64
-4.63
-8.69
-9.77
-7.92
-3.71
2.05
8.40
14.16
18.15
19.56
18.47
16.09
14.64
16.63
23.87
36.70
53.73
72.28
89.27
102.22
109.94
112.63
111.65
108.92
106.29
104.89
104.73
104.59
102.44
96.18
84.55
67.90
48.32
29.14
13.64
3.60
-1.96
-6.77
-16.34
-36.06
-69.22
-115.53
-171.08
-229.52
-284.12
-329.86
-364.77
-390.01
-408.63
-423.54
-435.76
-443.66
-443.78
-432.68
-408.71
-373.05
-329.00
-280.35
-229.63
-177.56
-123.55
-67.21
-9.49
47.03
98.81
142.64
176.64
200.51
215.05
221.52
221.34
215.99
207.11
196.53
185.95
176.61
169.03
163.18
158.82
155.82
154.14
153.59
153.54
153.05
151.07
146.86
140.18
130.85
118.20
101.00
78.05
49.49
17.96
-11.32
-31.91
-38.57
-29.61
-7.83
20.37
47.32
66.90
76.19
75.69
68.16
56.87
44.38
32.12
20.67
10.46
2.13
-3.54
-6.04
-5.61
-3.41
-1.35
-1.35
-4.85
-12.29
-23.14
-36.12
-49.61
-61.93
-71.67
-77.94
-80.48
-79.75
-76.74
-72.75
-69.02
-66.50
-65.59
-65.94
-66.32
-64.73
-58.85
-47.01
-29.10
-7.07
15.54
34.85
48.16
54.84
56.26
54.69
52.11
49.43
46.67
43.58
40.38
37.81
36.76
37.55
39.55
41.43
41.85
40.28
37.30
34.33
32.72
33.10
34.93
36.88
37.46
35.80
31.89
26.43
20.37
14.39
8.69
3.11
-2.65
-8.64
-14.58
-19.90
-23.99
-26.51
-27.56
-27.67
-27.53
-27.67
-28.16
-28.59
-28.36
-26.91
-24.00
-19.65
-14.12
-7.79
-1.08
5.34
10.70
14.29
15.85
15.84
15.24
15.08
15.89
17.50
19.19
20.27
20.47
19.99
19.19
18.22
17.01
15.44
13.74
12.53
12.58
14.37
17.69
21.79
25.70
28.75
30.73
31.73
31.82
30.85
28.50
24.64
19.49
13.66
7.80
2.34
-2.69
-7.55
-12.54
-17.74
-23.00
-28.06
-32.81
-37.55
-42.95
-49.75
-58.32
-68.32
-78.59
-87.48
-93.33
-94.95
-91.92
-84.58
-73.77
-60.57
-46.05
-31.23
-17.14
-4.72
5.26
12.42
16.95
19.50
20.91
21.89
22.77
23.55
24.08
24.35
24.49
24.69
24.94
24.84
23.70
20.87
16.16
10.14
4.00
-0.81
-3.13
-2.41
1.25
7.22
14.65
22.57
29.96
35.81
39.22
39.62
36.97
31.85
25.24
18.24
11.72
6.06
1.30
-2.77
-6.29
-9.25
-11.51
-12.91
-13.34
-12.76
-11.06
-8.10
-3.75
1.88
8.40
15.02
20.76
24.78
26.59
26.20
24.15
21.17
18.12
15.71
14.43
14.42
15.44
16.87
17.93
17.93
16.48
13.57
9.44
4.32
-1.68
-8.59
-16.29
-24.38
-32.12
-38.54
-42.85
-44.70
-44.25
-42.05
-38.83
-35.24
-31.88
-29.28
-27.84
-27.71
-28.64
-29.99
-30.91
-30.78
-29.50
-27.58
-25.91
-25.20
-25.58
-26.51
-26.94
-25.90
-22.87
-17.93
-11.57
-4.37
3.27
11.17
19.09
26.60
32.95
37.35
39.32
38.99
37.12
34.79
32.95
32.02
31.85
31.89
31.47
30.15
27.74
24.34
20.18
15.56
10.78
6.19
2.10
-1.28
-3.85
-5.72
-7.14
-8.38
-9.69
-11.16
-12.77
-14.36
-15.70
-16.54
-16.76
-16.38
-15.67
-15.04
-14.93
-15.56
-16.85
-18.39
-19.57
-19.86
-18.89
-16.61
-13.14
-8.70
-3.50
2.17
8.00
13.60
18.61
22.78
26.01
28.26
29.51
29.67
28.68
26.60
23.78
20.77
18.22
16.64
16.16
16.62
17.58
18.55
19.11
19.02
18.22
16.77
14.88
12.73
10.53
8.36
6.25
4.18
2.11
-0.01
-2.24
-4.60
-7.09
-9.67
-12.28
-14.81
-17.18
-19.38
-21.51
-23.71
-26.12
-28.80
-31.61
-34.30
-36.53
-37.95
-38.33
-37.52
-35.51
-32.40
-28.37
-23.66
-18.59
-13.44
-8.53
-4.08
-0.26
2.88
5.37
7.31
8.80
9.91
10.69
11.18
11.52
11.91
12.49
13.28
14.08
14.57
14.46
13.68
12.43
11.14
10.23
9.95
10.31
11.08
11.96
12.64
12.98
12.92
12.53
11.89
11.10
10.17
9.11
7.86
6.39
4.65
2.66
0.50
-1.71
-3.82
-5.69
-7.30
-8.72
-10.09
-11.59
-13.36
-15.41
-17.60
-19.75
-21.65
-23.20
-24.32
-25.03
-25.30
-25.01
-23.91
-21.70
-18.18
-13.40
-7.76
-1.92
3.44
7.86
11.26
13.87
16.07
18.05
19.73
20.86
21.16
20.57
19.29
17.74
16.32
15.22
14.44
13.77
12.98
11.89
10.43
8.65
6.62
4.41
2.08
-0.33
-2.72
-4.99
-7.05
-8.84
-10.39
-11.82
-13.23
-14.63
-15.99
-17.25
-18.41
-19.62
-21.05
-22.80
-24.79
-26.73
-28.26
-29.12
-29.22
-28.61
-27.32
-25.24
-22.14
-17.84
-12.37
-6.12
0.22
5.94
10.56
13.99
16.43
18.24
19.62
20.61
21.11
21.05
20.48
19.61
18.65
17.70
16.77
15.79
14.80
13.88
13.18
12.72
12.35
11.76
10.70
9.06
6.97
4.69
2.42
0.23
-1.98
-4.31
-6.81
-9.39
-11.88
-14.11
-15.96
-17.39
-18.37
-18.94
-19.22
-19.35
-19.50
-19.63
-19.50
-18.69
-16.83
-13.82
-9.90
-5.56
-1.24
2.86
6.78
10.67
14.55
18.30
21.67
24.50
26.77
28.62
30.24
31.90
33.86
36.30
39.21
42.16
44.35
44.84
42.97
38.75
32.90
26.54
20.68
15.83
11.94
8.65
5.61
2.71
0.03
-2.25
-4.04
-5.49
-6.86
-8.53
-10.80
-13.93
-17.99
-22.96
-28.64
-34.70
-40.59
-45.65
-49.26
-51.04
-51.08
-49.92
-48.32
-46.84
-45.61
-44.26
-42.22
-39.15
-35.15
-30.60
-25.91
-21.20
-16.31
-11.05
-5.54
-0.24
4.11
6.95
8.16
8.10
7.48
6.98
7.00
7.54
8.38
9.22
9.82
10.15
10.30
10.43
10.67
11.05
11.58
12.19
12.75
13.11
13.02
12.22
10.55
8.02
4.93
1.77
-0.97
-2.95
-4.11
-4.68
-5.04
-5.59
-6.59
-8.03
-9.71
-11.32
-12.53
-13.03
-12.59
-11.06
-8.37
-4.56
0.15
5.40
10.75
15.68
19.72
22.50
23.85
23.76
22.44
20.26
17.64
14.96
12.50
10.38
8.66
7.36
6.45
5.86
5.38
4.71
3.57
1.85
-0.35
-2.80
-5.27
-7.69
-10.13
-12.75
-15.74
-19.17
-23.06
-27.34
-31.92
-36.64
-41.32
-45.79
-50.00
-54.10
-58.39
-63.15
-68.40
-73.83
-78.83
-82.68
-84.71
-84.49
-81.75
-76.43
-68.53
-58.19
-45.74
-31.66
-16.58
-1.11
14.25
29.14
43.31
56.44
68.06
77.64
84.74
89.20
91.22
91.31
90.04
87.87
85.00
81.49
77.35
72.70
67.79
62.88
58.17
53.62
49.08
44.40
39.51
34.53
29.67
25.09
20.86
16.94
13.17
9.44
5.70
1.98
-1.66
-5.13
-8.33
-11.10
-13.20
-14.32
-14.18
-12.62
-9.69
-5.69
-1.09
3.62
8.04
11.95
15.28
18.02
20.12
21.40
21.68
20.86
19.08
16.67
14.11
11.79
9.92
8.46
7.29
6.29
5.43
4.71
4.08
3.40
2.50
1.23
-0.40
-2.24
-4.10
-5.88
-7.55
-9.18
-10.80
-12.36
-13.77
-14.94
-15.89
-16.75
-17.68
-18.79
-20.06
-21.31
-22.26
-22.62
-22.14
-20.61
-17.92
-14.04
-9.12
-3.47
2.42
8.01
12.79
16.46
18.88
20.11
20.37
19.94
19.05
17.89
16.58
15.17
13.73
12.31
10.96
9.66
8.37
7.05
5.71
4.46
3.41
2.67
2.12
1.52
0.55
-1.02
-3.18
-5.66
-8.07
-10.08
-11.59
-12.72
-13.75
-15.01
-16.66
-18.69
-20.91
-22.97
-24.46
-24.94
-24.11
-21.81
-18.11
-13.33
-7.90
-2.34
2.94
7.61
11.53
14.58
16.71
17.91
18.22
17.75
16.70
15.30
13.81
12.42
11.22
10.23
9.36
8.52
7.62
6.63
5.62
4.63
3.71
2.80
1.81
0.65
-0.69
-2.13
-3.56
-4.95
-6.35
-7.86
-9.53
-11.34
-13.19
-14.99
-16.74
-18.49
-20.24
-21.82
-22.87
-22.89
-21.49
-18.51
-14.17
-8.93
-3.38
1.93
6.63
10.47
13.37
15.33
16.47
16.99
17.11
16.99
16.71
16.21
15.44
14.38
13.13
11.85
10.66
9.65
8.79
8.04
7.32
6.60
5.85
4.98
3.92
2.63
1.13
-0.51
-2.16
-3.75
-5.26
-6.68
-8.07
-9.46
-10.87
-12.37
-14.08
-16.11
-18.52
-21.16
-23.67
-25.57
-26.37
-25.75
-23.62
-20.16
-15.72
-10.75
-5.66
-0.77
3.66
7.46
10.52
12.76
14.24
15.04
15.34
15.29
14.96
14.36
13.49
12.43
11.33
10.37
9.68
9.23
8.85
8.33
7.60
6.71
5.82
5.05
4.37
3.60
2.59
1.28
-0.20
-1.62
-2.84
-3.84
-4.76
-5.76
-6.91
-8.16
-9.37
-10.41
-11.30
-12.17
-13.25
-14.72
-16.58
-18.59
-20.32
-21.27
-21.04
-19.47
-16.61
-12.72
-8.14
-3.25
1.63
6.18
10.14
13.31
15.62
17.10
17.85
17.97
17.55
16.64
15.31
13.71
12.02
10.47
9.23
8.36
7.84
7.56
7.39
7.19
6.83
6.24
5.37
4.25
2.97
1.62
0.31
-0.90
-2.05
-3.20
-4.44
-5.76
-7.06
-8.22
-9.15
-9.87
-10.48
-11.13
-11.88
-12.77
-13.79
-14.95
-16.26
-17.60
-18.65
-18.87
-17.75
-15.04
-10.98
-6.21
-1.49
2.59
5.82
8.32
10.32
11.95
13.21
14.01
14.32
14.20
13.75
13.01
11.98
10.68
9.22
7.84
6.81
6.25
6.15
6.32
6.54
6.68
6.63
6.35
5.71
4.63
3.08
1.19
-0.77
-2.50
-3.85
-4.87
-5.80
-6.85
-8.12
-9.58
-11.12
-12.74
-14.49
-16.39
-18.33
-19.93
-20.71
-20.31
-18.61
-15.80
-12.27
-8.36
-4.32
-0.25
3.74
7.46
10.67
13.12
14.73
15.54
15.74
15.48
14.93
14.19
13.31
12.35
11.33
10.29
9.27
8.33
7.53
6.89
6.41
5.97
5.43
4.67
3.62
2.36
1.04
-0.16
-1.16
-2.02
-2.89
-3.95
-5.31
-6.93
-8.70
-10.47
-12.13
-13.67
-15.12
-16.54
-18.01
-19.55
-21.19
-22.83
-24.30
-25.28
-25.39
-24.35
-22.04
-18.66
-14.61
-10.32
-6.16
-2.29
1.22
4.37
7.12
9.40
11.12
12.28
12.93
13.16
13.08
12.79
12.37
11.96
11.67
11.59
11.72
11.96
12.16
12.19
11.99
11.59
11.03
10.37
9.62
8.82
8.06
7.38
6.81
6.26
5.54
4.50
3.07
1.35
-0.45
-2.14
-3.62
-4.93
-6.12
-7.24
-8.35
-9.46
-10.69
-12.11
-13.74
-15.33
-16.43
-16.52
-15.22
-12.56
-8.94
-4.94
-1.06
2.46
5.62
8.53
11.16
13.38
14.97
15.80
15.93
15.57
14.96
14.29
13.61
12.86
12.03
11.10
10.15
9.20
8.25
7.30
6.32
5.35
4.43
3.59
2.84
2.14
1.45
0.67
-0.26
-1.41
-2.80
-4.42
-6.22
-8.09
-9.90
-11.54
-12.94
-14.12
-15.14
-16.10
-17.05
-18.01
-18.92
-19.71
-20.28
-20.50
-20.23
-19.31
-17.59
-15.08
-11.86
-8.16
-4.27
-0.42
3.19
6.49
9.38
11.78
13.57
14.61
14.82
14.21
12.93
11.18
9.14
6.90
4.36
1.46
-1.73
-4.85
-7.29
-8.56
-8.52
-7.59
-6.58
-6.20
-6.77
-7.96
-9.16
-9.87
-10.05
-10.12
-10.60
-11.73
-13.25
-14.61
-15.34
-15.37
-15.08
-14.98
-15.37
-16.08
-16.58
-16.27
-14.86
-12.39
-9.23
-5.78
-2.29
1.16
4.60
8.03
11.31
14.25
16.68
18.50
19.74
20.51
20.91
21.01
20.82
20.33
19.53
18.48
17.29
16.09
14.98
13.93
12.88
11.68
10.28
8.72
7.10
5.52
3.93
2.25
0.34
-1.80
-4.09
-6.32
-8.28
-9.91
-11.24
-12.45
-13.75
-15.28
-17.10
-19.16
-21.27
-23.17
-24.52
-25.02
-24.45
-22.68
-19.73
-15.70
-10.80
-5.35
0.27
5.64
10.39
14.25
17.13
19.04
20.11
20.48
20.21
19.40
18.11
16.50
14.81
13.28
12.09
11.34
10.93
10.72
10.50
10.13
9.55
8.80
7.96
7.10
6.19
5.15
3.84
2.24
0.39
-1.55
-3.42
-5.11
-6.65
-8.12
-9.66
-11.35
-13.23
-15.28
-17.48
-19.75
-21.97
-23.87
-25.04
-25.04
-23.55
-20.50
-16.16
-11.00
-5.55
-0.26
4.63
8.96
12.69
15.73
17.98
19.37
19.96
19.89
19.38
18.63
17.77
16.80
15.73
14.57
13.36
12.17
11.07
10.05
9.05
8.03
6.99
5.96
4.98
4.06
3.13
2.10
0.87
-0.56
-2.16
-3.83
-5.46
-6.96
-8.28
-9.37
-10.25
-10.95
-11.58
-12.31
-13.34
-14.80
-16.63
-18.59
-20.22
-21.01
-20.53
-18.59
-15.25
-10.84
-5.82
-0.73
4.00
8.04
11.25
13.64
15.33
16.46
17.17
17.57
17.66
17.45
16.94
16.15
15.18
14.15
13.19
12.33
11.55
10.72
9.74
8.54
7.18
5.80
4.55
3.54
2.76
2.09
1.37
0.48
-0.60
-1.77
-2.92
-3.97
-4.94
-5.93
-7.07
-8.40
-9.90
-11.44
-12.94
-14.34
-15.65
-16.85
-17.80
-18.24
-17.83
-16.29
-13.52
-9.71
-5.31
-0.87
3.12
6.35
8.77
10.52
11.81
12.77
13.36
13.48
13.01
12.01
10.65
9.20
7.87
6.75
5.78
4.85
3.87
2.78
1.60
0.33
-0.97
-2.27
-3.54
-4.76
-5.94
-7.14
-8.45
-9.93
-11.59
-13.44
-15.41
-17.49
-19.61
-21.72
-23.74
-25.65
-27.48
-29.35
-31.41
-33.76
-36.34
-38.87
-40.88
-41.78
-41.04
-38.32
-33.53
-26.86
-18.71
-9.63
-0.24
8.86
17.15
24.23
29.83
33.87
36.40
37.59
37.72
37.07
35.93
34.53
33.01
31.46
29.90
28.35
26.84
25.40
24.07
22.80
21.51
20.12
18.59
16.94
15.26
13.64
12.15
10.75
9.35
7.83
6.11
4.16
2.00
-0.30
-2.64
-4.94
-7.09
-9.05
-10.77
-12.31
-13.76
-15.25
-16.83
-18.42
-19.77
-20.53
-20.39
-19.15
-16.79
-13.50
-9.57
-5.32
-1.08
2.89
6.37
9.19
11.25
12.54
13.12
13.16
12.82
12.28
11.63
10.94
10.19
9.40
8.60
7.84
7.17
6.61
6.15
5.74
5.31
4.81
4.21
3.50
2.68
1.80
0.96
0.27
-0.21
-0.53
-0.86
-1.44
-2.42
-3.79
-5.33
-6.74
-7.78
-8.36
-8.60
-8.78
-9.19
-10.07
-11.47
-13.28
-15.17
-16.76
-17.63
-17.53
-16.34
-14.17
-11.21
-7.66
-3.66
0.63
5.02
9.18
12.74
15.41
17.14
18.17
18.92
19.79
20.96
22.29
23.49
24.33
24.93
25.65
26.87
28.58
30.28
31.16
30.67
28.91
26.79
25.66
26.75
30.67
37.30
46.00
55.89
65.72
73.68
77.34
74.24
62.97
44.10
20.30
-4.72
-27.82
-47.57
-64.28
-79.06
-92.51
-104.27
-113.41
-119.38
-122.41
-123.09
-121.47
-116.64
-107.24
-92.69
-74.02
-53.30
-32.04
-9.69
16.41
49.29
89.82
135.12
179.15
215.19
238.79
249.39
249.78
244.11
235.59
225.55
214.00
201.03
187.87
176.91
170.62
169.96
173.48
177.24
176.13
165.48
142.76
108.34
65.15
17.37
-31.26
-78.68
-124.93
-171.61
-220.96
-274.67
-332.94
-393.85
-453.40
-506.04
-546.01
-568.93
-573.16
-560.20
-533.84
-498.48
-457.39
-411.97
-362.02
-307.02
-247.40
-185.15
-123.58
-66.34
-16.37
24.74
56.88
81.09
99.04
112.37
122.34
129.82
135.37
139.50
142.77
145.81
149.05
152.56
155.96
158.63
159.94
159.56
157.50
154.11
149.91
145.32
140.46
135.06
128.69
120.95
111.81
101.80
91.83
82.87
75.51
69.70
64.85
60.09
54.70
48.35
41.19
33.63
26.18
19.20
12.90
7.28
2.21
-2.56
-7.28
-12.13
-17.07
-21.73
-25.53
-27.83
-28.13
-26.26
-22.45
-17.22
-11.19
-4.87
1.44
7.60
13.55
19.10
23.95
27.74
30.14
31.05
30.61
29.14
27.03
24.64
22.20
19.86
17.76
16.03
14.79
14.08
13.85
13.96
14.13
14.08
13.51
12.18
10.04
7.20
4.00
0.85
-1.85
-3.91
-5.36
-6.50
-7.65
-9.05
-10.68
-12.32
-13.66
-14.47
-14.73
-14.65
-14.54
-14.69
-15.26
-16.22
-17.44
-18.74
-19.94
-20.81
-21.12
-20.59
-19.00
-16.17
-12.12
-6.99
-1.13
4.97
10.80
15.92
20.05
23.14
25.21
26.32
26.43
25.52
23.65
21.07
18.19
15.43
13.09
11.23
9.83
8.84
8.34
8.43
9.13
10.23
11.28
11.78
11.40
10.09
8.08
5.67
3.11
0.47
-2.21
-4.91
-7.45
-9.68
-11.45
-12.82
-13.92
-14.94
-16.04
-17.29
-18.74
-20.46
-22.49
-24.83
-27.28
-29.45
-30.72
-30.42
-27.97
-23.15
-16.18
-7.70
1.34
9.95
17.34
23.10
27.23
29.97
31.60
32.30
32.11
31.01
29.09
26.59
23.90
21.39
19.30
17.67
16.37
15.23
14.06
12.76
11.29
9.61
7.68
5.48
2.98
0.25
-2.57
-5.31
-7.79
-9.87
-11.46
-12.61
-13.44
-14.18
-15.01
-16.07
-17.34
-18.65
-19.82
-20.74
-21.46
-22.13
-22.96
-24.05
-25.33
-26.54
-27.29
-27.16
-25.77
-22.93
-18.63
-13.13
-6.86
-0.32
6.02
11.87
17.09
21.62
25.35
28.10
29.66
29.89
28.85
26.82
24.22
21.52
19.09
17.15
15.74
14.75
14.01
13.31
12.48
11.40
10.03
8.48
6.91
5.55
4.55
3.89
3.42
2.87
2.01
0.70
-1.03
-3.04
-5.19
-7.30
-9.27
-10.99
-12.40
-13.47
-14.31
-15.12
-16.18
-17.72
-19.81
-22.30
-24.81
-26.85
-27.93
-27.68
-25.90
-22.66
-18.23
-13.01
-7.44
-1.85
3.53
8.54
13.07
16.92
19.85
21.63
22.17
21.58
20.16
18.31
16.37
14.58
13.03
11.76
10.79
10.15
9.81
9.67
9.57
9.33
8.84
8.07
7.03
5.75
4.21
2.42
0.41
-1.64
-3.54
-5.20
-6.67
-8.17
-9.90
-11.98
-14.26
-16.47
-18.30
-19.63
-20.56
-21.43
-22.66
-24.50
-26.95
-29.63
-31.94
-33.17
-32.76
-30.49
-26.47
-21.18
-15.22
-9.24
-3.69
1.15
5.25
8.67
11.49
13.78
15.56
16.79
17.51
17.81
17.86
17.82
17.75
17.55
17.01
15.89
14.07
11.65
8.87
6.09
3.59
1.58
0.12
-0.84
-1.40
-1.68
-1.79
-1.79
-1.77
-1.81
-2.00
-2.46
-3.29
-4.52
-6.13
-8.01
-10.00
-11.96
-13.83
-15.63
-17.44
-19.25
-20.90
-22.02
-22.19
-21.09
-18.61
-14.97
-10.52
-5.65
-0.62
4.51
9.72
14.94
19.96
24.41
27.93
30.31
31.51
31.71
31.18
30.16
28.86
27.42
25.94
24.48
23.12
21.89
20.76
19.62
18.36
16.90
15.26
13.59
11.97
10.46
8.95
7.28
5.31
3.02
0.51
-1.99
-4.30
-6.28
-7.89
-9.14
-10.13
-11.05
-12.15
-13.70
-15.87
-18.56
-21.45
-23.95
-25.46
-25.47
-23.72
-20.25
-15.35
-9.50
-3.27
2.79
8.20
12.66
16.02
18.32
19.65
20.10
19.76
18.66
16.92
14.78
12.55
10.58
9.08
8.09
7.42
6.82
6.04
5.01
3.78
2.49
1.24
0.06
-1.13
-2.37
-3.70
-5.07
-6.43
-7.78
-9.19
-10.73
-12.43
-14.21
-15.92
-17.41
-18.63
-19.62
-20.49
-21.36
-22.26
-23.06
-23.51
-23.29
-22.11
-19.80
-16.41
-12.22
-7.59
-2.95
1.39
5.23
8.49
11.18
13.33
14.95
16.10
16.85
17.35
17.72
18.02
18.20
18.12
17.60
16.54
14.96
13.00
10.84
8.67
6.64
4.85
3.39
2.30
1.55
1.03
0.60
0.10
-0.51
-1.19
-1.87
-2.45
-2.93
-3.35
-3.80
-4.34
-5.09
-6.18
-7.80
-10.14
-13.24
-16.91
-20.70
-23.97
-26.14
-26.73
-25.58
-22.74
-18.52
-13.28
-7.47
-1.51
4.21
9.34
13.61
16.82
18.83
19.62
19.23
17.82
15.63
13.00
10.29
7.86
6.03
5.00
4.82
5.34
6.23
7.14
7.74
7.86
7.49
6.74
5.78
4.74
3.70
2.68
1.69
0.71
-0.36
-1.61
-3.11
-4.85
-6.69
-8.45
-9.92
-11.06
-11.95
-12.81
-13.93
-15.48
-17.47
-19.68
-21.67
-22.92
-22.89
-21.28
-18.05
-13.53
-8.28
-2.98
1.84
5.83
8.85
10.91
12.06
12.41
12.07
11.19
9.99
8.70
7.55
6.68
6.11
5.74
5.41
4.94
4.26
3.42
2.56
1.85
1.38
1.16
1.10
1.08
0.98
0.75
0.39
-0.14
-0.83
-1.68
-2.63
-3.59
-4.45
-5.13
-5.63
-6.08
-6.70
-7.75
-9.39
-11.56
-13.96
-16.08
-17.34
-17.30
-15.72
-12.70
-8.52
-3.62
1.53
6.51
10.94
14.55
17.21
18.95
19.93
20.34
20.32
19.87
18.93
17.47
15.59
13.52
11.56
9.99
8.95
8.43
8.31
8.41
8.53
8.54
8.34
7.91
7.23
6.32
5.20
3.87
2.41
0.95
-0.37
-1.48
-2.40
-3.30
-4.39
-5.84
-7.67
-9.79
-12.04
-14.29
-16.43
-18.37
-19.99
-21.17
-21.74
-21.56
-20.50
-18.45
-15.30
-11.06
-5.90
-0.29
5.14
9.69
12.86
14.49
14.78
14.13
12.95
11.52
9.96
8.32
6.67
5.13
3.82
2.81
2.09
1.62
1.37
1.36
1.59
1.97
2.29
2.23
1.54
0.14
-1.82
-4.00
-6.07
-7.77
-9.06
-10.02
-10.77
-11.39
-11.85
-12.08
-12.11
-12.08
-12.24
-12.85
-14.03
-15.70
-17.55
-19.19
-20.19
-20.29
-19.37
-17.45
-14.68
-11.18
-7.12
-2.68
1.87
6.23
10.03
12.98
14.95
16.06
16.55
16.73
16.78
16.70
16.38
15.74
14.81
13.78
12.87
12.24
11.89
11.72
11.60
11.47
11.31
11.14
10.90
10.43
9.56
8.21
6.49
4.64
3.01
1.81
1.08
0.63
0.15
-0.65
-1.95
-3.71
-5.76
-7.83
-9.73
-11.32
-12.60
-13.70
-14.81
-16.11
-17.71
-19.51
-21.23
-22.46
-22.81
-22.00
-19.94
-16.75
-12.66
-7.99
-3.07
1.75
6.12
9.73
12.41
14.10
14.92
15.03
14.60
13.77
12.70
11.53
10.41
9.47
8.78
8.33
8.07
7.94
7.85
7.70
7.43
6.96
6.29
5.46
4.58
3.74
2.99
2.29
1.54
0.67
-0.37
-1.49
-2.61
-3.65
-4.58
-5.45
-6.34
-7.33
-8.47
-9.80
-11.36
-13.13
-15.09
-17.12
-18.98
-20.30
-20.69
-19.78
-17.40
-13.60
-8.74
-3.34
2.02
6.84
10.82
13.90
16.15
17.69
18.61
18.90
18.56
17.62
16.20
14.54
12.86
11.33
10.03
8.96
8.09
7.43
7.01
6.81
6.75
6.64
6.27
5.46
4.15
2.45
0.58
-1.22
-2.79
-4.11
-5.28
-6.42
-7.64
-8.95
-10.28
-11.54
-12.72
-13.83
-14.98
-16.24
-17.63
-19.09
-20.43
-21.40
-21.75
-21.22
-19.62
-16.87
-13.03
-8.37
-3.26
1.86
6.62
10.79
14.23
16.88
18.70
19.65
19.73
19.07
17.90
16.50
15.13
13.90
12.80
11.76
10.72
9.67
8.69
7.86
7.23
6.72
6.23
5.65
4.92
4.05
3.08
2.05
0.89
-0.44
-2.00
-3.76
-5.56
-7.24
-8.67
-9.86
-10.91
-11.98
-13.26
-14.84
-16.74
-18.86
-21.02
-22.94
-24.28
-24.79
-24.26
-22.61
-19.88
-16.20
-11.79
-6.92
-1.91
2.89
7.21
10.89
13.90
16.22
17.84
18.71
18.71
17.83
16.18
14.07
11.89
10.00
8.64
7.85
7.53
7.47
7.48
7.40
7.11
6.62
5.95
5.16
4.31
3.44
2.56
1.62
0.57
-0.66
-2.10
-3.73
-5.48
-7.25
-8.93
-10.45
-11.78
-13.00
-14.20
-15.47
-16.87
-18.39
-19.94
-21.40
-22.58
-23.22
-23.01
-21.65
-18.96
-14.95
-9.88
-4.24
1.43
6.61
10.98
14.38
16.77
18.24
18.90
18.92
18.50
17.81
16.98
16.12
15.23
14.30
13.32
12.33
11.43
10.70
10.20
9.85
9.49
8.88
7.86
6.37
4.51
2.45
0.39
-1.54
-3.30
-4.88
-6.26
-7.40
-8.27
-8.93
-9.53
-10.25
-11.23
-12.50
-13.96
-15.48
-16.97
-18.37
-19.59
-20.44
-20.58
-19.70
-17.53
-14.09
-9.59
-4.42
1.04
6.42
11.38
15.61
18.80
20.77
21.49
21.16
20.16
18.86
17.54
16.32
15.22
14.21
13.27
12.42
11.68
11.05
10.46
9.85
9.20
8.49
7.77
7.08
6.42
5.70
4.78
3.52
1.87
-0.12
-2.26
-4.36
-6.24
-7.87
-9.28
-10.56
-11.83
-13.16
-14.64
-16.33
-18.27
-20.36
-22.44
-24.22
-25.38
-25.60
-24.63
-22.27
-18.44
-13.31
-7.23
-0.80
5.31
10.55
14.62
17.47
19.24
20.10
20.13
19.42
18.10
16.44
14.76
13.39
12.43
11.81
11.34
10.82
10.21
9.56
8.94
8.38
7.76
6.98
5.97
4.72
3.31
1.83
0.32
-1.24
-2.84
-4.48
-6.13
-7.70
-9.17
-10.51
-11.72
-12.84
-13.93
-15.07
-16.34
-17.83
-19.53
-21.35
-23.10
-24.51
-25.24
-25.03
-23.63
-20.89
-16.81
-11.56
-5.51
0.79
6.74
11.80
15.63
18.15
19.50
19.93
19.71
19.05
18.11
17.06
16.05
15.24
14.74
14.53
14.51
14.51
14.39
14.03
13.41
12.50
11.25
9.62
7.57
5.17
2.56
-0.00
-2.28
-4.15
-5.59
-6.71
-7.64
-8.53
-9.43
-10.38
-11.33
-12.25
-13.11
-13.89
-14.62
-15.39
-16.26
-17.32
-18.54
-19.84
-21.01
-21.78
-21.81
-20.80
-18.55
-15.02
-10.36
-4.94
0.72
6.09
10.75
14.48
17.28
19.24
20.48
21.07
21.00
20.30
19.10
17.60
16.07
14.74
13.71
12.95
12.40
11.95
11.58
11.28
11.09
10.97
10.83
10.53
9.94
9.03
7.81
6.40
4.91
3.41
1.89
0.27
-1.50
-3.42
-5.42
-7.37
-9.16
-10.71
-12.03
-13.13
-14.05
-14.84
-15.57
-16.34
-17.27
-18.36
-19.48
-20.35
-20.54
-19.65
-17.41
-13.77
-8.93
-3.28
2.70
8.50
13.70
17.97
21.11
23.05
23.86
23.70
22.80
21.37
19.62
17.73
15.81
13.93
12.16
10.54
9.13
7.99
7.14
6.52
6.05
5.59
5.00
4.20
3.14
1.84
0.34
-1.32
-3.08
-4.85
-6.58
-8.22
-9.78
-11.25
-12.61
-13.79
-14.70
-15.30
-15.66
-15.98
-16.51
-17.46
-18.88
-20.59
-22.27
-23.52
-23.98
-23.37
-21.48
-18.23
-13.71
-8.21
-2.19
3.76
9.11
13.47
16.73
18.94
20.24
20.75
20.51
19.57
18.05
16.19
14.35
12.84
11.81
11.27
11.04
10.93
10.76
10.48
10.09
9.60
8.99
8.18
7.14
5.86
4.45
3.05
1.73
0.49
-0.78
-2.21
-3.88
-5.78
-7.78
-9.78
-11.68
-13.43
-14.99
-16.33
-17.47
-18.52
-19.68
-21.17
-23.05
-25.11
-26.86
-27.72
-27.18
-25.02
-21.36
-16.53
-11.01
-5.26
0.32
5.41
9.76
13.20
15.70
17.31
18.13
18.31
17.96
17.21
16.17
14.96
13.72
12.58
11.64
10.98
10.59
10.42
10.36
10.26
9.99
9.48
8.75
7.87
6.90
5.91
4.91
3.87
2.77
1.58
0.31
-1.05
-2.51
-4.08
-5.75
-7.48
-9.19
-10.80
-12.21
-13.41
-14.48
-15.56
-16.78
-18.18
-19.69
-21.09
-22.11
-22.46
-21.88
-20.19
-17.31
-13.29
-8.32
-2.77
2.86
8.02
12.31
15.48
17.50
18.50
18.64
18.12
17.12
15.80
14.34
12.92
11.69
10.74
10.12
9.72
9.42
9.05
8.48
7.72
6.87
6.11
5.56
5.25
5.09
4.91
4.55
3.98
3.23
2.44
1.66
0.89
0.06
-0.94
-2.11
-3.41
-4.69
-5.84
-6.84
-7.75
-8.75
-9.98
-11.55
-13.42
-15.49
-17.53
-19.28
-20.44
-20.70
-19.79
-17.56
-14.01
-9.36
-3.96
1.70
7.13
11.93
15.82
18.61
20.28
20.86
20.46
19.25
17.46
15.37
13.24
11.35
9.82
8.73
8.03
7.62
7.44
7.40
7.46
7.52
7.44
7.09
6.39
5.36
4.10
2.77
1.53
0.46
-0.44
-1.22
-1.93
-2.64
-3.40
-4.27
-5.29
-6.54
-8.02
-9.71
-11.53
-13.34
-15.06
-16.65
-18.09
-19.39
-20.47
-21.18
-21.30
-20.57
-18.81
-15.92
-12.01
-7.33
-2.29
2.63
7.03
10.62
13.27
15.01
15.94
16.17
15.83
15.03
13.90
12.61
11.32
10.14
9.09
8.15
7.26
6.43
5.73
5.22
4.90
4.69
4.45
4.00
3.28
2.31
1.22
0.19
-0.70
-1.48
-2.29
-3.27
-4.54
-6.04
-7.66
-9.24
-10.69
-12.00
-13.21
-14.37
-15.53
-16.71
-17.99
-19.45
-21.13
-22.99
-24.79
-26.17
-26.66
-25.89
-23.65
-20.00
-15.23
-9.83
-4.38
0.61
4.74
7.88
10.08
11.54
12.58
13.61
15.07
17.30
20.33
23.78
26.91
28.91
29.28
28.02
25.57
22.56
19.41
16.16
12.69
8.93
5.18
2.05
0.18
-0.14
0.93
2.83
4.92
6.70
7.99
8.85
9.47
10.11
10.95
12.13
13.71
15.64
17.73
19.71
21.21
21.83
21.18
18.90
14.75
8.75
1.27
-6.99
-15.18
-22.51
-28.41
-32.70
-35.38
-36.57
-36.32
-34.61
-31.47
-27.11
-22.01
-16.81
-12.17
-8.48
-5.85
-4.05
-2.74
-1.57
-0.35
0.93
2.20
3.31
4.17
4.76
5.15
5.39
5.56
5.66
5.64
5.46
5.10
4.63
4.11
3.61
3.08
2.39
1.41
0.07
-1.51
-3.15
-4.64
-5.90
-6.96
-7.96
-9.01
-10.12
-11.26
-12.32
-13.26
-14.10
-14.91
-15.79
-16.73
-17.64
-18.30
-18.39
-17.64
-15.87
-13.06
-9.40
-5.19
-0.79
3.47
7.34
10.60
13.13
14.89
15.91
16.30
16.23
15.83
15.20
14.36
13.35
12.25
11.23
10.48
10.15
10.29
10.79
11.44
12.01
12.31
12.24
11.79
11.05
10.09
8.98
7.78
6.49
5.15
3.84
2.66
1.73
1.09
0.72
0.51
0.33
0.09
-0.22
-0.55
-0.84
-1.07
-1.24
-1.33
-1.19
-0.52
1.08
3.95
8.22
13.80
20.41
27.70
35.43
43.51
51.90
60.60
69.45
78.18
86.41
93.75
100.03
105.39
110.40
115.86
122.55
130.88
140.63
151.02
160.91
169.37
176.05
181.32
186.23
192.26
200.87
213.04
228.57
245.57
260.48
268.78
266.39
251.21
224.02
188.27
148.65
109.35
72.55
38.21
4.77
-29.42
-65.08
-101.65
-137.95
-172.88
-206.16
-238.46
-270.95
-305.05
-342.23
-384.18
-432.61
-488.30
-549.65
-611.56
-665.76
-702.94
-716.09
-703.28
-668.44
-619.65
-565.78
-513.27
-464.67
-419.31
-375.21
-330.99
-286.56
-242.60
-199.53
-156.97
-113.87
-69.28
-22.97
24.47
71.91
118.71
165.07
211.69
258.76
304.79
346.24
378.32
396.77
399.70
388.51
367.39
341.63
315.72
292.13
271.34
252.63
235.16
218.51
202.78
188.10
174.44
161.51
149.07
137.12
125.83
115.25
104.89
93.48
79.29
60.89
38.10
12.50
-12.77
-34.01
-48.24
-54.28
-52.92
-46.42
-37.59
-28.85
-21.86
-17.42
-15.67
-16.26
-18.43
-21.05
-22.90
-22.93
-20.70
-16.47
-10.96
-4.97
1.16
7.63
14.98
23.60
33.39
43.68
53.60
62.46
69.82
75.24
77.95
76.88
71.23
61.25
48.59
35.81
25.34
18.34
14.38
12.03
9.85
7.28
4.52
1.84
-1.00
-4.88
-10.64
-18.25
-26.49
-33.50
-37.77
-38.87
-37.52
-34.96
-32.24
-29.75
-27.42
-25.11
-22.97
-21.38
-20.56
-20.30
-19.92
-18.69
-16.24
-12.87
-9.36
-6.49
-4.68
-3.72
-3.01
-1.90
0.04
2.97
6.79
11.20
15.80
19.94
22.82
23.69
22.21
18.70
14.15
9.87
6.93
5.77
5.95
6.39
5.83
3.26
-1.67
-8.57
-16.45
-23.95
-29.81
-33.22
-33.98
-32.44
-29.22
-24.94
-20.04
-14.79
-9.40
-4.08
1.16
6.60
12.93
20.92
30.86
42.13
53.13
61.76
66.34
66.30
62.34
55.91
48.40
40.54
32.55
24.61
17.40
12.11
9.73
10.27
12.32
13.60
12.10
7.19
0.06
-6.99
-11.76
-13.36
-12.44
-10.61
-9.39
-9.48
-10.62
-12.16
-13.57
-14.82
-16.16
-17.73
-19.23
-19.87
-18.75
-15.12
-8.73
0.10
10.46
20.94
29.80
35.27
35.92
30.98
20.55
5.61
-12.02
-29.81
-44.90
-54.82
-58.26
-55.71
-49.51
-42.79
-38.00
-35.74
-34.65
-32.57
-28.05
-21.38
-14.25
-8.60
-5.46
-4.60
-5.07
-6.12
-7.69
-10.13
-13.60
-17.55
-20.88
-22.42
-21.60
-18.67
-14.69
-11.19
-9.87
-12.27
-19.29
-30.75
-45.17
-60.00
-72.51
-80.70
-84.00
-83.24
-79.76
-74.52
-67.51
-58.05
-45.65
-31.00
-16.21
-4.07
3.17
4.97
2.83
-0.39
-1.88
-0.11
4.69
10.98
16.83
20.88
22.83
23.24
23.14
23.45
24.71
26.96
29.98
33.53
37.50
41.74
45.80
48.84
49.69
47.32
41.31
32.08
20.83
9.17
-1.32
-9.53
-14.95
-17.52
-17.61
-15.78
-12.72
-9.21
-6.25
-5.13
-7.16
-13.17
-22.72
-33.74
-42.97
-47.38
-45.85
-40.06
-33.71
-30.54
-31.98
-36.17
-39.00
-36.42
-26.88
-12.17
3.60
16.17
23.17
24.67
22.53
18.94
15.43
12.57
10.31
8.51
7.09
5.94
4.78
3.34
1.55
-0.26
-1.52
-1.77
-1.05
0.12
0.92
0.74
-0.57
-2.64
-4.77
-6.26
-6.64
-5.87
-4.28
-2.49
-1.21
-1.06
-2.43
-5.39
-9.78
-15.17
-20.92
-26.25
-30.34
-32.47
-32.18
-29.44
-24.63
-18.53
-12.05
-6.03
-1.02
2.79
5.60
7.86
10.05
12.44
14.98
17.32
18.99
19.64
19.29
18.29
17.20
16.48
16.36
16.72
17.29
17.75
17.92
17.75
17.28
16.60
15.75
14.79
13.78
12.76
11.70
10.52
9.10
7.37
5.37
3.32
1.42
-0.19
-1.52
-2.77
-4.20
-6.03
-8.31
-10.96
-13.67
-16.00
-17.44
-17.48
-15.78
-12.29
-7.30
-1.35
4.88
10.77
15.92
20.18
23.57
26.21
28.13
29.34
29.82
29.62
28.94
27.99
27.01
26.09
25.18
24.16
22.98
21.69
20.45
19.44
18.73
18.24
17.74
17.01
15.91
14.45
12.76
11.01
9.34
7.80
6.28
4.62
2.64
0.22
-2.64
-5.78
-9.00
-12.01
-14.54
-16.28
-16.93
-16.22
-14.02
-10.37
-5.57
-0.04
5.73
11.34
16.53
21.10
24.91
27.82
29.71
30.55
30.37
29.31
27.61
25.53
23.29
21.12
19.18
17.55
16.25
15.22
14.42
13.79
13.28
12.78
12.14
11.19
9.78
7.94
5.82
3.67
1.69
-0.08
-1.72
-3.40
-5.31
-7.55
-10.19
-13.17
-16.37
-19.49
-22.10
-23.63
-23.56
-21.59
-17.74
-12.42
-6.23
0.13
6.15
11.53
16.16
20.04
23.16
25.45
26.80
27.14
26.53
25.15
23.27
21.18
19.09
17.11
15.31
13.72
12.35
11.20
10.24
9.36
8.48
7.47
6.27
4.82
3.10
1.08
-1.19
-3.67
-6.27
-8.85
-11.33
-13.63
-15.77
-17.80
-19.85
-22.02
-24.35
-26.76
-28.97
-30.59
-31.21
-30.51
-28.36
-24.88
-20.34
-15.06
-9.31
-3.33
2.66
8.37
13.46
17.61
20.57
22.31
22.95
22.76
22.03
21.00
19.87
18.72
17.62
16.61
15.76
15.13
14.77
14.60
14.50
14.26
13.67
12.68
11.33
9.81
8.28
6.86
5.53
4.20
2.76
1.13
-0.70
-2.67
-4.70
-6.70
-8.58
-10.32
-11.92
-13.48
-15.08
-16.84
-18.80
-20.97
-23.19
-25.23
-26.71
-27.20
-26.32
-23.84
-19.80
-14.52
-8.53
-2.47
3.14
7.97
11.86
14.80
16.78
17.83
18.04
17.59
16.80
15.97
15.31
14.83
14.42
13.92
13.24
12.49
11.80
11.31
11.03
10.84
10.56
10.01
9.11
7.87
6.38
4.79
3.23
1.82
0.55
-0.67
-1.99
-3.60
-5.52
-7.65
-9.79
-11.69
-13.21
-14.34
-15.19
-15.97
-16.86
-17.98
-19.37
-20.98
-22.65
-24.13
-25.07
-25.13
-24.04
-21.70
-18.19
-13.80
-8.88
-3.83
1.06
5.52
9.36
12.40
14.50
15.58
15.71
15.11
14.06
12.89
11.81
10.94
10.27
9.75
9.33
9.01
8.80
8.69
8.60
8.43
8.11
7.63
7.03
6.36
5.64
4.87
3.99
2.97
1.82
0.61
-0.58
-1.69
-2.70
-3.71
-4.82
-6.07
-7.42
-8.73
-9.84
-10.66
-11.30
-12.01
-13.06
-14.58
-16.50
-18.52
-20.25
-21.30
-21.44
-20.54
-18.62
-15.76
-12.15
-7.98
-3.52
0.93
5.09
8.68
11.48
13.37
14.34
14.54
14.20
13.59
12.90
12.23
11.57
10.88
10.16
9.46
8.87
8.43
8.14
7.93
7.73
7.46
7.10
6.62
6.01
5.26
4.35
3.28
2.10
0.89
-0.28
-1.34
-2.31
-3.27
-4.34
-5.59
-7.02
-8.53
-9.96
-11.19
-12.25
-13.27
-14.48
-16.07
-18.08
-20.29
-22.34
-23.76
-24.15
-23.27
-21.09
-17.79
-13.65
-9.03
-4.28
0.30
4.46
8.02
10.86
12.95
14.28
14.93
15.03
14.73
14.19
13.53
12.81
12.08
11.38
10.74
10.19
9.72
9.31
8.85
8.28
7.55
6.69
5.75
4.77
3.74
2.63
1.40
0.05
-1.39
-2.87
-4.31
-5.69
-6.96
-8.09
-9.06
-9.90
-10.64
-11.37
-12.17
-13.07
-14.11
-15.30
-16.65
-18.19
-19.92
-21.71
-23.32
-24.40
-24.56
-23.54
-21.22
-17.72
-13.35
-8.53
-3.72
0.70
4.47
7.49
9.78
11.39
12.41
12.86
12.84
12.45
11.86
11.22
10.60
10.01
9.37
8.64
7.88
7.24
6.87
6.82
6.93
6.94
6.58
5.74
4.52
3.13
1.80
0.61
-0.50
-1.67
-3.01
-4.50
-6.07
-7.61
-9.10
-10.61
-12.16
-13.76
-15.34
-16.81
-18.13
-19.35
-20.53
-21.75
-23.05
-24.42
-25.78
-26.93
-27.60
-27.39
-25.98
-23.16
-19.00
-13.85
-8.26
-2.77
2.22
6.46
9.88
12.41
14.06
14.82
14.85
14.40
13.82
13.44
13.48
13.96
14.71
15.50
16.11
16.39
16.35
16.04
15.55
14.96
14.31
13.61
12.87
12.10
11.27
10.38
9.38
8.26
7.03
5.71
4.35
2.99
1.67
0.36
-0.97
-2.37
-3.88
-5.53
-7.34
-9.30
-11.35
-13.38
-15.22
-16.64
-17.37
-17.19
-15.91
-13.45
-9.84
-5.30
-0.12
5.32
10.61
15.40
19.38
22.32
24.13
24.81
24.54
23.56
22.15
20.51
18.77
16.98
15.16
13.43
11.93
10.82
10.20
9.98
9.98
9.92
9.61
8.94
7.98
6.86
5.74
4.68
3.65
2.56
1.31
-0.16
-1.83
-3.56
-5.23
-6.72
-8.02
-9.16
-10.24
-11.35
-12.55
-13.85
-15.20
-16.46
-17.40
-17.70
-17.06
-15.22
-12.12
-7.90
-2.91
2.46
7.79
12.80
17.31
21.22
24.42
26.78
28.21
28.70
28.39
27.58
26.63
25.90
25.58
25.71
26.11
26.52
26.60
26.09
24.82
22.78
20.02
16.63
12.65
8.11
3.09
-2.25
-7.65
-12.87
-17.71
-22.08
-25.96
-29.28
-31.89
-33.59
-34.21
-33.80
-32.62
-31.11
-29.63
-28.33
-27.13
-25.80
-24.16
-22.18
-19.99
-17.74
-15.52
-13.25
-10.76
-7.94
-4.92
-2.03
0.32
1.83
2.55
2.79
2.98
3.40
3.99
4.45
4.40
3.65
2.29
0.63
-1.02
-2.49
-3.74
-4.75
-5.32
-5.15
-3.98
-1.83
0.83
3.25
4.67
4.71
3.43
1.28
-1.25
-3.84
-6.36
-8.77
-10.86
-12.30
-12.72
-12.05
-10.61
-9.11
-8.32
-8.74
-10.40
-12.90
-15.71
-18.43
-20.96
-23.35
-25.63
-27.65
-29.02
-29.31
-28.22
-25.76
-22.22
-18.06
-13.76
-9.67
-6.02
-2.92
-0.41
1.53
2.94
3.86
4.37
4.56
4.57
4.54
4.62
4.87
5.28
5.77
6.24
6.68
7.16
7.75
8.49
9.30
10.01
10.45
10.50
10.15
9.51
8.73
7.93
7.20
6.55
5.93
5.21
4.28
3.09
1.70
0.27
-1.01
-2.01
-2.72
-3.32
-4.06
-5.13
-6.58
-8.27
-9.93
-11.31
-12.20
-12.52
-12.20
-11.15
-9.26
-6.42
-2.73
1.56
5.97
9.99
13.23
15.51
16.90
17.63
17.91
17.91
17.64
17.06
16.18
15.09
13.97
13.07
12.57
12.51
12.80
13.23
13.58
13.69
13.52
13.09
12.44
11.53
10.31
8.77
7.02
5.28
3.76
2.60
1.72
0.89
-0.16
-1.59
-3.33
-5.17
-6.85
-8.21
-9.26
-10.18
-11.23
-12.55
-14.17
-15.90
-17.41
-18.30
-18.24
-17.04
-14.73
-11.50
-7.64
-3.47
0.76
4.85
8.64
11.94
14.56
16.37
17.34
17.56
17.21
16.51
15.58
14.49
13.25
11.93
10.64
9.58
8.94
8.81
9.08
9.54
9.87
9.80
9.21
8.16
6.82
5.42
4.11
2.92
1.79
0.58
-0.78
-2.32
-4.00
-5.74
-7.46
-9.11
-10.64
-12.00
-13.20
-14.28
-15.34
-16.49
-17.81
-19.26
-20.70
-21.89
-22.54
-22.37
-21.15
-18.76
-15.28
-10.95
-6.16
-1.37
3.03
6.79
9.81
12.10
13.72
14.69
15.01
14.75
14.06
13.16
12.28
11.58
11.08
10.72
10.40
10.11
9.86
9.69
9.59
9.46
9.18
8.61
7.74
6.61
5.34
4.06
2.85
1.78
0.83
-0.07
-1.04
-2.18
-3.57
-5.16
-6.83
-8.48
-10.03
-11.48
-12.91
-14.37
-15.85
-17.35
-18.86
-20.44
-22.08
-23.70
-24.97
-25.44
-24.68
-22.47
-18.88
-14.23
-8.98
-3.57
1.70
6.59
10.87
14.36
16.90
18.41
19.00
18.85
18.17
17.19
16.09
15.05
14.23
13.68
13.36
13.12
12.77
12.21
11.50
10.79
10.25
9.95
9.79
9.59
9.17
8.46
7.53
6.53
5.55
4.61
3.61
2.42
0.94
-0.86
-2.90
-5.02
-7.10
-9.05
-10.90
-12.70
-14.52
-16.38
-18.29
-20.24
-22.18
-24.04
-25.65
-26.71
-26.89
-25.89
-23.55
-19.92
-15.28
-10.03
-4.62
0.56
5.19
9.07
12.04
14.07
15.17
15.49
15.21
14.54
13.65
12.69
11.75
10.89
10.13
9.47
8.87
8.30
7.74
7.24
6.85
6.63
6.60
6.66
6.65
6.41
5.86
4.99
3.94
2.81
1.70
0.61
-0.49
-1.57
-2.55
-3.37
-3.95
-4.34
-4.68
-5.13
-5.77
-6.55
-7.22
-7.38
-6.69
-4.87
-1.83
2.39
7.69
13.93
20.93
28.43
35.99
43.11
49.32
54.29
57.89
60.14
61.16
61.06
59.97
58.06
55.54
52.59
49.30
45.67
41.59
37.00
31.84
26.08
19.60
12.21
3.73
-5.80
-16.05
-26.39
-36.13
-44.67
-51.64
-56.87
-60.32
-62.06
-62.31
-61.43
-59.87
-57.88
-55.46
-52.34
-48.21
-43.00
-36.98
-30.63
-24.34
-18.25
-12.28
-6.34
-0.61
4.43
8.15
10.14
10.34
9.04
6.70
3.68
0.19
-3.71
-7.89
-12.14
-16.15
-19.55
-22.07
-23.54
-23.90
-23.20
-21.61
-19.38
-16.75
-13.98
-11.17
-8.47
-6.08
-4.37
-3.75
-4.43
-6.22
-8.46
-10.26
-10.94
-10.36
-9.01
-7.74
-7.33
-8.10
-9.87
-12.18
-14.50
-16.48
-17.85
-18.28
-17.36
-14.79
-10.54
-5.16
0.45
5.29
8.71
10.64
11.48
11.74
11.69
11.28
10.22
8.33
5.71
2.69
-0.31
-2.97
-5.02
-6.19
-6.18
-4.87
-2.42
0.67
3.71
6.24
8.19
9.91
11.85
14.22
16.75
18.87
19.93
19.59
17.94
15.42
12.58
9.85
7.32
4.82
1.95
-1.60
-5.88
-10.51
-14.85
-18.25
-20.27
-20.84
-20.07
-18.15
-15.17
-11.17
-6.28
-0.86
4.56
9.40
13.33
16.42
19.14
22.15
25.89
30.33
34.83
38.37
39.95
39.01
35.56
30.07
23.32
16.18
9.57
4.42
1.50
1.19
3.22
6.59
9.84
11.69
11.49
9.55
6.80
4.26
2.48
1.27
-0.13
-2.59
-6.66
-12.21
-18.56
-24.68
-29.63
-32.84
-34.26
-34.28
-33.70
-33.58
-35.07
-39.00
-45.45
-53.49
-61.24
-66.50
-67.53
-63.74
-55.78
-45.19
-33.66
-22.46
-12.28
-3.40
3.90
9.26
12.36
13.27
12.63
11.51
10.95
11.42
12.56
13.39
12.82
10.32
6.26
1.84
-1.52
-2.83
-1.96
0.40
3.15
5.34
6.53
6.82
6.52
5.95
5.22
4.24
2.92
1.27
-0.57
-2.33
-3.77
-4.85
-5.71
-6.66
-8.03
-9.99
-12.52
-15.29
-17.88
-19.80
-20.64
-20.12
-18.14
-14.79
-10.37
-5.32
-0.09
4.95
9.60
13.72
17.22
19.97
21.85
22.81
22.96
22.54
21.86
21.17
20.59
20.12
19.71
19.36
19.08
18.91
18.83
18.77
18.58
18.13
17.33
16.17
14.69
12.95
11.04
9.05
6.99
4.86
2.65
0.36
-1.96
-4.26
-6.44
-8.50
-10.49
-12.47
-14.55
-16.76
-19.07
-21.28
-23.11
-24.12
-23.87
-21.99
-18.29
-12.94
-6.39
0.65
7.40
13.25
17.83
21.08
23.16
24.33
24.88
25.01
24.88
24.54
23.97
23.14
21.98
20.54
18.91
17.26
15.79
14.58
13.65
12.93
12.26
11.51
10.52
9.18
7.41
5.22
2.70
0.03
-2.62
-5.06
-7.19
-8.88
-10.05
-10.65
-10.73
-10.48
-10.24
-10.38
-11.16
-12.64
-14.61
-16.64
-18.24
-18.90
-18.32
-16.36
-13.08
-8.68
-3.46
2.23
8.05
13.68
18.83
23.23
26.65
28.91
29.95
29.86
28.85
27.28
25.50
23.75
22.15
20.69
19.34
18.10
17.04
16.19
15.50
14.81
13.89
12.61
10.93
8.99
6.95
4.93
2.96
0.98
-1.06
-3.16
-5.24
-7.27
-9.20
-11.06
-12.87
-14.61
-16.20
-17.60
-18.85
-20.11
-21.62
-23.50
-25.68
-27.86
-29.54
-30.25
-29.61
-27.44
-23.76
-18.74
-12.72
-6.11
0.55
6.77
12.12
16.36
19.43
21.39
22.40
22.61
22.18
21.26
20.02
18.60
17.13
15.69
14.33
13.08
11.97
11.02
10.20
9.47
8.77
8.05
7.26
6.36
5.30
4.06
2.62
1.03
-0.60
-2.14
-3.53
-4.77
-6.01
-7.40
-9.01
-10.78
-12.54
-14.10
-15.39
-16.50
-17.67
-19.19
-21.20
-23.58
-25.98
-27.86
-28.72
-28.16
-26.02
-22.35
-17.40
-11.55
-5.23
1.06
6.87
11.81
15.64
18.28
19.79
20.34
20.11
19.26
17.99
16.51
15.05
13.82
12.90
12.23
11.68
11.12
10.50
9.86
9.30
8.87
8.51
8.04
7.32
6.27
4.96
3.51
2.07
0.77
-0.34
-1.26
-2.00
-2.63
-3.21
-3.85
-4.66
-5.71
-7.00
-8.50
-10.19
-12.04
-14.07
-16.20
-18.27
-19.97
-20.90
-20.70
-19.14
-16.20
-12.08
-7.17
-1.93
3.15
7.68
11.35
13.98
15.52
16.03
15.63
14.48
12.76
10.67
8.42
6.22
4.21
2.45
0.91
-0.47
-1.66
-2.52
-2.85
-2.50
-1.47
0.06
1.79
3.41
4.71
5.59
6.03
5.99
5.46
4.50
3.27
2.00
0.88
-0.04
-0.90
-2.00
-3.60
-5.80
-8.44
-11.10
-13.18
-14.11
-13.47
-11.22
-7.63
-3.21
1.44
5.87
9.86
13.38
16.52
19.29
21.58
23.18
23.90
23.62
22.36
20.27
17.55
14.46
11.30
8.34
5.77
3.74
2.24
1.20
0.48
-0.02
-0.41
-0.72
-1.02
-1.32
-1.68
-2.15
-2.74
-3.50
-4.41
-5.42
-6.50
-7.56
-8.54
-9.46
-10.36
-11.34
-12.45
-13.70
-15.03
-16.34
-17.56
-18.63
-19.47
-19.92
-19.75
-18.70
-16.59
-13.45
-9.53
-5.24
-1.00
2.88
6.22
9.00
11.22
12.86
13.85
14.19
13.89
13.08
11.93
10.63
9.34
8.15
7.08
6.16
5.37
4.70
4.16
3.73
3.40
3.15
2.92
2.62
2.18
1.52
0.58
-0.65
-2.17
-3.94
-5.88
-7.90
-9.85
-11.63
-13.15
-14.42
-15.50
-16.44
-17.25
-17.83
-18.01
-17.59
-16.41
-14.43
-11.66
-8.22
-4.27
-0.03
4.18
8.04
11.26
13.66
15.19
15.93
16.01
15.56
14.67
13.47
12.11
10.79
9.67
8.82
8.18
7.60
6.93
6.07
5.05
3.97
2.95
2.06
1.33
0.73
0.21
-0.30
-0.90
-1.67
-2.66
-3.89
-5.29
-6.73
-8.07
-9.21
-10.12
-10.86
-11.61
-12.51
-13.66
-14.99
-16.27
-17.14
-17.25
-16.38
-14.49
-11.73
-8.37
-4.68
-0.89
2.75
6.04
8.78
10.83
12.16
12.88
13.18
13.24
13.14
12.89
12.46
11.87
11.21
10.59
10.12
9.77
9.42
8.92
8.19
7.27
6.29
5.40
4.68
4.08
3.48
2.72
1.72
0.49
-0.93
-2.43
-3.94
-5.41
-6.77
-7.98
-9.02
-9.91
-10.73
-11.65
-12.78
-14.10
-15.43
-16.38
-16.55
-15.62
-13.55
-10.57
-7.07
-3.52
-0.25
2.57
4.90
6.77
8.21
9.17
9.63
9.54
8.96
8.00
6.84
5.72
4.84
4.37
4.35
4.69
5.15
5.48
5.47
5.04
4.27
3.34
2.40
1.59
0.92
0.34
-0.27
-1.04
-2.07
-3.41
-5.03
-6.77
-8.41
-9.77
-10.71
-11.33
-11.81
-12.37
-13.14
-14.05
-14.90
-15.40
-15.32
-14.53
-12.98
-10.72
-7.88
-4.64
-1.25
2.01
4.84
7.01
8.40
9.03
9.02
8.57
7.90
7.24
6.75
6.51
6.51
6.63
6.71
6.63
6.38
6.03
5.70
5.49
5.40
5.32
5.06
4.49
3.55
2.35
1.11
0.02
-0.86
-1.60
-2.36
-3.26
-4.29
-5.39
-6.44
-7.44
-8.46
-9.67
-11.12
-12.71
-14.13
-15.01
-15.07
-14.16
-12.36
-9.85
-6.85
-3.53
-0.08
3.28
6.32
8.79
10.55
11.55
11.90
11.77
11.36
10.82
10.20
9.52
8.76
7.93
7.07
6.26
5.55
4.97
4.49
4.07
3.66
3.23
2.78
2.29
1.73
1.08
0.28
-0.65
-1.68
-2.71
-3.67
-4.54
-5.31
-6.05
-6.84
-7.72
-8.71
-9.81
-10.94
-11.98
-12.80
-13.24
-13.13
-12.32
-10.72
-8.35
-5.35
-1.99
1.37
4.37
6.79
8.54
9.67
10.31
10.59
10.60
10.35
9.83
9.04
8.06
7.04
6.18
5.64
5.43
5.45
5.47
5.32
4.91
4.33
3.72
3.16
2.62
1.97
1.06
-0.16
-1.58
-3.02
-4.31
-5.39
-6.30
-7.19
-8.19
-9.41
-10.84
-12.42
-14.05
-15.60
-17.00
-18.13
-18.90
-19.11
-18.59
-17.17
-14.82
-11.72
-8.22
-4.73
-1.57
1.12
3.40
5.38
7.16
8.73
9.96
10.74
11.03
10.86
10.35
9.66
8.91
8.19
7.55
7.02
6.61
6.33
6.17
6.04
5.88
5.59
5.13
4.55
3.92
3.36
2.87
2.39
1.71
0.65
-0.87
-2.73
-4.64
-6.27
-7.38
-8.01
-8.43
-9.03
-10.13
-11.82
-13.96
-16.19
-18.11
-19.29
-19.48
-18.50
-16.38
-13.25
-9.38
-5.10
-0.78
3.22
6.62
9.25
11.08
12.17
12.70
12.89
12.97
13.05
13.16
13.19
12.99
12.51
11.80
11.06
10.51
10.31
10.44
10.76
11.07
11.23
11.23
11.15
11.06
10.96
10.78
10.43
9.95
9.51
9.36
9.66
10.41
11.42
12.44
13.21
13.68
13.96
14.28
14.87
15.81
17.07
18.51
20.00
21.58
23.54
26.48
31.13
38.08
47.40
58.35
69.39
78.50
83.64
83.33
77.04
65.28
49.47
31.67
14.13
-1.12
-12.66
-20.00
-23.84
-25.81
-27.98
-32.04
-38.57
-46.69
-54.37
-59.28
-59.86
-56.06
-49.34
-42.09
-36.55
-34.03
-34.55
-37.17
-40.65
-44.02
-46.79
-48.85
-50.15
-50.40
-49.08
-45.74
-40.48
-34.31
-28.94
-26.11
-26.65
-29.99
-34.32
-37.44
-37.79
-34.98
-29.73
-23.14
-16.05
-8.81
-1.55
5.51
11.89
17.17
21.28
24.57
27.55
30.60
33.81
37.06
40.18
43.05
45.44
46.90
46.89
45.01
41.45
37.02
32.86
29.99
28.86
29.33
30.86
32.72
34.26
34.89
34.07
31.47
27.18
21.78
16.27
11.76
9.12
8.59
9.64
11.17
11.78
10.31
6.28
-0.03
-7.62
-15.10
-21.05
-24.43
-24.86
-22.70
-18.96
-14.94
-11.84
-10.44
-10.92
-12.78
-14.89
-15.54
-12.84
-5.37
6.93
22.22
36.76
46.04
46.44
36.90
19.52
-1.24
-20.54
-35.20
-44.67
-50.44
-54.61
-58.45
-61.73
-63.13
-61.35
-56.02
-47.94
-38.71
-30.04
-23.29
-19.11
-17.40
-17.05
-16.21
-12.51
-4.02
9.92
27.99
46.84
62.12
70.06
69.01
60.20
47.39
35.40
28.19
27.26
31.31
37.02
40.55
39.19
32.17
20.54
6.38
-8.27
-21.88
-33.46
-42.26
-47.58
-48.98
-46.63
-41.66
-35.92
-31.54
-30.09
-32.03
-36.42
-41.36
-44.71
-44.97
-41.94
-36.72
-31.07
-26.40
-22.94
-19.70
-15.23
-8.78
-1.15
5.65
9.60
9.97
7.92
5.86
5.98
8.89
13.31
16.99
18.11
16.42
13.22
10.38
9.17
9.54
10.41
10.47
9.03
6.31
3.13
0.27
-1.81
-3.10
-3.81
-4.07
-3.89
-3.23
-2.22
-1.15
-0.24
0.62
1.84
3.86
6.70
9.77
12.03
12.65
11.30
8.33
4.34
-0.13
-4.72
-8.83
-11.41
-11.00
-6.49
1.91
12.21
21.19
25.80
24.62
18.56
10.19
2.34
-3.33
-6.89
-9.58
-12.94
-17.95
-24.90
-33.55
-43.34
-53.39
-62.44
-68.95
-71.61
-70.01
-65.02
-58.45
-52.40
-48.23
-46.13
-45.35
-44.81
-43.63
-41.32
-37.70
-32.63
-25.96
-17.57
-7.56
3.67
15.30
26.33
35.77
42.83
47.19
48.95
48.59
46.72
43.98
41.03
38.37
36.29
34.67
32.99
30.52
26.87
22.21
17.54
14.16
13.00
14.01
16.07
17.71
17.95
16.99
16.03
16.44
18.85
22.78
26.89
29.84
30.98
30.61
29.56
28.61
27.92
27.05
25.33
22.41
18.43
13.83
8.88
3.34
-3.27
-11.24
-20.02
-28.38
-34.83
-38.42
-39.04
-37.43
-34.66
-31.57
-28.50
-25.33
-21.92
-18.38
-15.21
-13.08
-12.51
-13.57
-15.86
-18.74
-21.61
-24.12
-26.19
-27.87
-29.04
-29.34
-28.15
-24.95
-19.75
-13.26
-6.77
-1.69
0.97
1.03
-0.92
-3.79
-6.48
-8.15
-8.46
-7.61
-6.20
-5.04
-4.76
-5.58
-7.00
-8.01
-7.47
-4.78
-0.27
4.83
8.91
10.73
10.00
7.42
4.13
1.15
-1.16
-2.95
-4.49
-5.84
-6.72
-6.65
-5.30
-2.62
1.10
5.38
9.70
13.52
16.43
18.21
19.03
19.54
20.71
23.30
27.33
31.77
34.73
34.27
29.40
20.69
10.25
0.94
-4.86
-6.16
-3.66
0.65
4.45
5.96
4.38
-0.13
-6.65
-13.79
-20.05
-24.12
-25.47
-24.76
-23.81
-24.91
-29.67
-38.05
-48.09
-56.86
-62.02
-62.93
-60.63
-56.91
-53.16
-50.19
-48.81
-50.40
-56.36
-66.56
-78.01
-85.12
-82.21
-67.08
-43.11
-18.28
-0.91
5.08
2.40
-1.53
0.58
11.20
26.68
39.86
44.91
40.82
31.73
24.11
22.72
28.16
37.02
44.38
46.77
43.89
38.25
33.37
31.72
33.62
37.40
40.47
40.79
37.75
32.20
25.94
20.78
17.76
16.97
17.92
20.35
24.81
32.40
43.59
56.88
68.48
73.80
70.07
58.41
43.91
33.10
30.28
34.98
42.26
45.72
41.36
29.79
15.59
4.41
-0.24
1.51
6.66
11.45
13.22
11.24
6.41
0.29
-5.79
-11.33
-16.81
-23.28
-31.61
-41.67
-51.95
-60.00
-63.59
-62.02
-56.66
-50.33
-45.75
-44.03
-43.95
-42.80
-37.98
-28.62
-16.14
-3.54
6.12
11.19
11.96
10.39
8.93
9.35
12.12
16.42
20.73
23.51
23.85
21.66
17.62
12.90
8.74
5.99
4.85
4.84
5.03
4.60
3.22
1.23
-0.66
-1.72
-1.56
-0.20
2.09
4.90
7.77
10.07
11.02
9.80
5.96
-0.19
-7.60
-14.88
-20.92
-25.39
-28.72
-31.62
-34.38
-36.64
-37.62
-36.79
-34.36
-31.28
-28.68
-27.18
-26.47
-25.51
-23.20
-19.06
-13.40
-6.92
-0.22
6.51
13.23
19.54
24.58
27.44
27.94
27.10
26.79
28.61
32.76
37.74
41.24
41.66
39.23
35.91
34.20
35.46
38.97
42.47
43.54
41.13
36.04
30.26
25.78
23.54
23.17
23.66
24.01
23.75
22.89
21.47
19.30
16.14
11.92
7.05
2.38
-1.17
-2.97
-3.01
-1.81
-0.13
1.35
2.21
2.27
1.50
-0.13
-2.59
-5.78
-9.49
-13.42
-17.34
-21.14
-24.83
-28.38
-31.60
-34.13
-35.71
-36.36
-36.42
-36.15
-35.29
-32.73
-26.83
-16.16
-0.45
18.88
39.10
57.28
71.53
81.73
89.22
95.76
102.26
108.11
111.45
110.15
102.83
89.39
70.95
49.22
26.08
3.28
-17.48
-34.56
-46.54
-52.75
-53.71
-51.23
-48.04
-46.80
-49.03
-54.42
-60.81
-65.18
-65.01
-59.42
-49.24
-36.26
-21.98
-6.82
9.50
27.02
44.33
58.59
66.53
66.19
58.00
44.66
29.71
15.88
4.21
-5.45
-13.48
-19.47
-22.35
-21.13
-15.73
-7.25
2.51
11.75
19.10
23.63
24.53
20.96
12.31
-1.29
-18.53
-36.98
-53.68
-66.10
-72.86
-73.71
-69.33
-60.70
-48.86
-34.87
-20.13
-6.23
5.21
13.17
17.58
19.35
19.80
19.92
19.84
18.97
16.63
12.68
7.86
3.36
0.16
-1.47
-2.05
-2.43
-3.28
-4.72
-6.50
-8.32
-10.07
-11.95
-14.14
-16.63
-19.14
-21.34
-23.04
-24.31
-25.37
-26.35
-27.30
-28.09
-28.67
-29.14
-29.74
-30.73
-32.25
-34.29
-36.65
-39.02
-41.02
-42.18
-41.94
-39.80
-35.50
-29.12
-21.11
-12.10
-2.69
6.71
15.85
24.55
32.53
39.52
45.29
49.86
53.48
56.46
59.01
61.10
62.58
63.35
63.49
63.12
62.18
60.33
56.98
51.76
44.87
37.16
29.79
23.74
19.21
15.55
11.67
6.57
-0.24
-8.65
-18.25
-28.53
-39.05
-49.34
-58.81
-66.72
-72.44
-75.64
-76.39
-75.12
-72.42
-68.89
-64.93
-60.74
-56.36
-51.66
-46.46
-40.54
-33.67
-25.69
-16.54
-6.28
4.79
16.15
26.98
36.36
43.42
47.66
49.05
48.08
45.60
42.52
39.67
37.59
36.50
36.35
36.87
37.68
38.40
38.75
38.59
37.92
36.85
35.59
34.41
33.63
33.47
33.96
34.82
35.46
35.27
33.77
30.92
27.11
23.05
19.48
16.90
15.50
15.19
15.68
16.51
17.07
16.75
15.22
12.68
9.92
8.07
8.00
9.76
12.31
13.72
11.92
5.60
-5.12
-18.55
-31.86
-42.07
-47.07
-46.40
-41.47
-35.01
-30.15
-29.25
-33.13
-40.89
-50.36
-58.91
-64.27
-65.24
-61.87
-55.32
-47.34
-39.74
-33.92
-30.63
-30.02
-31.85
-35.64
-40.80
-46.55
-51.98
-56.29
-59.07
-60.52
-61.44
-62.75
-65.12
-68.49
-72.24
-75.53
-77.75
-78.75
-78.71
-77.85
-76.17
-73.55
-69.97
-65.69
-60.98
-55.78
-49.48
-41.18
-30.41
-17.76
-4.96
5.99
14.00
19.67
25.00
32.11
41.85
53.15
63.73
71.55
76.01
78.05
79.20
80.24
80.57
78.72
73.67
65.76
56.69
48.37
41.65
35.77
29.22
21.19
12.74
6.44
4.83
8.50
15.11
20.42
20.52
14.11
3.24
-7.98
-15.87
-19.22
-19.58
-19.84
-22.07
-26.31
-30.85
-33.61
-33.43
-30.38
-25.15
-18.08
-8.87
2.92
16.90
31.36
43.71
51.65
54.24
52.35
48.01
43.44
40.09
38.46
38.34
39.32
41.08
43.50
46.37
49.33
51.75
52.90
52.20
49.37
44.45
37.64
29.23
19.50
8.90
-1.88
-11.93
-20.32
-26.41
-30.11
-31.96
-32.96
-34.13
-36.24
-39.49
-43.55
-47.73
-51.26
-53.62
-54.67
-54.57
-53.45
-51.14
-47.12
-40.76
-31.76
-20.56
-8.46
2.80
11.61
17.18
19.71
20.20
19.80
19.28
18.89
18.62
18.44
18.54
19.08
19.88
20.35
19.80
18.01
15.73
14.57
16.33
21.92
30.61
39.99
46.95
48.96
45.12
36.42
25.10
13.59
3.66
-4.02
-9.70
-14.31
-18.99
-24.75
-32.09
-40.79
-49.84
-57.78
-63.14
-64.99
-63.02
-57.64
-49.83
-40.94
-32.59
-26.33
-23.10
-22.77
-23.84
-23.80
-20.30
-12.27
-0.56
12.38
23.75
31.66
35.71
36.82
36.57
36.08
35.55
34.46
31.99
27.87
22.48
16.65
11.29
7.40
5.36
4.83
5.12
5.23
4.81
3.62
1.46
-1.64
-4.19
-4.21
0.25
10.40
25.34
43.34
61.40
75.92
84.12
86.04
83.26
78.27
73.71
70.83
71.62
77.19
87.45
101.62
119.75
140.80
162.35
181.30
193.88
200.60
205.33
213.81
220.12
220.40
212.53
196.13
180.22
161.30
138.49
114.88
93.00
78.21
75.96
88.65
115.48
153.19
195.41
236.30
269.44
288.47
289.21
272.11
241.22
202.87
163.52
126.84
95.32
69.33
47.82
29.89
15.67
5.35
-1.35
-5.36
-8.59
-11.81
-15.14
-18.34
-20.78
-21.79
-21.30
-19.92
-18.69
-19.02
-21.45
-25.82
-31.49
-37.53
-43.13
-48.05
-52.73
-58.06
-65.12
-74.45
-85.99
-99.07
-112.72
-126.15
-139.06
-151.77
-165.08
-179.92
-196.96
-216.34
-237.59
-260.07
-283.00
-305.93
-328.78
-351.74
-375.43
-400.85
-429.50
-462.76
-501.03
-542.48
-582.93
-616.62
-638.31
-645.43
-639.34
-624.75
-607.28
-590.60
-574.59
-555.92
-530.25
-494.75
-449.35
-396.20
-338.43
-279.21
-222.18
-171.73
-133.59
-113.18
-112.64
-128.64
-152.30
-172.46
-180.02
-171.50
-148.48
-116.81
-83.19
-52.06
-24.30
1.65
27.48
53.53
78.56
102.98
126.98
150.35
172.97
195.52
219.14
244.51
271.28
297.87
325.78
355.52
385.93
415.25
442.73
469.11
495.83
524.51
555.92
594.37
640.49
688.87
729.67
753.10
753.30
729.86
687.53
608.37
493.02
360.36
235.94
135.24
60.52
7.81
-27.41
-49.19
-64.25
-75.05
-84.67
-97.36
-116.64
-143.12
-174.79
-209.67
-238.19
-257.03
-263.69
-260.19
-251.95
-244.91
-242.32
-243.38
-243.74
-237.07
-218.86
-185.09
-137.09
-82.08
-30.34
9.61
34.31
45.74
49.16
48.82
48.23
48.08
47.28
44.71
40.71
36.94
35.15
36.00
38.12
40.03
40.30
38.40
34.75
30.44
26.75
24.54
23.99
24.36
24.87
24.92
24.51
23.95
23.70
24.10
25.23
26.95
28.87
30.89
32.72
34.57
37.05
40.79
45.84
51.03
53.93
51.66
42.22
25.74
4.84
-16.26
-33.56
-44.88
-50.35
-51.78
-51.21
-49.78
-47.57
-44.20
-39.84
-35.48
-32.40
-31.27
-31.61
-31.95
-30.56
-26.09
-17.95
-6.18
8.68
25.72
43.74
61.20
76.34
87.64
93.99
94.94
90.66
81.88
69.56
54.75
38.44
21.56
4.91
-10.86
-25.19
-37.53
-47.02
-53.06
-55.65
-55.42
-53.42
-50.70
-47.93
-45.31
-42.76
-40.23
-37.98
-36.38
-35.71
-35.82
-36.12
-35.84
-34.10
-30.33
-24.54
-17.25
-9.35
-1.78
4.80
10.08
14.08
17.03
19.05
20.22
20.44
19.69
18.07
15.93
13.73
11.90
10.74
10.27
10.28
10.47
10.60
10.53
10.26
9.87
9.36
8.73
7.87
6.72
5.25
3.57
1.86
0.33
-0.86
-1.73
-2.46
-3.29
-4.52
-6.31
-8.67
-11.36
-14.01
-16.12
-17.20
-16.85
-14.89
-11.40
-6.71
-1.34
4.14
9.27
13.74
17.45
20.34
22.42
23.68
24.14
23.86
22.98
21.70
20.26
18.89
17.77
16.96
16.40
15.91
15.24
14.22
12.82
11.20
9.54
7.96
6.41
4.69
2.63
0.19
-2.47
-5.09
-7.46
-9.51
-11.41
-13.39
-15.67
-18.33
-21.28
-24.30
-27.08
-29.23
-30.35
-30.09
-28.25
-24.90
-20.32
-15.02
-9.49
-4.18
0.62
4.79
8.28
11.09
13.18
14.52
15.14
15.13
14.69
14.02
13.32
12.71
12.21
11.82
11.49
11.19
10.89
10.56
10.16
9.68
9.05
8.24
7.19
5.84
4.16
2.17
0.01
-2.12
-3.96
-5.39
-6.43
-7.30
-8.32
-9.74
-11.71
-14.12
-16.74
-19.22
-21.27
-22.60
-23.01
-22.30
-20.33
-17.06
-12.64
-7.47
-2.07
3.00
7.31
10.68
13.11
14.76
15.78
16.29
16.35
16.01
15.41
14.74
14.20
13.89
13.76
13.66
13.44
12.97
12.29
11.53
10.81
10.21
9.71
9.21
8.58
7.75
6.65
5.33
3.87
2.34
0.85
-0.58
-1.96
-3.36
-4.82
-6.34
-7.87
-9.34
-10.73
-12.11
-13.64
-15.44
-17.52
-19.74
-21.78
-23.21
-23.59
-22.58
-20.02
-16.03
-10.99
-5.50
-0.21
4.38
8.04
10.76
12.72
14.08
14.91
15.21
15.01
14.38
13.52
12.63
11.88
11.35
11.06
10.98
11.09
11.34
11.68
11.96
12.02
11.70
10.91
9.68
8.13
6.50
5.07
4.03
3.45
3.17
2.93
2.44
1.49
0.10
-1.58
-3.30
-4.89
-6.28
-7.52
-8.75
-10.13
-11.76
-13.67
-15.78
-17.84
-19.52
-20.39
-20.10
-18.46
-15.53
-11.57
-7.01
-2.33
2.03
5.75
8.66
10.73
12.02
12.69
12.92
12.85
12.61
12.25
11.80
11.25
10.56
9.72
8.74
7.75
6.92
6.38
6.22
6.33
6.50
6.48
6.06
5.19
3.95
2.48
0.97
-0.46
-1.74
-2.83
-3.72
-4.46
-5.11
-5.78
-6.53
-7.36
-8.23
-9.10
-10.00
-11.04
-12.35
-14.03
-15.99
-17.96
-19.56
-20.37
-20.08
-18.62
-16.10
-12.83
-9.14
-5.37
-1.77
1.52
4.36
6.68
8.39
9.44
9.85
9.74
9.30
8.73
8.19
7.79
7.56
7.48
7.51
7.62
7.76
7.87
7.90
7.80
7.51
7.02
6.34
5.54
4.67
3.81
2.98
2.19
1.41
0.60
-0.29
-1.27
-2.34
-3.46
-4.57
-5.58
-6.41
-7.03
-7.49
-7.98
-8.72
-9.92
-11.63
-13.69
-15.82
-17.68
-18.96
-19.44
-18.97
-17.51
-15.09
-11.86
-8.06
-4.07
-0.28
2.99
5.58
7.51
8.92
9.97
10.71
11.07
10.92
10.19
8.99
7.59
6.41
5.83
5.98
6.72
7.68
8.47
8.81
8.65
8.18
7.60
7.02
6.42
5.66
4.61
3.33
2.03
1.01
0.48
0.39
0.49
0.42
-0.13
-1.21
-2.66
-4.20
-5.59
-6.82
-8.02
-9.44
-11.25
-13.48
-15.94
-18.32
-20.30
-21.61
-22.13
-21.78
-20.58
-18.54
-15.75
-12.36
-8.63
-4.91
-1.56
1.24
3.51
5.39
7.06
8.56
9.71
10.17
9.68
8.22
6.13
3.99
2.38
1.65
1.72
2.13
2.26
1.68
0.39
-1.13
-2.13
-1.97
-0.47
1.86
3.93
4.57
2.97
-0.83
-5.88
-10.64
-13.61
-13.92
-11.70
-7.82
