1721410146.00
64.000000
-0.00
-0.00
-0.00
-0.00
-0.00
-0.00
-0.00
-0.00
-0.00
-0.00
0.00
0.01
0.01
-0.00
-0.03
-0.05
-0.05
0.00
0.13
0.36
0.66
1.01
1.37
1.72
2.06
2.40
2.79
3.24
3.80
4.42
5.06
5.66
6.20
6.68
7.15
7.68
8.31
9.14
10.09
11.04
11.88
12.56
13.14
13.76
14.65
15.96
17.91
20.32
22.90
25.38
27.58
29.57
31.68
34.32
37.81
42.54
48.15
54.10
59.83
64.97
69.58
74.14
79.34
85.71
93.76
103.00
112.62
121.73
129.77
136.75
143.30
150.75
157.77
166.64
177.95
191.79
206.97
220.57
228.25
225.36
208.53
176.87
132.76
80.05
23.07
-34.94
-92.44
-149.16
-205.23
-260.37
-313.74
-363.87
-409.83
-450.91
-486.50
-515.74
-537.23
-549.22
-549.96
-538.37
-514.20
-478.67
-433.86
-382.42
-326.97
-269.77
-212.53
-156.53
-102.78
-52.15
-5.64
35.90
71.81
101.79
126.00
144.94
159.32
169.85
177.13
181.58
183.48
183.06
180.58
176.40
170.92
164.55
157.64
150.44
143.08
135.65
128.17
120.70
113.30
106.03
98.98
92.19
85.70
79.53
73.68
68.17
63.01
58.20
53.76
49.68
45.97
42.62
39.62
36.97
34.66
32.68
31.03
29.70
28.68
27.96
27.56
27.46
27.64
28.08
28.74
29.56
30.47
31.35
32.06
32.43
32.30
31.52
29.94
27.50
24.16
19.99
15.04
9.51
3.63
-2.36
-8.18
-13.56
-18.28
-22.15
-25.06
-26.94
-27.76
-27.61
-26.56
-24.73
-22.25
-19.26
-15.89
-12.22
-8.34
-4.30
-0.17
3.98
8.11
12.20
16.21
20.12
23.89
27.51
31.00
34.25
37.23
39.90
42.24
44.25
45.99
47.54
49.05
50.72
52.55
54.59
56.86
59.37
62.11
65.08
68.30
71.85
75.85
80.15
84.63
89.23
93.83
98.36
102.77
107.10
111.48
116.13
120.85
125.43
129.55
132.73
134.35
133.73
130.19
122.96
114.02
104.24
94.12
83.81
73.11
61.68
49.28
35.97
22.21
8.79
-3.90
-15.63
-26.62
-37.49
-49.08
-62.04
-76.52
-92.09
-107.89
-123.30
-137.97
-151.99
-165.93
-180.63
-197.08
-216.27
-238.92
-264.87
-292.76
-319.46
-340.53
-351.52
-349.51
-334.30
-308.49
-276.42
-242.47
-209.89
-180.11
-153.26
-129.10
-107.68
-89.42
-74.69
-63.32
-54.45
-46.88
-39.57
-32.10
-24.71
-18.20
-13.31
-10.31
-8.71
-7.43
-5.28
-1.42
4.28
11.25
18.55
25.32
30.99
35.38
38.58
40.84
42.44
43.64
44.57
45.16
45.18
44.31
42.47
39.94
37.50
36.03
36.13
37.84
40.52
43.19
44.90
45.12
43.81
41.38
38.42
35.55
33.29
31.96
31.65
32.12
32.83
33.11
32.40
30.48
27.64
24.55
21.99
20.56
20.32
20.87
21.56
21.81
21.41
20.61
19.92
19.86
20.71
22.37
24.41
26.26
27.35
27.31
26.04
23.81
21.21
19.15
18.71
20.75
25.60
32.64
40.37
46.97
51.52
55.16
61.44
75.30
100.60
137.86
182.73
226.62
259.23
271.65
258.60
218.91
154.75
70.72
-26.57
-128.18
-223.38
-301.01
-352.25
-372.99
-364.57
-331.92
-280.40
-213.36
-132.11
-38.33
63.09
162.86
249.29
312.47
348.15
358.95
352.45
337.01
318.12
297.04
271.54
238.16
194.09
138.36
72.16
-0.75
-73.82
-138.20
-184.18
-203.57
-191.94
-149.77
-82.74
-0.63
84.47
160.10
215.73
244.84
246.44
225.26
190.23
151.57
117.75
93.39
79.10
72.87
72.00
74.29
78.68
85.06
93.73
105.05
118.98
134.78
150.87
165.22
175.85
181.52
182.20
178.94
173.22
166.01
157.11
145.08
127.91
104.09
73.72
38.78
2.48
-31.93
-62.60
-89.83
-115.74
-143.52
-176.34
-216.53
-265.06
-320.48
-377.95
-428.88
-462.56
-469.83
-447.85
-403.25
-351.36
-310.98
-296.60
-311.92
-348.19
-388.34
-414.57
-415.43
-388.72
-339.56
-275.78
-204.05
-128.91
-54.64
12.62
64.41
92.01
90.12
59.23
5.49
-62.17
-135.43
-208.56
-277.89
-340.02
-390.51
-424.31
-437.80
-430.91
-407.77
-375.15
-339.81
-306.26
-276.00
-248.52
-222.87
-198.84
-176.87
-157.28
-139.30
-120.87
-99.29
-72.27
-38.89
0.03
42.24
85.12
126.66
166.17
204.42
243.08
283.96
328.53
377.80
432.31
491.77
554.19
615.14
667.91
704.93
720.28
711.86
682.19
637.29
584.14
528.35
473.08
419.57
368.44
320.71
277.52
238.99
203.23
166.64
125.66
79.14
29.67
-17.21
-55.13
-80.23
-93.13
-98.89
-105.06
-119.00
-145.69
-186.57
-239.18
-297.10
-350.41
-387.36
-397.65
-376.72
-329.02
-268.15
-212.74
-179.71
-177.50
-203.04
-243.43
-281.51
-302.28
-297.23
-265.37
-211.57
-144.20
-73.07
-8.06
42.37
73.07
83.70
79.38
69.03
62.28
65.87
81.39
105.32
131.18
152.44
164.78
166.84
159.76
146.05
128.77
110.90
95.03
82.90
74.90
69.74
64.62
56.02
40.84
17.42
-13.92
-50.88
-89.86
-126.60
-156.93
-177.45
-186.24
-183.57
-172.06
-156.14
-140.68
-129.27
-123.13
-121.12
-121.03
-121.27
-121.92
-124.52
-131.00
-142.44
-158.50
-177.80
-198.49
-218.78
-236.88
-250.76
-258.35
-257.81
-248.12
-229.39
-202.81
-170.65
-136.35
-104.62
-81.11
-70.93
-76.51
-95.73
-121.75
-145.03
-156.99
-153.36
-135.50
-109.01
-80.51
-54.37
-31.27
-8.90
16.09
46.24
82.13
122.30
163.35
200.36
227.45
239.20
232.57
208.62
172.87
133.78
99.77
76.28
64.52
62.27
66.21
74.04
85.05
99.07
114.63
127.92
133.55
126.70
105.76
73.70
37.72
6.72
-11.83
-14.68
-3.73
14.78
32.64
42.59
40.58
26.85
5.68
-16.24
-31.83
-35.62
-24.97
-0.37
35.09
76.87
120.14
160.81
196.34
226.12
251.24
273.81
295.63
316.99
336.13
349.54
353.34
345.11
325.27
297.24
266.46
238.31
216.20
200.51
188.66
176.24
158.63
132.49
96.76
53.05
5.40
-40.37
-77.63
-100.10
-103.24
-85.53
-49.24
-0.44
52.17
99.02
131.82
145.22
137.63
111.22
71.08
23.93
-23.31
-64.88
-97.42
-120.34
-135.54
-146.13
-154.63
-161.63
-165.37
-162.60
-150.28
-127.41
-96.09
-61.37
-30.12
-9.31
-4.43
-18.35
-50.68
-97.62
-152.43
-206.67
-251.82
-281.18
-291.51
-283.53
-261.61
-232.42
-203.27
-180.42
-167.88
-166.84
-175.82
-191.53
-209.88
-227.05
-240.22
-248.01
-250.55
-249.23
-246.08
-242.99
-240.70
-238.37
-233.72
-224.02
-207.56
-184.76
-158.48
-133.11
-112.96
-100.45
-95.10
-93.81
-92.09
-85.76
-72.38
-51.75
-25.74
2.81
31.16
57.70
82.21
105.89
130.81
159.08
191.82
228.30
265.39
297.70
318.67
322.08
303.82
263.11
203.11
130.63
55.13
-12.94
-64.42
-93.43
-98.90
-84.51
-57.23
-24.77
6.88
34.78
58.88
80.74
102.17
124.37
147.51
170.77
192.04
207.76
213.02
202.65
173.17
124.95
63.35
-1.75
-58.35
-95.84
-108.21
-95.89
-65.27
-26.30
10.92
39.21
55.76
61.72
60.35
54.94
47.46
38.58
28.49
17.69
7.18
-1.93
-9.20
-15.10
-20.54
-26.12
-31.64
-36.10
-38.26
-37.06
-31.89
-22.43
-8.54
9.59
31.05
53.81
74.63
89.26
93.35
83.50
58.58
20.86
-23.63
-65.91
-96.12
-106.45
-93.78
-60.93
-16.01
29.95
66.20
85.06
83.52
63.69
32.14
-1.70
-27.75
-37.88
-28.43
-1.52
35.17
70.67
94.25
99.11
84.81
57.52
27.87
7.36
4.56
22.59
58.29
103.62
148.26
182.63
200.29
199.31
182.28
155.15
125.22
98.92
80.10
69.19
63.83
60.27
55.21
46.98
35.66
22.31
8.07
-6.50
-21.17
-35.56
-48.73
-59.50
-67.10
-71.67
-73.95
-74.29
-71.83
-64.55
-50.52
-29.57
-4.43
19.70
36.97
43.44
38.82
26.68
12.87
3.23
1.40
7.95
20.75
36.41
51.80
65.04
75.74
84.37
91.29
96.04
97.21
93.15
83.02
67.60
49.37
31.80
18.08
10.05
7.56
8.72
10.54
9.95
4.66
-6.08
-21.10
-37.35
-50.56
-56.37
-51.78
-36.24
-11.89
17.13
46.11
71.17
89.99
101.63
105.96
103.20
93.96
79.66
62.73
46.16
32.35
22.09
14.20
6.43
-2.99
-13.94
-24.16
-30.40
-30.32
-24.06
-14.40
-5.56
-1.23
-2.97
-9.92
-19.88
-31.00
-43.02
-57.28
-75.49
-97.96
-122.51
-144.72
-159.51
-162.95
-153.73
-133.49
-106.03
-76.25
-49.30
-30.09
-22.97
-31.13
-55.50
-93.71
-139.82
-185.36
-221.69
-242.78
-247.26
-239.11
-226.35
-218.10
-221.27
-237.78
-263.78
-291.04
-310.27
-314.49
-301.52
-274.02
-237.76
-198.73
-160.78
-124.96
-90.23
-54.88
-17.63
21.91
63.40
105.75
146.95
183.79
212.20
228.51
230.97
220.94
202.79
182.34
164.52
151.42
141.63
131.38
116.85
96.53
72.56
50.17
35.70
34.02
46.57
70.86
101.54
132.34
157.68
173.53
177.81
169.94
151.06
124.37
95.11
69.67
53.78
50.24
57.50
69.96
79.73
79.34
64.18
33.72
-8.79
-57.76
-107.11
-151.90
-188.81
-216.60
-235.45
-246.41
-250.71
-249.57
-244.37
-237.05
-230.30
-226.29
-226.52
-231.00
-237.92
-244.42
-247.76
-246.62
-241.60
-234.81
-226.68
-216.41
-201.66
-179.48
-147.80
-106.62
-58.10
-5.73
46.85
99.90
154.98
214.08
278.04
345.51
412.89
475.57
529.74
573.51
611.54
650.87
699.33
763.17
845.19
944.33
1056.75
1177.53
1276.47
1327.45
1310.02
1216.40
1055.27
848.55
622.82
400.63
196.29
16.12
-135.12
-255.16
-343.30
-400.83
-431.57
-441.59
-437.81
-426.70
-413.89
-401.41
-391.10
-384.92
-384.66
-391.08
-403.16
-417.90
-431.37
-440.45
-442.25
-435.94
-422.14
-402.01
-376.90
-348.45
-318.74
-290.22
-265.31
-244.77
-228.11
-213.67
-199.40
-183.69
-166.13
-147.50
-129.32
-113.25
-100.09
-89.75
-81.36
-73.67
-65.57
-56.57
-46.89
-37.20
-28.39
-21.10
-15.51
-11.37
-8.09
-5.05
-1.85
1.64
5.23
8.62
11.55
13.91
15.79
17.33
18.73
20.04
21.21
22.06
22.38
22.03
20.90
19.03
16.45
13.29
9.62
5.54
1.18
-3.30
-7.64
-11.60
-14.94
-17.53
-19.29
-20.31
-20.70
-20.61
-20.15
-19.35
-18.21
-16.71
-14.85
-12.71
-10.48
-8.38
-6.52
-4.91
-3.36
-1.56
0.77
3.75
7.27
10.70
13.33
14.64
14.44
13.13
11.44
10.25
10.25
11.73
14.06
16.49
18.49
20.17
22.29
26.09
32.67
42.46
54.94
67.80
78.50
84.95
86.29
83.19
77.44
71.26
66.44
63.89
62.27
59.41
52.55
38.97
16.82
-13.70
-49.54
-85.38
-108.09
-108.76
-84.61
-41.13
9.17
51.27
73.32
70.82
47.39
12.44
-23.74
-51.97
-65.87
-62.25
-41.20
-6.30
35.57
75.44
104.85
117.55
112.00
91.09
60.40
26.14
-6.81
-35.75
-60.16
-80.92
-99.97
-118.64
-137.02
-153.96
-167.55
-175.94
-177.99
-173.28
-161.93
-144.57
-122.26
-96.80
-70.86
-47.51
-29.17
-16.58
-8.51
-2.49
3.75
11.16
18.96
25.21
28.04
26.68
21.71
14.67
7.15
0.12
-6.42
-13.06
-20.37
-28.32
-35.98
-41.74
-43.82
-41.02
-33.30
-21.92
-8.96
3.56
14.60
24.71
35.77
49.98
68.71
91.57
116.43
140.35
161.05
178.04
192.88
208.43
227.41
251.21
279.56
310.86
342.80
372.61
396.83
411.51
413.30
401.52
379.82
355.73
337.82
331.58
336.42
345.90
350.59
343.55
323.73
295.76
266.50
240.89
219.72
200.27
179.05
153.69
124.59
94.01
64.10
35.29
6.27
-24.86
-58.93
-94.60
-129.80
-161.26
-185.84
-201.93
-210.56
-215.04
-219.49
-227.00
-238.36
-255.53
-277.77
-301.88
-323.83
-341.04
-353.38
-362.42
-369.69
-375.63
-386.96
-407.49
-436.63
-470.55
-506.10
-543.09
-583.80
-631.27
-687.34
-763.11
-861.91
-974.91
-1083.51
-1168.28
-1216.93
-1226.99
-1204.07
-1157.67
-1112.88
-1086.27
-1079.71
-1083.09
-1084.73
-1079.03
-1066.86
-1051.91
-951.10
-732.00
-421.21
-89.06
200.36
418.35
565.40
655.15
697.43
713.69
703.97
668.84
616.18
560.20
513.87
483.68
468.92
465.36
469.18
464.94
443.04
403.36
353.57
302.50
255.40
213.99
178.56
150.37
123.19
94.22
66.05
45.18
37.64
45.84
68.59
102.64
144.56
186.91
224.35
254.94
279.66
300.27
317.75
332.03
342.70
349.85
352.47
350.87
347.04
344.10
345.09
351.90
364.85
382.99
404.60
427.58
450.19
471.41
491.02
509.54
528.11
548.12
570.70
595.79
621.48
643.80
657.40
656.96
638.81
602.03
548.56
482.46
408.58
331.59
255.40
183.16
117.35
59.73
11.07
-29.05
-62.11
-90.10
-114.72
-136.88
-156.71
-173.81
-187.99
-199.77
-210.66
-222.99
-239.63
-263.42
-296.44
-339.01
-388.67
-439.94
-485.10
-516.15
-527.23
-516.52
-486.65
-443.43
-393.64
-342.85
-294.39
-249.52
-208.41
-171.05
-137.40
-107.06
-78.64
-49.90
-18.57
16.40
53.91
90.73
122.39
144.85
155.77
155.17
145.03
128.37
108.23
87.12
66.86
48.74
33.71
22.40
14.98
11.23
10.57
12.29
15.64
19.89
24.32
28.25
31.16
32.75
33.15
32.75
32.09
31.64
31.60
31.86
32.16
32.23
31.93
31.29
30.44
29.50
28.53
27.51
26.41
25.25
24.03
22.75
21.30
19.54
17.30
14.58
11.51
8.35
5.36
2.64
0.19
-2.13
-4.44
-6.83
-9.30
-11.89
-14.65
-17.67
-21.06
-24.77
-28.72
-32.76
-36.80
-40.79
-44.66
-48.19
-51.00
-52.69
-52.97
-51.84
-49.61
-46.83
-44.05
-41.71
-40.03
-39.01
-38.60
-38.65
-39.04
-39.66
-40.33
-40.93
-41.31
-41.36
-41.01
-40.29
-39.31
-38.29
-37.49
-37.14
-37.33
-38.04
-39.07
-40.28
-41.71
-43.62
-46.43
-50.49
-55.79
-61.84
-67.76
-72.69
-76.18
-78.49
-80.53
-83.51
-88.45
-95.87
-105.70
-117.43
-130.11
-142.11
-150.81
-152.66
-143.92
-122.12
-87.35
-42.75
6.37
54.15
95.95
129.15
152.82
166.78
170.97
165.67
152.24
133.92
115.49
101.91
96.59
100.03
109.80
121.92
132.69
140.56
146.69
154.42
167.50
188.47
217.46
252.36
290.02
327.56
363.56
397.99
431.36
463.53
493.07
517.47
534.18
541.74
540.17
530.56
514.09
491.30
462.19
426.90
386.68
344.40
304.13
270.00
244.91
229.68
223.01
222.05
223.17
222.69
217.35
204.67
183.34
153.58
117.07
76.46
34.67
-6.19
-45.27
-83.04
-120.57
-158.61
-196.75
-233.30
-265.64
-291.31
-309.12
-319.70
-325.61
-330.79
-339.68
-355.76
-379.93
-409.19
-436.31
-450.97
-442.33
-402.78
-331.09
-233.95
-124.63
-19.18
68.41
130.11
165.29
179.33
180.34
175.86
170.74
166.97
164.68
163.46
162.97
162.83
162.03
158.65
150.51
136.19
116.01
92.02
67.21
44.34
24.80
8.19
-7.13
-23.13
-41.10
-61.18
-82.53
-103.91
-124.46
-144.11
-163.63
-184.05
-206.13
-230.00
-255.07
-280.41
-305.15
-328.91
-352.05
-375.81
-402.02
-432.46
-467.71
-506.03
-542.93
-571.83
-586.14
-581.68
-558.27
-519.67
-471.89
-420.81
-370.45
-322.79
-278.67
-238.94
-204.86
-177.57
-157.05
-141.73
-128.83
-115.63
-100.54
-83.50
-65.66
-48.57
-33.56
-21.47
-12.90
-8.38
-8.40
-13.14
-22.27
-34.59
-48.24
-60.98
-70.73
-76.09
-76.55
-72.43
-64.35
-52.96
-38.84
-22.90
-6.96
6.18
13.40
12.57
3.97
-9.40
-22.81
-31.84
-34.28
-31.01
-25.09
-19.99
-17.96
-19.36
-23.24
-28.42
-34.15
-40.06
-45.59
-49.59
-50.73
-48.38
-43.54
-38.84
-37.44
-41.37
-50.14
-60.60
-68.17
-69.06
-62.04
-49.04
-33.96
-20.54
-10.33
-1.82
8.80
25.61
50.76
83.16
118.54
150.82
174.05
184.09
179.57
161.87
134.75
103.44
73.77
51.08
39.12
39.20
49.79
67.08
86.21
102.92
114.68
121.07
123.05
121.87
118.15
111.61
101.62
87.97
71.49
54.00
37.82
25.00
16.62
12.63
11.95
12.99
14.18
14.34
12.98
10.33
7.33
5.40
6.04
10.45
19.06
31.34
45.85
60.70
74.05
84.57
91.57
95.01
95.34
93.55
91.03
89.55
90.72
95.31
102.61
110.29
115.08
114.00
105.71
91.33
74.08
58.02
46.28
39.87
37.43
36.08
32.81
25.57
13.76
-1.84
-19.52
-36.84
-50.77
-58.06
-55.85
-42.76
-19.90
8.95
37.95
60.83
72.54
70.60
55.44
29.99
-1.16
-32.90
-60.62
-81.06
-92.90
-96.88
-95.36
-91.33
-87.45
-85.17
-84.40
-83.95
-82.37
-78.85
-73.78
-68.69
-65.61
-66.29
-71.52
-80.91
-93.38
-107.75
-123.29
-139.84
-157.62
-176.81
-197.51
-219.67
-243.09
-267.21
-290.66
-311.15
-325.65
-331.54
-327.71
-315.21
-296.93
-276.63
-257.62
-241.82
-229.49
-219.54
-210.26
-199.85
-186.68
-169.32
-146.56
-117.63
-82.31
-40.99
5.78
56.98
111.26
166.86
221.68
273.34
319.20
356.76
384.20
401.70
410.57
412.94
411.34
408.30
406.07
406.09
408.98
414.83
425.22
441.42
464.23
494.07
530.85
573.54
619.12
661.86
694.10
710.34
705.76
677.53
626.18
556.84
479.02
403.79
340.01
291.41
259.41
240.13
226.51
211.59
191.06
163.94
131.44
95.69
37.62
-47.21
-149.39
-250.61
-334.38
-394.07
-432.26
-455.81
-471.14
-482.23
-487.39
-484.68
-473.72
-455.01
-429.74
-399.58
-366.99
-334.95
-306.27
-279.82
-253.17
-224.20
-190.35
-149.48
-100.15
-42.48
21.37
87.54
148.94
198.57
223.61
216.84
180.14
125.01
67.01
18.60
-15.28
-35.54
-45.87
-50.23
-50.03
-45.82
-38.71
-31.49
-27.23
-28.58
-35.40
-44.93
-53.91
-58.88
-58.34
-52.24
-42.87
-33.20
-25.35
-19.66
-15.03
-10.99
-6.76
-3.23
-2.74
-8.52
-23.47
-49.45
-86.63
-129.73
-171.86
-204.33
-219.03
-211.30
-182.35
-139.27
-92.61
-52.37
-24.32
-9.24
-3.63
-2.82
-3.57
-5.14
-8.16
-13.07
-19.10
-24.32
-27.30
-27.73
-26.77
-26.37
-28.42
-33.61
-41.21
-49.49
-56.44
-60.82
-62.37
-61.74
-60.05
-58.22
-56.76
-54.85
-51.35
-45.18
-36.00
-24.28
-11.21
1.73
13.23
22.43
29.11
33.41
35.81
36.70
36.25
34.52
31.47
27.14
21.66
15.21
7.83
-0.28
-9.07
-18.65
-29.01
-40.00
-51.30
-62.48
-73.18
-83.28
-92.47
-100.64
-107.64
-113.06
-116.21
-116.16
-111.94
-102.63
-90.31
-76.43
-62.42
-49.35
-37.68
-27.14
-17.01
-6.48
4.86
16.80
29.08
41.26
53.15
65.06
77.66
91.59
107.36
125.36
146.08
170.30
198.06
227.67
255.10
274.55
280.34
269.41
243.11
207.07
169.42
137.60
115.92
104.89
102.26
104.75
109.41
114.15
117.36
117.57
113.80
106.42
97.80
91.83
92.11
99.54
111.04
119.83
117.83
98.82
61.01
8.20
-51.16
-106.38
-147.87
-170.06
-172.88
-161.18
-142.44
-123.75
-109.38
-99.96
-93.50
-87.35
-79.90
-71.23
-62.17
-53.11
-43.51
-32.37
-19.23
-5.04
8.06
17.71
22.42
22.18
18.42
13.11
8.15
4.83
3.67
4.21
5.09
4.50
0.92
-6.22
-16.27
-27.50
-37.74
-44.66
-46.98
-44.73
-38.89
-30.46
-19.74
-6.19
10.99
31.77
55.55
80.26
103.02
121.34
134.29
142.83
149.19
155.67
163.48
173.61
186.00
199.95
214.40
228.17
239.59
246.66
247.63
234.05
202.01
153.30
95.84
40.44
-4.02
-34.27
-51.91
-60.60
-63.86
-62.92
-58.35
-50.77
-42.12
-34.94
-32.68
-38.12
-52.28
-74.38
-101.65
-131.27
-161.49
-192.08
-224.28
-257.82
-292.74
-328.11
-361.99
-391.45
-414.01
-428.38
-434.55
-423.74
-391.63
-338.98
-271.56
-198.00
-126.12
-61.18
-5.55
40.31
77.10
104.55
122.71
132.55
136.02
135.64
133.70
131.93
131.28
132.05
133.03
132.97
131.23
128.05
124.29
120.88
118.60
117.90
118.85
120.46
121.63
121.51
119.71
116.23
111.24
104.66
96.43
86.39
74.01
58.87
40.89
20.53
-0.28
-20.29
-38.22
-52.97
-63.94
-71.32
-75.89
-78.69
-80.65
-82.26
-83.61
-84.24
-83.58
-81.35
-77.94
-74.32
-71.68
-70.86
-72.04
-74.68
-77.54
-79.48
-79.78
-78.59
-76.69
-75.11
-74.81
-76.73
-81.79
-90.27
-101.08
-111.02
-115.28
-108.97
-89.57
-58.84
-22.88
10.04
32.96
42.76
41.41
33.69
24.62
17.20
11.91
7.31
1.97
-4.19
-9.76
-12.80
-12.00
-7.40
0.23
9.75
20.79
34.21
51.42
72.82
96.20
116.74
128.56
126.86
111.87
88.19
62.28
39.24
20.92
6.15
-6.35
-15.90
-19.69
-14.70
-0.65
18.64
36.56
46.82
46.89
38.88
27.89
18.98
14.76
14.43
15.05
13.58
8.43
-0.05
-10.91
-22.67
-34.63
-46.70
-59.07
-71.46
-82.82
-91.65
-96.02
-94.57
-87.03
-74.44
-58.74
-42.16
-26.38
-12.27
-0.06
10.49
19.33
25.88
29.15
28.09
22.21
12.05
-0.78
-13.94
-24.71
-31.16
-32.33
-28.32
-19.80
-7.47
8.45
28.14
50.28
74.29
98.85
121.87
140.88
153.90
160.04
159.96
155.48
148.82
142.30
137.52
135.60
136.85
140.12
142.28
138.47
123.68
95.21
54.94
9.07
-33.87
-66.49
-85.39
-91.92
-90.54
-86.06
-81.36
-76.84
-71.70
-65.50
-58.97
-53.66
-50.80
-50.42
-51.28
-51.62
-49.82
-45.51
-39.48
-33.29
-28.48
-25.85
-25.21
-25.55
-25.49
-24.01
-20.88
-16.60
-12.19
-8.57
-6.29
-5.22
-4.77
-4.17
-2.85
-0.66
2.13
5.02
7.52
9.37
10.64
11.61
12.64
14.02
15.85
18.04
20.39
22.67
24.71
26.37
27.57
28.19
28.10
27.15
25.24
22.33
18.43
13.68
8.34
2.71
-2.91
-8.22
-12.96
-16.96
-20.08
-22.31
-23.67
-24.24
-24.08
-23.27
-21.88
-19.99
-17.69
-15.06
-12.27
-9.46
-6.78
-4.34
-2.18
-0.35
1.22
2.60
3.92
5.17
6.37
7.58
8.81
10.21
11.86
13.92
16.50
19.74
23.46
27.55
31.97
36.71
41.87
47.58
53.97
61.09
69.00
77.15
85.11
92.60
99.48
105.80
111.76
117.62
123.56
129.73
135.38
139.91
142.79
143.78
142.87
140.18
135.44
127.44
118.58
108.81
97.66
84.70
70.03
54.44
39.16
25.49
14.16
5.12
-3.12
-12.28
-23.65
-37.63
-53.47
-69.78
-85.02
-98.13
-108.97
-118.69
-128.89
-141.50
-158.58
-181.73
-211.10
-244.32
-275.70
-297.34
-302.03
-286.19
-252.79
-211.44
-175.62
-157.51
-163.22
-190.47
-230.20
-270.76
-302.43
-320.22
-323.60
-314.30
-293.95
-263.96
-226.71
-186.71
-150.31
-123.23
-107.67
-100.87
-96.97
-90.92
-82.03
-75.02
-77.10
-93.29
-122.61
-157.81
-188.32
-204.73
-203.16
-185.85
-159.27
-130.40
-104.00
-81.93
-63.94
-49.05
-36.35
-25.59
-16.65
-8.86
-0.48
10.69
26.39
46.83
70.26
94.62
117.07
134.53
144.51
146.13
140.13
128.15
111.76
91.93
71.93
53.76
37.04
19.70
0.38
-20.17
-39.64
-55.36
-65.28
-62.43
-43.07
-9.88
29.24
66.47
97.69
122.54
142.95
161.41
189.88
236.04
297.86
365.17
427.71
480.63
524.50
562.67
598.78
648.83
723.51
821.41
930.19
1035.46
1126.56
1196.36
1239.89
1179.07
980.30
678.60
358.46
90.90
-98.69
-219.28
-292.66
-335.80
-365.87
-377.47
-364.63
-331.62
-293.09
-264.55
-255.47
-268.79
-303.03
-355.07
-409.81
-453.69
-479.95
-488.69
-481.99
-461.41
-429.70
-392.31
-357.03
-324.27
-293.65
-266.30
-244.93
-231.15
-224.26
-222.60
-225.25
-232.90
-243.35
-254.51
-264.57
-271.07
-269.72
-255.08
-222.95
-172.82
-108.84
-37.46
32.70
92.55
134.92
156.79
160.65
153.44
143.84
138.53
139.56
143.78
144.91
137.52
120.51
98.53
79.91
72.48
79.81
99.10
122.55
140.67
146.17
136.39
113.78
84.47
55.82
33.88
21.41
17.54
18.90
22.03
25.51
30.90
41.41
59.42
84.14
110.61
131.26
139.03
130.52
107.21
74.26
37.62
1.36
-33.30
-67.10
-100.93
-134.23
-165.08
-191.52
-212.96
-230.63
-246.49
-261.35
-273.42
-278.62
-272.28
-251.65
-217.78
-175.65
-132.30
-94.33
-65.59
-46.29
-33.74
-24.03
-13.71
-0.98
14.13
30.15
44.87
56.05
61.94
61.59
54.87
42.45
25.95
7.82
-8.96
-21.39
-27.17
-25.31
-16.31
-1.98
15.02
31.68
45.20
53.46
55.37
51.28
42.89
32.80
23.82
18.09
16.40
18.10
21.67
25.36
28.21
30.25
32.33
35.54
40.40
46.28
51.55
54.05
51.89
44.12
31.02
14.01
-4.59
-21.89
-34.91
-40.97
-38.29
-26.67
-7.80
14.76
36.24
51.86
58.16
54.03
40.94
22.51
3.23
-12.74
-22.66
-25.74
-22.93
-16.53
-9.20
-3.40
-0.70
-1.47
-4.86
-9.16
-12.39
-13.03
-10.56
-5.35
1.70
9.70
18.06
26.42
34.42
41.57
47.61
52.91
58.65
66.39
77.18
90.64
104.81
116.78
123.98
125.43
122.18
116.71
111.53
107.82
104.90
100.81
93.63
82.60
68.37
52.40
35.53
17.20
-4.35
-31.04
-63.44
-100.05
-137.95
-174.34
-207.81
-237.93
-263.67
-281.83
-286.86
-273.27
-239.10
-188.30
-130.52
-77.70
-39.31
-19.01
-14.14
-18.20
-24.39
-28.26
-28.27
-24.76
-18.59
-10.45
-1.02
8.65
17.10
23.19
26.57
28.23
30.20
34.72
43.02
54.20
64.92
70.00
64.44
45.79
16.17
-17.73
-46.68
-62.52
-61.47
-45.40
-20.58
5.17
25.71
38.28
43.33
43.01
39.66
34.89
29.68
24.79
21.01
19.12
19.48
21.83
25.13
27.99
29.09
27.67
23.99
19.20
15.16
13.51
15.11
19.46
25.05
29.84
32.11
31.14
27.42
22.44
18.01
15.63
15.93
18.50
21.94
24.43
24.45
21.42
15.94
9.48
3.65
-0.42
-2.54
-3.27
-3.51
-4.10
-5.54
-8.00
-11.35
-15.25
-19.03
-21.92
-23.13
-22.15
-18.96
-14.12
-8.60
-3.52
0.14
1.90
1.82
0.52
-1.03
-1.98
-1.94
-1.20
-0.31
0.26
0.49
0.81
1.69
3.35
5.46
7.34
8.34
8.26
7.34
6.21
5.32
4.85
4.65
4.32
3.61
2.44
0.93
-0.74
-2.37
-3.91
-5.42
-7.01
-8.86
-11.03
-13.53
-16.15
-18.50
-19.92
-19.59
-16.85
-11.41
-3.57
5.85
15.60
24.36
31.04
34.95
35.88
34.02
29.88
24.16
17.85
11.98
7.60
5.44
5.74
8.04
11.44
14.94
17.92
20.40
22.89
25.97
29.73
33.50
36.05
36.12
32.96
26.61
17.85
7.90
-1.99
-10.72
-17.45
-21.60
-22.90
-21.48
-18.03
-13.70
-9.91
-8.01
-8.88
-12.61
-18.44
-24.95
-30.45
-33.50
-33.35
-30.06
-24.55
-18.12
-12.04
-7.14
-3.60
-1.05
1.25
3.95
7.37
11.32
15.16
18.10
19.61
19.72
18.93
17.91
17.16
16.62
15.85
14.36
12.11
9.64
7.86
7.53
8.87
11.36
14.05
16.03
16.83
16.49
15.39
14.10
12.93
12.04
11.34
10.51
9.25
7.23
4.36
0.79
-3.03
-6.47
-8.72
-9.07
-7.04
-2.47
4.15
11.60
18.16
22.02
21.85
17.30
9.13
-1.11
-11.52
-20.46
-26.79
-29.99
-30.16
-27.93
-24.34
-20.66
-18.07
-17.23
-18.09
-20.01
-21.98
-23.15
-23.18
-22.21
-20.63
-18.80
-16.79
-14.52
-12.08
-9.89
-8.73
-9.37
-12.13
-16.66
-22.04
-27.08
-30.75
-32.48
-32.27
-30.55
-28.02
-25.52
-23.94
-24.02
-26.08
-29.74
-33.76
-36.15
-34.69
-27.62
-14.32
4.19
25.37
45.71
61.67
70.64
71.70
65.68
54.69
41.38
28.15
16.67
7.76
1.64
-1.86
-2.99
-2.06
0.40
3.61
6.71
8.96
10.09
10.33
10.27
10.43
10.93
11.49
11.52
10.57
8.53
5.66
2.48
-0.49
-2.80
-4.23
-4.70
-4.32
-3.46
-2.68
-2.54
-3.35
-4.99
-6.94
-8.50
-9.21
-9.01
-8.27
-7.61
-7.49
-7.99
-8.78
-9.20
-8.42
-5.83
-1.15
5.41
13.07
20.79
27.43
32.09
34.20
33.62
30.51
25.24
18.37
10.60
2.78
-4.18
-9.42
-12.47
-13.26
-12.23
-10.23
-8.28
-7.38
-8.12
-10.51
-13.87
-17.02
-18.66
-17.82
-14.24
-8.44
-1.47
5.55
11.72
16.53
19.87
21.86
22.73
22.68
21.95
20.69
18.98
16.83
14.17
11.10
7.85
4.87
2.58
1.20
0.65
0.57
0.61
0.57
0.56
0.83
1.60
2.79
4.07
4.99
5.24
4.78
3.81
2.54
1.10
-0.49
-2.18
-3.79
-5.04
-5.73
-5.92
-5.97
-6.38
-7.54
-9.45
-11.72
-13.73
-14.86
-14.75
-13.38
-11.08
-8.34
-5.69
-3.55
-2.05
-1.15
-0.55
0.09
1.06
2.53
4.42
6.47
8.27
9.45
9.82
9.51
8.85
8.32
8.17
8.33
8.45
8.10
7.04
5.33
3.26
1.18
-0.68
-2.14
-3.08
-3.33
-2.88
-1.82
-0.52
0.65
1.39
1.67
1.66
1.60
1.56
1.42
0.95
-0.07
-1.70
-3.78
-6.12
-8.50
-10.79
-12.86
-14.77
-16.60
-18.46
-20.44
-22.47
-24.44
-26.16
-27.49
-28.27
-28.41
-27.86
-26.63
-24.84
-22.72
-20.61
-18.82
-17.39
-16.04
-14.31
-11.69
-7.97
-3.32
1.84
7.00
11.74
15.76
18.92
21.18
22.59
23.33
23.59
23.55
23.18
22.25
20.52
17.87
14.54
11.16
8.44
6.90
6.62
7.18
7.91
8.22
7.77
6.61
5.07
3.54
2.35
1.61
1.26
1.02
0.64
-0.13
-1.36
-2.86
-4.29
-5.31
-5.72
-5.62
-5.33
-5.16
-5.30
-5.66
-6.15
-6.79
-7.80
-9.45
-11.83
-14.64
-17.23
-18.95
-19.39
-18.51
-16.71
-14.43
-11.96
-9.44
-6.86
-4.27
-1.82
0.26
1.87
2.98
3.76
4.38
5.04
5.79
6.61
7.43
8.12
8.60
8.91
9.26
9.89
10.95
12.35
13.71
14.57
14.64
14.03
13.21
12.79
13.18
14.37
16.00
17.53
18.47
18.60
17.93
16.69
15.11
13.43
11.69
9.93
8.06
6.04
3.89
1.83
0.16
-0.78
-0.76
0.16
1.60
2.91
3.45
2.82
1.12
-1.12
-3.16
-4.37
-4.62
-4.17
-3.63
-3.56
-4.25
-5.68
-7.72
-10.25
-13.17
-16.45
-19.76
-22.62
-24.39
-24.52
-22.80
-19.36
-14.70
-9.38
-3.97
1.13
5.67
9.57
12.78
15.20
16.64
16.86
15.83
13.78
11.28
9.06
7.70
7.43
8.12
9.42
11.01
12.79
14.69
16.69
18.70
20.52
22.09
23.30
24.12
24.50
24.33
23.61
22.64
22.00
22.38
24.27
27.47
30.99
33.20
32.29
26.86
16.50
1.90
-15.21
-32.51
-47.63
-58.71
-64.71
-65.51
-61.83
-55.02
-46.82
-38.93
-32.56
-28.33
-26.04
-25.11
-24.89
-24.88
-24.84
-24.57
-23.77
-22.09
-19.33
-15.67
-11.77
-8.44
-6.29
-5.41
-5.31
-5.28
-4.67
-3.27
-1.24
0.94
2.85
4.28
5.35
6.38
7.62
9.07
10.49
11.48
11.76
11.34
10.56
9.92
9.86
10.52
11.72
13.05
14.03
14.25
13.54
11.98
9.88
7.72
5.95
4.86
4.49
4.63
4.96
5.13
4.89
4.10
2.72
0.78
-1.68
-4.50
-7.48
-10.29
-12.59
-14.06
-14.57
-14.23
-13.33
-12.33
-11.59
-11.34
-11.47
-11.75
-11.91
-11.79
-11.34
-10.53
-9.32
-7.62
-5.47
-3.04
-0.66
1.33
2.69
3.36
3.47
3.23
2.93
2.81
2.97
3.44
4.07
4.71
5.25
5.76
6.44
7.49
8.99
10.79
12.62
14.19
15.43
16.38
17.13
17.64
17.63
16.89
15.32
13.16
10.82
8.73
7.03
5.65
4.35
2.99
1.72
0.89
0.81
1.56
2.79
3.83
3.90
2.52
-0.42
-4.53
-9.14
-13.54
-17.15
-19.66
-21.11
-21.70
-21.68
-21.27
-20.57
-19.65
-18.58
-17.43
-16.29
-15.19
-13.99
-12.55
-10.72
-8.46
-5.86
-3.08
-0.35
2.18
4.36
6.14
7.50
8.42
8.93
9.06
8.94
8.70
8.53
8.52
8.69
8.95
9.15
9.19
9.14
9.22
9.67
10.57
11.78
12.92
13.61
13.58
12.78
11.34
9.46
7.37
5.23
3.16
1.32
-0.12
-1.00
-1.25
-0.96
-0.47
-0.20
-0.56
-1.72
-3.58
-5.70
-7.56
-8.78
-9.30
-9.37
-9.37
-9.61
-10.22
-11.24
-12.66
-14.46
-16.64
-19.02
-21.21
-22.64
-22.79
-21.39
-18.56
-14.72
-10.45
-6.23
-2.37
1.01
3.91
6.28
8.10
9.34
10.04
10.42
10.75
11.31
12.21
13.22
13.94
13.88
12.74
10.55
7.72
4.89
2.76
1.84
2.35
4.22
7.06
10.32
13.36
15.62
16.66
16.31
14.75
12.36
9.66
7.05
4.79
3.04
1.89
1.44
1.67
2.41
3.20
3.46
2.65
0.62
-2.36
-5.66
-8.65
-10.98
-12.68
-14.12
-15.59
-17.21
-18.74
-19.88
-20.43
-20.41
-20.04
-19.50
-18.87
-18.03
-16.85
-15.32
-13.56
-11.78
-10.14
-8.66
-7.23
-5.65
-3.65
-0.98
2.55
6.90
11.65
16.00
18.99
19.93
18.72
16.05
13.13
11.09
10.60
11.45
12.97
14.43
15.38
15.80
15.88
15.80
15.52
14.92
13.94
12.85
12.06
12.02
12.83
14.20
15.50
16.01
15.29
13.32
10.53
7.59
5.04
3.12
1.64
0.27
-1.33
-3.19
-5.16
-6.96
-8.52
-10.02
-11.64
-13.46
-15.18
-16.30
-16.28
-14.92
-12.49
-9.67
-7.27
-5.96
-6.04
-7.38
-9.53
-11.84
-13.76
-14.94
-15.33
-15.02
-14.09
-12.58
-10.47
-7.72
-4.53
-1.27
1.51
3.34
4.03
3.79
3.19
2.88
3.44
4.98
7.23
9.64
11.64
12.91
13.49
13.68
13.92
14.51
15.49
16.70
17.90
18.92
19.73
20.36
20.84
21.18
21.32
21.20
20.75
19.91
18.62
16.88
14.76
12.40
10.05
7.95
6.27
5.00
4.03
3.22
2.62
2.32
2.47
3.03
3.61
3.61
2.54
0.24
-2.91
-6.20
-8.89
-10.59
-11.30
-11.41
-11.37
-11.46
-11.84
-12.55
-13.56
-14.85
-16.20
-17.25
-17.52
-16.55
-14.11
-10.29
-5.53
-0.52
3.98
7.28
8.96
8.92
7.57
5.76
4.57
4.98
7.48
11.79
16.91
21.22
22.99
20.89
14.38
4.11
-8.14
-19.81
-28.27
-31.64
-29.39
-22.52
-13.08
-3.51
4.25
9.22
11.46
11.66
10.78
9.64
8.78
8.45
8.71
9.48
10.62
11.95
13.23
14.25
14.84
14.87
14.30
13.13
11.43
9.25
6.66
3.74
0.53
-2.92
-6.52
-10.22
-13.87
-17.33
-20.42
-23.01
-25.03
-26.50
-27.46
-27.85
-27.48
-26.07
-23.41
-19.63
-15.19
-10.78
-7.11
-4.46
-2.70
-1.37
0.04
1.76
3.71
5.55
6.92
7.63
7.74
7.51
7.26
7.19
7.35
7.64
7.90
7.99
7.82
7.42
6.88
6.27
5.66
5.07
4.55
4.19
4.08
4.29
4.79
5.45
6.16
6.89
7.75
8.87
10.31
11.91
13.37
14.36
14.68
14.40
13.70
12.79
11.66
10.07
7.73
4.51
0.66
-3.20
-6.33
-8.28
-9.06
-9.11
-9.16
-9.74
-11.06
-12.94
-14.95
-16.64
-17.68
-17.87
-17.13
-15.49
-13.06
-10.15
-7.14
-4.48
-2.42
-1.06
-0.26
0.16
0.36
0.49
0.61
0.85
1.27
1.88
2.59
3.28
3.86
4.41
5.11
6.15
7.57
9.22
10.85
12.20
13.19
13.90
14.45
14.95
15.33
15.48
15.23
14.46
13.15
11.43
9.52
7.76
6.52
6.02
6.20
6.72
7.11
7.06
6.51
5.66
4.82
4.13
3.49
2.59
1.19
-0.74
-2.89
-4.87
-6.41
-7.56
-8.63
-9.99
-11.89
-14.23
-16.63
-18.56
-19.68
-19.99
-19.79
-19.55
-19.55
-19.69
-19.56
-18.71
-16.91
-14.40
-11.74
-9.49
-7.97
-7.09
-6.47
-5.74
-4.68
-3.33
-1.80
-0.19
1.53
3.34
5.22
7.09
8.78
10.19
11.19
11.71
11.69
11.27
10.62
10.04
9.74
9.79
10.07
10.28
10.12
9.36
7.97
6.09
4.04
2.21
0.90
0.18
-0.11
-0.35
-0.80
-1.45
-1.88
-1.46
0.27
3.32
7.13
10.81
13.47
14.55
13.93
11.89
8.87
5.26
1.33
-2.78
-6.95
-11.06
-15.01
-18.70
-22.14
-25.36
-28.28
-30.69
-32.16
-32.19
-30.44
-26.90
-22.05
-16.75
-12.01
-8.58
-6.84
-6.67
-7.71
-9.37
-11.10
-12.35
-12.79
-12.31
-11.05
-9.43
-7.93
-6.90
-6.32
-5.78
-4.64
-2.30
1.45
6.44
12.09
17.76
22.89
27.14
30.33
32.41
33.30
32.91
31.18
28.12
23.97
19.16
14.26
9.84
6.29
3.75
2.06
0.89
-0.10
-1.05
-1.95
-2.73
-3.39
-4.11
-5.08
-6.37
-7.75
-8.78
-9.08
-8.58
-7.74
-7.24
-7.74
-9.50
-12.24
-15.28
-17.92
-19.64
-20.29
-19.95
-18.78
-17.00
-14.76
-12.27
-9.73
-7.30
-5.08
-3.10
-1.38
0.07
1.25
2.29
3.38
4.72
6.38
8.25
10.10
11.66
12.85
13.70
14.27
14.53
14.37
13.68
12.53
11.22
10.12
9.52
9.41
9.56
9.62
9.34
8.67
7.68
6.56
5.46
4.53
3.91
3.81
4.40
5.68
7.42
9.19
10.50
10.99
10.64
9.66
8.31
6.74
4.89
2.58
-0.21
-3.27
-6.18
-8.50
-10.01
-10.86
-11.35
-11.78
-12.18
-12.37
-11.99
-10.86
-8.99
-6.66
-4.22
-2.00
-0.15
1.19
1.77
1.26
-0.67
-4.07
-8.60
-13.54
-18.03
-21.33
-23.04
-22.99
-21.21
-17.82
-13.00
-7.17
-1.01
4.67
9.21
12.41
14.65
16.66
19.16
22.48
26.41
30.23
33.11
34.34
33.64
31.12
27.33
23.06
19.18
16.40
14.91
14.23
13.19
10.31
4.52
-4.37
-15.48
-27.13
-37.52
-45.39
-50.28
-52.49
-52.62
-51.23
-48.68
-45.31
-41.49
-37.70
-34.28
-31.23
-28.18
-24.51
-19.75
-13.80
-7.11
-0.50
5.21
9.40
11.98
13.30
13.96
14.53
15.35
16.49
17.87
19.40
20.98
22.36
22.94
21.91
18.56
12.72
5.15
-2.70
-9.27
-13.49
-15.19
-15.04
-14.07
-13.11
-12.55
-12.31
-12.08
-11.59
-10.70
-9.33
-7.43
-5.03
-2.33
0.19
1.80
1.79
-0.29
-4.39
-9.84
-15.48
-20.11
-22.87
-23.58
-22.84
-21.77
-21.53
-22.78
-25.46
-28.82
-31.80
-33.45
-33.29
-31.46
-28.60
-25.74
-23.98
-24.07
-25.91
-28.14
-28.28
-23.41
-11.37
8.22
33.41
60.42
84.83
102.95
112.80
114.28
108.74
98.24
84.94
70.81
57.42
45.83
36.49
29.19
23.23
17.78
12.13
5.90
-0.89
-7.92
-14.70
-20.73
-25.58
-29.01
-31.17
-32.58
-34.03
-36.21
-39.19
-42.05
-42.93
-39.65
-30.75
-16.26
1.95
20.75
36.85
47.91
53.27
53.70
50.83
46.26
41.05
35.66
30.20
24.82
19.85
15.72
12.64
10.48
8.73
6.74
4.05
0.66
-3.02
-6.33
-8.75
-10.19
-10.96
-11.61
-12.55
-13.82
-15.03
-15.59
-15.05
-13.32
-10.71
-7.86
-5.53
-4.39
-4.80
-6.60
-9.21
-11.76
-13.41
-13.71
-12.68
-10.75
-8.56
-6.59
-5.02
-3.71
-2.46
-1.09
0.34
1.64
2.60
3.04
2.93
2.28
1.09
-0.62
-2.79
-5.28
-7.77
-9.71
-10.71
-10.58
-9.63
-8.57
-8.28
-9.46
-12.26
-16.28
-20.68
-24.53
-27.09
-28.01
-27.28
-25.15
-22.04
-18.45
-14.91
-11.79
-9.33
-7.42
-5.83
-4.26
-2.45
-0.37
1.95
4.38
6.77
8.95
10.75
12.01
12.62
12.68
12.51
12.50
12.99
14.04
15.42
16.73
17.63
17.98
17.89
17.61
17.37
17.23
17.08
16.66
15.74
14.23
12.25
10.13
8.26
6.95
6.21
5.82
5.35
4.45
2.94
0.95
-1.25
-3.41
-5.42
-7.33
-9.21
-11.02
-12.58
-13.77
-14.60
-15.35
-16.42
-18.08
-20.25
-22.46
-24.00
-24.32
-23.16
-20.74
-17.59
-14.33
-11.44
-9.16
-7.58
-6.65
-6.28
-6.29
-6.46
-6.47
-6.05
-5.05
-3.49
-1.59
0.41
2.32
4.13
5.93
7.87
10.02
12.28
14.39
16.01
16.76
16.39
14.97
12.83
10.52
8.63
7.55
7.36
7.87
8.67
9.28
9.34
8.60
7.02
4.76
2.11
-0.62
-3.19
-5.55
-7.80
-9.98
-11.99
-13.57
-14.46
-14.59
-14.24
-13.93
-14.18
-15.17
-16.59
-17.79
-18.09
-17.10
-14.90
-11.95
-8.83
-6.04
-3.90
-2.42
-1.43
-0.65
0.19
1.25
2.55
4.02
5.55
7.02
8.37
9.45
10.19
10.61
10.80
11.08
11.74
12.97
14.71
16.67
18.45
19.79
20.71
21.35
21.88
22.27
22.32
21.83
20.83
19.61
18.63
18.25
18.46
18.86
18.92
18.11
16.17
13.14
9.26
4.82
0.23
-4.15
-7.96
-10.87
-12.74
-13.59
-13.67
-13.36
-13.09
-13.24
-14.07
-15.71
-17.98
-20.45
-22.48
-23.47
-23.05
-21.25
-18.43
-15.19
-12.07
-9.44
-7.40
-5.83
-4.56
-3.36
-2.10
-0.73
0.70
2.20
3.69
5.09
6.34
7.34
8.01
8.32
8.33
8.17
8.06
8.20
8.71
9.58
10.61
11.58
12.26
12.55
12.54
12.44
12.38
12.38
12.24
11.65
10.47
8.80
6.97
5.42
4.40
3.93
3.77
3.67
3.34
2.67
1.62
0.18
-1.59
-3.64
-5.87
-8.10
-10.16
-11.88
-13.12
-13.85
-14.16
-14.23
-14.43
-15.07
-16.29
-17.87
-19.35
-20.08
-19.70
-18.21
-16.04
-13.78
-11.87
-10.42
-9.19
-7.81
-6.08
-4.06
-1.98
-0.07
1.52
2.89
4.11
5.25
6.27
7.14
7.87
8.51
9.10
9.56
9.73
9.50
8.95
8.32
7.92
7.83
7.79
7.36
6.11
4.04
1.61
-0.42
-1.32
-0.76
1.07
3.59
6.14
8.20
9.45
9.72
8.83
6.57
2.83
-2.21
-7.95
-13.49
-17.96
-20.82
-22.15
-22.48
-22.50
-22.70
-23.10
-23.40
-23.20
-22.24
-20.48
-18.02
-14.98
-11.56
-8.00
-4.65
-1.90
-0.04
0.85
0.88
0.33
-0.48
-1.33
-1.96
-2.19
-1.81
-0.66
1.32
4.07
7.36
10.82
14.04
16.61
18.24
18.81
18.42
17.37
16.03
14.69
13.46
12.30
11.15
10.03
9.07
8.38
8.04
7.89
7.72
7.34
6.72
5.99
5.35
4.89
4.53
4.06
3.38
2.52
1.68
1.05
0.57
0.01
-0.91
-2.34
-4.08
-5.79
-7.15
-8.08
-8.76
-9.47
-10.37
-11.36
-12.12
-12.37
-11.99
-11.12
-10.06
-9.05
-8.21
-7.42
-6.46
-5.09
-3.12
-0.48
2.69
6.19
9.63
12.65
14.90
16.23
16.64
16.37
15.74
15.00
14.32
13.73
13.19
12.74
12.47
12.45
12.75
13.17
13.47
13.34
12.60
11.33
9.84
8.53
7.71
7.46
7.59
7.76
7.61
6.87
5.46
3.37
0.69
-2.43
-5.81
-9.24
-12.43
-15.13
-17.09
-18.13
-18.18
-17.31
-15.77
-14.01
-12.43
-11.34
-10.70
-10.24
-9.53
-8.36
-6.80
-5.26
-4.35
-4.58
-6.16
-9.05
-12.84
-16.90
-20.53
-22.98
-23.77
-22.73
-20.07
-16.28
-12.02
-7.80
-4.00
-0.84
1.56
3.08
3.66
3.40
2.57
1.60
0.88
0.66
0.95
1.56
2.12
2.29
1.87
0.94
-0.12
-0.78
-0.58
0.62
2.56
4.67
6.33
7.16
7.13
6.53
5.74
4.93
4.07
2.97
1.55
-0.14
-1.87
-3.45
-4.92
-6.58
-8.85
-12.00
-15.88
-19.91
-23.21
-24.99
-24.89
-23.06
-20.15
-16.94
-14.03
-11.66
-9.67
-7.72
-5.45
-2.74
0.18
2.93
5.13
6.57
7.39
7.95
8.62
9.64
10.92
12.19
13.17
13.80
14.28
14.89
15.76
16.70
17.22
16.85
15.45
13.26
10.93
8.98
7.66
6.81
6.04
5.09
3.95
2.88
2.14
1.85
1.83
1.79
1.45
0.71
-0.31
-1.45
-2.59
-3.75
-5.02
-6.52
-8.17
-9.76
-11.02
-11.65
-11.52
-10.62
-9.05
-6.97
-4.50
-1.77
1.06
3.75
6.07
7.80
8.91
9.55
9.98
10.48
11.23
12.23
13.39
14.53
15.51
16.24
16.67
16.75
16.33
15.32
13.58
11.22
8.57
6.16
4.52
3.89
4.11
4.66
4.97
4.66
3.74
2.54
1.44
0.65
0.12
-0.34
-0.89
-1.58
-2.39
-3.28
-4.24
-5.29
-6.45
-7.71
-9.05
-10.48
-12.00
-13.54
-15.03
-16.29
-17.25
-17.91
-18.40
-18.80
-19.05
-18.94
-18.17
-16.61
-14.35
-11.76
-9.25
-7.13
-5.54
-4.35
-3.34
-2.21
-0.80
0.90
2.73
4.50
6.04
7.24
8.09
8.62
8.92
9.02
9.05
9.10
9.29
9.75
10.50
11.50
12.57
13.49
14.02
14.04
13.50
12.50
11.25
10.02
9.01
8.29
7.77
7.24
6.52
5.47
4.01
2.20
0.09
-2.15
-4.37
-6.39
-8.08
-9.44
-10.59
-11.72
-13.04
-14.61
-16.34
-18.00
-19.38
-20.35
-20.88
-21.05
-20.90
-20.46
-19.70
-18.59
-17.11
-15.35
-13.42
-11.42
-9.45
-7.54
-5.72
-3.98
-2.27
-0.53
1.33
3.35
5.57
7.95
10.39
12.79
15.00
16.92
18.48
19.64
20.42
20.86
21.01
20.93
20.64
20.10
19.23
17.94
16.16
13.98
11.58
9.24
7.17
5.48
4.08
2.74
1.27
-0.42
-2.17
-3.67
-4.60
-4.77
-4.28
-3.49
-2.87
-2.80
-3.46
-4.78
-6.60
-8.76
-11.23
-14.06
-17.20
-20.48
-23.50
-25.83
-27.09
-27.13
-25.97
-23.68
-20.39
-16.26
-11.55
-6.69
-2.22
1.43
4.04
5.67
6.55
6.92
6.95
6.73
6.38
6.06
5.95
6.10
6.47
6.98
7.69
8.83
10.74
13.52
16.87
20.12
22.48
23.42
22.86
21.20
19.05
16.93
15.15
13.85
13.06
12.86
13.35
14.47
16.01
17.59
18.79
19.32
19.05
18.00
16.29
14.04
11.33
8.17
4.60
0.73
-3.25
-7.05
-10.38
-13.00
-14.81
-15.84
-16.27
-16.28
-16.04
-15.63
-15.10
-14.50
-13.86
-13.19
-12.43
-11.48
-10.26
-8.75
-7.07
-5.43
-4.07
-3.17
-2.78
-2.79
-2.93
-2.83
-2.19
-0.85
1.11
3.38
5.60
7.46
8.86
9.95
10.87
11.72
12.44
12.88
13.00
12.92
12.90
13.14
13.62
14.07
14.02
13.14
11.46
9.38
7.51
6.37
6.11
6.48
6.92
6.90
6.13
4.63
2.70
0.64
-1.33
-3.17
-4.95
-6.74
-8.51
-10.13
-11.51
-12.64
-13.62
-14.60
-15.60
-16.61
-17.57
-18.51
-19.52
-20.75
-22.21
-23.61
-24.47
-24.34
-23.03
-20.76
-18.03
-15.44
-13.31
-11.69
-10.37
-9.13
-7.89
-6.70
-5.64
-4.69
-3.73
-2.61
-1.27
0.26
1.81
3.25
4.56
5.78
6.99
8.15
9.14
9.86
10.31
10.54
10.62
10.52
10.07
9.06
7.42
5.26
2.90
0.70
-1.06
-2.35
-3.38
-4.37
-5.56
-6.99
-8.57
-10.10
-11.42
-12.50
-13.43
-14.42
-15.62
-16.94
-18.11
-18.68
-18.25
-16.70
-14.23
-11.32
-8.61
-6.63
-5.67
-5.74
-6.54
-7.61
-8.46
-8.66
-7.95
-6.34
-4.12
-1.76
0.20
1.44
1.87
1.71
1.42
1.36
1.69
2.21
2.56
2.42
1.87
1.32
1.38
2.58
5.05
8.52
12.40
15.92
18.42
19.48
19.09
17.72
16.21
15.61
16.75
19.91
24.66
29.95
34.45
37.13
37.57
36.08
33.43
30.56
28.09
26.11
24.18
21.59
17.87
13.03
7.71
2.87
-0.69
-2.66
-3.41
-3.75
-4.48
-6.04
-8.41
-11.10
-13.54
-15.36
-16.52
-17.40
-18.51
-20.42
-23.51
-27.96
-33.68
-40.48
-48.17
-56.62
-65.82
-75.75
-86.29
-97.09
-107.69
-117.36
-125.40
-131.21
-134.54
-135.55
-134.88
-133.44
-132.06
-131.04
-129.83
-127.05
-120.87
-109.62
-92.33
-68.98
-40.55
-8.92
23.28
52.87
76.64
92.19
98.87
98.07
92.77
86.37
81.32
78.53
77.48
76.95
76.00
74.19
71.45
67.76
63.18
58.21
54.17
53.05
56.71
65.71
78.67
92.42
103.06
107.33
103.57
92.05
74.60
53.96
33.08
14.55
0.25
-9.06
-13.89
-16.03
-18.01
-22.33
-30.44
-42.09
-55.37
-67.45
-75.68
-78.64
-76.58
-71.14
-64.56
-58.73
-54.61
-52.18
-50.59
-48.48
-44.06
-35.34
-20.41
1.83
30.93
64.39
97.80
125.95
144.40
150.80
145.35
130.42
109.39
85.63
61.89
40.26
22.43
9.97
4.04
5.10
12.53
24.80
40.06
57.04
75.66
97.21
123.59
156.45
196.17
241.30
288.93
335.50
378.10
415.55
448.72
479.25
509.19
539.87
571.04
600.74
626.03
644.19
653.42
652.72
640.64
615.62
576.39
522.68
455.66
378.22
294.62
209.67
127.62
50.17
-21.70
-86.86
-143.82
-191.48
-229.63
-258.89
-280.37
-295.40
-308.69
-323.13
-338.09
-350.56
-358.01
-360.01
-357.75
-353.00
-347.19
-348.27
-360.38
-380.89
-402.91
-421.20
-434.99
-446.72
-459.49
-475.34
-506.05
-557.08
-622.69
-690.04
-748.65
-794.95
-830.65
-859.83
-887.11
-931.38
-1003.68
-1098.53
-1197.28
-1280.19
-1334.35
-1354.84
-1343.85
-1214.06
-940.88
-577.23
-217.07
73.33
278.03
410.73
492.07
539.19
561.85
556.39
521.62
467.60
412.04
369.09
344.11
336.19
342.80
361.44
379.07
387.78
390.30
396.30
413.24
442.34
480.75
524.78
571.69
612.59
640.98
655.52
657.79
647.71
622.78
580.95
523.04
453.15
373.92
289.10
204.23
125.13
55.36
-4.74
-57.27
-105.06
-149.85
-191.79
-227.70
-251.81
-258.98
-248.35
-224.40
-195.01
-167.87
-147.39
-133.90
-125.35
-119.55
-115.48
-112.80
-110.28
-105.14
-93.75
-73.64
-45.30
-12.42
19.64
45.99
64.08
74.25
79.18
82.80
89.29
102.15
123.43
152.96
187.83
222.71
251.16
267.52
268.80
255.55
231.35
201.28
170.23
141.72
117.73
99.18
86.65
80.49
80.30
84.39
89.87
93.51
93.09
88.43
81.29
74.35
69.83
68.24
68.53
69.01
68.65
67.89
68.36
71.77
78.34
85.95
90.35
86.67
71.27
43.20
4.22
-42.04
-91.55
-140.72
-186.42
-225.64
-255.60
-274.42
-281.96
-280.17
-272.34
-261.51
-249.11
-234.59
-216.26
-192.84
-164.79
-134.55
-105.66
-81.28
-63.05
-50.45
-41.12
-31.74
-19.15
-1.44
21.24
46.63
71.00
90.28
101.22
102.22
93.43
76.63
55.24
33.90
17.60
10.21
12.39
20.33
26.33
21.59
0.38
-36.22
-79.63
-116.74
-135.38
-129.59
-101.98
-61.90
-20.73
13.01
36.19
50.42
58.96
63.83
64.55
59.41
47.88
32.37
18.12
10.84
13.92
26.80
45.57
64.97
80.90
91.62
97.21
98.16
93.90
82.64
62.43
32.53
-6.01
-50.53
-97.54
-143.02
-182.37
-210.36
-222.02
-214.42
-188.18
-147.82
-100.31
-52.57
-9.42
27.03
56.54
79.16
94.28
100.85
98.48
88.27
72.91
55.85
40.08
27.30
17.77
10.66
4.77
-0.81
-6.17
-10.68
-13.34
-13.64
-12.14
-10.50
-10.81
-14.57
-21.95
-31.61
-41.45
-49.37
-54.11
-55.36
-53.58
-49.74
-44.92
-40.29
-36.79
-34.72
-33.35
-31.04
-25.86
-16.51
-3.13
12.85
29.35
44.55
57.48
67.95
76.11
82.12
86.08
88.16
88.87
89.17
90.24
93.30
99.16
108.03
119.26
131.35
141.84
147.53
145.06
131.87
107.38
73.46
34.33
-4.76
-39.03
-65.70
-84.20
-95.57
-101.35
-102.57
-99.84
-93.91
-86.33
-79.46
-75.70
-76.44
-81.46
-89.18
-97.62
-105.38
-112.09
-118.15
-124.22
-130.73
-137.82
-145.57
-154.11
-163.60
-173.83
-183.94
-192.12
-195.86
-192.66
-181.21
-162.37
-139.09
-115.39
-94.60
-78.26
-66.22
-58.00
-53.97
-55.61
-64.02
-78.10
-93.74
-105.26
-108.36
-102.70
-92.52
-84.34
-83.32
-90.43
-102.28
-113.58
-120.37
-121.92
-120.10
-117.39
-114.83
-111.51
-105.67
-96.25
-83.60
-68.76
-52.24
-33.20
-9.89
19.13
53.75
92.05
131.21
168.88
204.27
238.01
271.24
304.66
338.06
370.52
400.76
427.39
448.73
462.81
467.71
462.40
447.36
424.86
398.22
370.69
344.44
320.28
298.15
277.90
259.72
244.22
231.76
222.05
213.93
205.90
196.82
186.45
175.50
165.25
156.92
151.22
148.05
146.82
146.80
147.53
148.93
151.05
153.87
157.13
160.47
163.67
166.85
170.25
173.88
177.07
178.47
176.40
169.46
156.90
138.58
114.77
85.76
51.91
13.80
-27.46
-70.23
-112.58
-152.53
-188.48
-219.40
-245.07
-266.03
-283.31
-298.04
-310.79
-321.35
-328.87
-332.44
-331.63
-326.95
-319.69
-311.51
-303.81
-297.36
-292.20
-287.81
-283.37
-278.10
-271.53
-263.72
-255.05
-245.66
-234.86
-221.08
-202.53
-178.26
-149.00
-116.76
-83.97
-52.27
-22.19
6.26
32.76
56.26
75.40
89.36
98.50
103.99
106.94
107.63
105.49
100.04
91.72
82.17
73.66
68.24
66.98
70.20
77.82
89.44
104.03
119.58
133.55
143.94
150.46
154.83
160.12
168.94
181.77
196.30
208.08
212.87
208.53
195.83
177.14
155.05
130.83
104.04
73.11
36.31
-5.97
-50.91
-93.76
-131.04
-161.55
-186.86
-210.28
-235.18
-264.49
-298.14
-333.28
-365.05
-390.76
-409.21
-419.92
-422.19
-415.54
-402.56
-386.71
-371.77
-359.51
-352.16
-349.13
-346.47
-338.27
-320.12
-293.54
-261.99
-228.56
-192.72
-155.59
-117.79
-80.08
-43.95
3.38
62.15
122.72
160.99
177.52
178.99
175.71
174.25
178.78
190.16
203.61
213.20
213.70
203.72
181.32
147.76
109.74
78.62
63.19
62.77
70.76
77.85
82.48
83.35
79.64
70.70
56.32
35.65
10.06
-15.11
-32.22
-35.25
-27.30
-17.67
-15.29
-22.09
-36.58
-55.67
-74.99
-90.10
-97.51
-95.91
-84.84
-64.06
-34.45
0.16
33.43
58.49
70.53
69.80
61.95
56.69
63.63
87.05
122.72
160.57
190.17
206.47
212.07
214.92
222.79
238.36
257.49
271.94
275.24
266.55
250.37
232.82
217.19
201.88
182.54
155.77
122.13
86.23
53.69
27.70
7.51
-10.01
-27.40
-44.32
-57.96
-65.48
-66.31
-62.84
-59.11
-58.71
-63.55
-73.99
-89.59
-109.81
-133.76
-159.15
-182.15
-197.90
-202.03
-191.91
-167.46
-131.04
-87.00
-40.86
1.35
33.69
51.26
51.33
34.44
4.92
-29.83
-61.10
-81.41
-86.56
-76.80
-56.10
-30.24
-4.92
15.44
27.97
31.30
25.25
11.09
-8.49
-29.54
-47.88
-60.36
-65.24
-61.99
-50.84
-32.91
-10.78
10.89
26.18
30.06
20.84
1.72
-20.09
-36.24
-40.79
-32.22
-13.25
11.19
36.31
58.89
77.47
91.47
100.53
104.37
103.25
98.71
93.50
90.86
93.06
100.19
109.85
118.10
121.18
117.17
106.75
92.68
78.46
66.89
59.34
55.71
54.75
54.42
52.08
44.70
29.48
4.95
-28.10
-66.33
-104.68
-137.95
-162.37
-176.33
-180.11
-175.20
-163.62
-147.58
-129.52
-112.06
-97.64
-87.88
-83.12
-82.37
-83.82
-85.56
-86.12
-84.65
-80.91
-75.18
-68.24
-61.14
-54.94
-50.26
-46.98
-44.46
-41.92
-38.86
-35.17
-30.85
-25.68
-19.03
-10.22
1.05
14.10
27.14
37.63
43.22
42.88
37.49
29.83
23.25
20.12
20.51
21.97
20.86
14.19
1.24
-16.11
-34.25
-49.56
-59.65
-63.75
-62.18
-55.55
-44.38
-29.28
-11.52
6.83
23.29
35.67
42.74
44.44
41.77
36.34
29.97
24.24
20.23
18.35
18.35
19.60
21.34
22.94
24.07
24.64
24.71
24.53
24.40
24.63
25.30
26.18
26.71
26.19
24.06
20.25
15.35
10.42
6.58
4.55
4.39
5.53
7.06
8.08
8.05
6.80
4.48
1.42
-2.08
-5.79
-9.60
-13.41
-17.06
-20.18
-22.27
-22.84
-21.55
-18.40
-13.84
-8.64
-3.70
0.30
3.01
4.47
4.99
5.03
5.12
5.81
7.54
10.58
14.74
19.45
23.76
26.71
27.54
26.14
23.13
19.69
17.20
16.69
18.50
22.05
26.12
29.21
30.17
28.61
25.08
20.80
17.09
14.75
13.77
13.49
13.01
11.80
9.93
7.92
6.35
5.45
4.96
4.44
3.54
2.29
0.98
-0.11
-0.90
-1.46
-1.93
-2.32
-2.57
-2.65
-2.72
-3.06
-3.82
-4.85
-5.65
-5.57
-4.15
-1.30
2.67
7.12
11.29
14.24
15.01
12.74
7.19
-0.94
-9.90
-17.36
-21.34
-20.88
-16.50
-9.70
-2.26
4.60
10.42
15.35
19.69
23.38
26.03
27.18
26.70
24.99
22.89
21.38
21.05
21.67
22.03
20.40
15.25
6.30
-5.00
-15.83
-23.01
-24.43
-20.07
-11.93
-3.04
3.98
7.99
9.53
9.95
10.37
10.89
10.68
8.76
4.90
0.01
-4.18
-5.86
-4.12
0.64
6.75
11.99
14.48
13.40
9.27
3.69
-1.40
-4.56
-5.37
-4.55
-3.34
-2.79
-3.06
-3.47
-3.00
-1.09
1.90
4.76
6.13
5.26
2.48
-0.95
-3.51
-4.16
-2.72
0.14
3.37
6.06
7.77
8.51
8.59
8.30
7.80
7.11
6.18
5.02
3.70
2.35
1.17
0.40
0.28
0.94
2.25
3.83
5.12
5.57
4.90
3.18
0.84
-1.52
-3.36
-4.39
-4.69
-4.66
-4.83
-5.63
-7.21
-9.39
-11.79
-13.96
-15.57
-16.38
-16.32
-15.31
-13.36
-10.50
-6.95
-3.13
0.30
2.56
3.13
1.98
-0.25
-2.49
-3.71
-3.28
-1.29
1.55
4.33
6.35
7.42
7.73
7.60
7.21
6.52
5.40
3.88
2.18
0.68
-0.25
-0.35
0.37
1.62
2.86
3.48
3.08
1.72
-0.08
-1.61
-2.36
-2.39
-2.38
-3.20
-5.35
-8.58
-12.02
-14.59
-15.68
-15.47
-14.75
-14.38
-14.91
-16.24
-17.92
-19.41
-20.41
-20.95
-21.25
-21.54
-22.01
-22.75
-23.72
-24.71
-25.29
-24.94
-23.34
-20.59
-17.26
-14.13
-11.85
-10.60
-10.09
-9.74
-9.03
-7.69
-5.80
-3.61
-1.50
0.24
1.49
2.34
3.07
4.11
5.75
8.00
10.51
12.64
13.90
14.15
13.73
13.26
13.21
13.68
14.32
14.72
14.67
14.40
14.44
15.26
16.95
19.11
21.05
22.08
21.89
20.64
18.75
16.67
14.68
12.89
11.29
9.95
8.90
8.07
7.18
5.77
3.48
0.26
-3.46
-6.91
-9.34
-10.41
-10.33
-9.76
-9.44
-9.71
-10.39
-10.89
-10.59
-9.28
-7.22
-5.04
-3.30
-2.16
-1.34
-0.37
1.09
3.05
5.15
6.95
8.11
8.58
8.57
8.41
8.40
8.73
9.39
10.12
10.51
10.21
9.19
7.83
6.84
6.78
7.73
9.14
10.16
10.22
9.39
8.36
7.93
8.49
9.71
10.73
10.76
9.57
7.62
5.68
4.30
3.44
2.57
1.14
-1.10
-3.86
-6.50
-8.43
-9.45
-9.82
-10.15
-10.95
-12.47
-14.50
-16.64
-18.47
-19.67
-20.06
-19.47
-17.76
-14.92
-11.20
-7.18
-3.70
-1.43
-0.62
-0.88
-1.38
-1.24
0.01
2.19
4.63
6.51
7.29
6.96
5.98
5.03
4.60
4.81
5.37
5.84
5.86
5.32
4.46
3.62
3.11
3.02
3.28
3.74
4.33
5.04
5.86
6.68
7.32
7.61
7.43
6.81
5.93
5.13
4.67
4.67
5.01
5.25
4.94
3.75
1.64
-1.05
-3.79
-6.02
-7.46
-8.18
-8.59
-9.14
-10.19
-11.75
-13.65
-15.48
-16.80
-17.22
-16.48
-14.66
-12.16
-9.61
-7.63
-6.54
-6.24
-6.20
-5.74
-4.36
-2.04
0.73
3.23
4.84
5.39
5.21
4.93
5.09
5.85
6.92
7.80
8.10
7.80
7.19
6.68
6.54
6.73
7.00
7.08
6.80
6.12
5.07
3.65
1.99
0.31
-1.03
-1.65
-1.49
-0.83
-0.29
-0.43
-1.50
-3.34
-5.54
-7.68
-9.46
-10.75
-11.41
-11.32
-10.43
-8.99
-7.57
-6.86
-7.26
-8.63
-10.39
-11.86
-12.71
-13.11
-13.39
-13.65
-13.51
-12.36
-9.85
-6.36
-2.83
-0.31
0.77
0.78
0.68
1.47
3.52
6.53
9.70
12.26
13.78
14.28
14.01
13.37
12.81
12.67
13.20
14.38
15.84
16.95
17.16
16.26
14.58
12.79
11.53
11.15
11.47
12.08
12.63
12.95
13.03
12.75
11.83
9.84
6.63
2.60
-1.33
-4.12
-5.12
-4.50
-3.08
-1.92
-1.77
-2.71
-4.34
-6.06
-7.54
-8.83
-10.20
-11.80
-13.47
-14.84
-15.54
-15.56
-15.17
-14.75
-14.43
-14.00
-13.05
-11.32
-8.99
-6.62
-4.92
-4.25
-4.51
-5.15
-5.55
-5.31
-4.33
-2.85
-1.19
0.33
1.42
1.94
1.84
1.24
0.38
-0.44
-1.01
-1.18
-0.82
0.17
1.90
4.32
7.16
9.96
12.22
13.58
14.01
13.68
12.83
11.67
10.39
9.19
8.36
8.17
8.65
9.49
10.15
10.13
9.21
7.55
5.48
3.29
1.02
-1.44
-4.08
-6.69
-8.80
-10.01
-10.30
-10.05
-9.86
-10.20
-11.18
-12.51
-13.84
-14.92
-15.72
-16.20
-16.13
-15.10
-12.80
-9.29
-5.24
-1.68
0.45
0.77
-0.26
-1.57
-2.06
-1.11
1.08
3.76
6.09
7.59
8.38
9.00
10.10
11.98
14.46
17.00
18.95
19.82
19.45
18.01
15.84
13.29
10.63
7.97
5.42
3.07
1.09
-0.24
-0.64
-0.06
1.31
3.02
4.51
5.30
5.19
4.25
2.79
1.22
-0.10
-0.98
-1.45
-1.77
-2.28
-3.20
-4.52
-5.96
-7.23
-8.24
-9.21
-10.50
-12.34
-14.57
-16.68
-18.13
-18.63
-18.37
-17.75
-17.08
-16.31
-15.19
-13.48
-11.26
-8.94
-6.92
-5.37
-4.05
-2.52
-0.50
1.94
4.46
6.71
8.55
10.13
11.69
13.32
14.89
16.15
16.89
17.07
16.77
16.08
15.00
13.58
11.93
10.32
9.05
8.23
7.73
7.19
6.26
4.88
3.34
2.10
1.57
1.82
2.57
3.34
3.77
3.81
3.66
3.58
3.66
3.66
3.20
1.97
-0.01
-2.34
-4.40
-5.70
-6.09
-5.82
-5.37
-5.27
-5.94
-7.54
-10.04
-13.16
-16.46
-19.30
-21.00
-21.09
-19.59
-17.05
-14.33
-12.24
-11.11
-10.68
-10.31
-9.36
-7.53
-4.95
-2.06
0.73
3.14
5.16
6.79
7.97
8.54
8.45
7.89
7.17
6.62
6.31
6.11
5.82
5.48
5.36
5.84
7.00
8.43
9.41
9.31
8.05
6.16
4.49
3.67
3.80
4.39
4.76
4.43
3.35
1.87
0.42
-0.64
-1.14
-1.08
-0.50
0.47
1.62
2.64
3.33
3.56
3.40
2.98
2.36
1.46
0.17
-1.57
-3.63
-5.62
-7.07
-7.55
-6.91
-5.32
-3.16
-0.91
1.03
2.45
3.39
4.01
4.53
5.11
5.86
6.82
7.90
8.91
9.54
9.49
8.64
7.14
5.49
4.32
4.06
4.84
6.34
8.03
9.46
10.40
10.82
10.78
10.32
9.45
8.29
7.15
6.37
6.22
6.65
7.33
7.75
7.48
6.44
4.87
3.25
1.96
1.21
0.89
0.69
0.23
-0.71
-2.19
-4.01
-5.94
-7.75
-9.32
-10.60
-11.70
-12.78
-14.02
-15.54
-17.36
-19.33
-21.12
-22.36
-22.69
-21.87
-19.93
-17.09
-13.82
-10.59
-7.90
-6.01
-5.00
-4.66
-4.63
-4.52
-4.03
-3.08
-1.74
-0.20
1.35
2.74
3.86
4.67
5.15
5.37
5.45
5.51
5.70
6.18
7.10
8.55
10.53
12.83
15.06
16.79
17.71
17.80
17.38
16.93
16.87
17.31
17.97
18.29
17.62
15.62
12.34
8.32
4.38
1.31
-0.52
-1.24
-1.41
-1.72
-2.53
-3.77
-5.00
-5.83
-6.20
-6.46
-7.11
-8.33
-9.86
-11.11
-11.56
-11.16
-10.41
-9.92
-10.03
-10.50
-10.68
-9.96
-8.15
-5.60
-2.96
-0.79
0.73
1.80
2.76
3.86
5.07
6.26
7.29
8.10
8.74
9.29
9.78
10.18
10.45
10.54
10.45
10.17
9.70
9.03
8.21
7.36
6.61
6.01
5.45
4.73
3.72
2.45
1.16
0.10
-0.60
-1.05
-1.55
-2.35
-3.46
-4.60
-5.38
-5.59
-5.37
-5.18
-5.48
-6.45
-7.80
-8.98
-9.53
-9.31
-8.64
-8.11
-8.21
-9.08
-10.47
-11.90
-12.98
-13.51
-13.47
-12.95
-11.97
-10.59
-8.94
-7.27
-5.85
-4.84
-4.17
-3.62
-2.92
-1.89
-0.58
0.82
2.04
2.87
3.26
3.40
3.69
4.62
6.53
9.40
12.75
15.81
17.81
18.34
17.51
15.87
14.11
12.72
11.72
10.80
9.58
7.93
6.06
4.45
3.53
3.42
3.83
4.20
4.03
3.10
1.55
-0.25
-1.94
-3.30
-4.25
-4.83
-5.11
-5.19
-5.27
-5.59
-6.28
-7.29
-8.41
-9.38
-10.00
-10.30
-10.47
-10.76
-11.32
-12.17
-13.08
-13.75
-13.81
-13.00
-11.32
-9.07
-6.82
-5.10
-4.17
-3.90
-3.82
-3.43
-2.43
-0.89
0.88
2.48
3.72
4.61
5.32
5.99
6.72
7.56
8.53
9.60
10.69
11.64
12.16
12.08
11.37
10.25
9.13
8.39
8.19
8.37
8.55
8.33
7.50
6.14
4.54
3.02
1.81
0.99
0.50
0.25
0.17
0.12
-0.01
-0.35
-0.96
-1.84
-2.91
-4.11
-5.43
-6.88
-8.42
-9.92
-11.17
-12.04
-12.59
-13.10
-13.87
-14.95
-16.04
-16.50
-15.74
-13.62
-10.53
-7.29
-4.74
-3.34
-3.00
-3.24
-3.55
-3.57
-3.20
-2.44
-1.25
0.35
2.21
3.98
5.25
5.80
5.81
5.81
6.42
7.98
10.30
12.84
14.98
16.43
17.27
17.81
18.26
18.62
18.66
18.21
17.26
16.02
14.74
13.54
12.32
10.83
8.88
6.50
4.00
1.83
0.37
-0.26
-0.33
-0.31
-0.68
-1.67
-3.15
-4.74
-6.09
-7.04
-7.76
-8.56
-9.73
-11.32
-13.13
-14.84
-16.21
-17.17
-17.73
-17.91
-17.62
-16.67
-14.97
-12.61
-9.91
-7.41
-5.58
-4.65
-4.51
-4.74
-4.77
-4.25
-3.15
-1.81
-0.67
-0.03
0.14
0.14
0.38
1.07
2.12
3.26
4.23
4.96
5.62
6.40
7.32
8.17
8.59
8.34
7.47
6.33
5.37
4.87
4.78
4.81
4.62
4.06
3.22
2.39
1.86
1.77
2.04
2.42
2.54
2.06
0.81
-1.10
-3.30
-5.30
-6.71
-7.46
-7.81
-8.19
-8.87
-9.80
-10.66
-11.14
-11.08
-10.63
-10.07
-9.53
-8.95
-8.09
-6.81
-5.21
-3.65
-2.47
-1.91
-1.85
-2.04
-2.13
-1.86
-1.16
-0.14
0.94
1.77
2.09
1.82
1.13
0.39
0.08
0.54
1.78
3.53
5.34
6.84
7.91
8.70
9.45
10.34
11.32
12.20
12.77
12.98
12.92
12.75
12.57
12.27
11.64
10.46
8.73
6.58
4.30
2.14
0.20
-1.54
-3.16
-4.70
-6.18
-7.54
-8.75
-9.80
-10.73
-11.54
-12.21
-12.74
-13.13
-13.40
-13.65
-13.90
-14.18
-14.43
-14.53
-14.30
-13.59
-12.34
-10.59
-8.58
-6.62
-5.01
-3.91
-3.22
-2.65
-1.83
-0.50
1.36
3.46
5.33
6.55
6.93
6.62
6.05
5.63
5.62
5.99
6.49
6.85
6.95
6.85
6.71
6.63
6.60
6.49
6.21
5.75
5.24
4.82
4.60
4.61
4.86
5.37
6.17
7.26
8.53
9.78
10.73
11.14
10.83
9.80
8.16
6.14
4.03
2.15
0.66
-0.43
-1.26
-2.13
-3.20
-4.57
-6.15
-7.77
-9.25
-10.52
-11.62
-12.62
-13.56
-14.39
-14.98
-15.17
-14.84
-13.96
-12.64
-11.08
-9.49
-8.05
-6.83
-5.83
-4.94
-4.05
-2.99
-1.64
0.02
1.87
3.72
5.38
6.79
8.00
9.17
10.44
11.72
12.83
13.43
13.30
12.41
10.93
9.13
7.25
5.42
3.68
2.08
0.66
-0.46
-1.21
-1.61
-1.76
-1.91
-2.29
-3.03
-4.15
-5.47
-6.77
-7.85
-8.65
-9.22
-9.68
-10.15
-10.75
-11.60
-12.76
-14.22
-15.74
-16.90
-17.15
-16.01
-13.30
-9.25
-4.40
0.49
4.72
7.81
9.51
9.89
9.20
7.90
6.49
5.40
4.77
4.44
3.99
3.03
1.50
-0.27
-1.63
-1.97
-1.00
1.07
3.70
6.25
8.32
9.82
10.84
11.49
11.74
11.51
10.82
9.86
8.99
8.49
8.31
8.17
7.71
6.72
5.34
3.94
2.94
2.59
2.85
3.45
4.06
4.41
4.35
3.83
2.94
1.81
0.76
0.03
-0.29
-0.31
-0.38
-0.78
-1.68
-2.98
-4.44
-5.75
-6.70
-7.27
-7.51
-7.57
-7.55
-7.48
-7.42
-7.38
-7.41
-7.57
-7.94
-8.52
-9.23
-9.80
-9.94
-9.45
-8.45
-7.29
-6.39
-5.94
-5.81
-5.66
-5.18
-4.28
-3.15
-2.02
-0.99
0.03
1.15
2.38
3.50
4.21
4.36
4.10
3.73
3.57
3.65
3.84
3.92
3.80
3.58
3.46
3.65
4.24
5.22
6.49
7.89
9.20
10.19
10.67
10.62
10.20
9.68
9.30
9.06
8.81
8.29
7.35
6.02
4.53
3.14
2.09
1.46
1.21
1.21
1.27
1.20
0.84
0.10
-1.07
-2.62
-4.43
-6.32
-8.05
-9.37
-10.10
-10.25
-9.99
-9.67
-9.64
-9.96
-10.45
-10.74
-10.49
-9.64
-8.40
-7.15
-6.21
-5.65
-5.28
-4.86
-4.24
-3.44
-2.59
-1.80
-1.07
-0.38
0.29
0.93
1.51
2.10
2.88
4.07
5.71
7.60
9.35
10.55
11.01
10.82
10.25
9.55
8.79
7.91
6.85
5.69
4.65
4.01
3.87
4.14
4.57
4.91
4.98
4.83
4.60
4.45
4.50
4.71
4.94
4.95
4.45
3.23
1.20
-1.48
-4.40
-7.01
-8.79
-9.49
-9.21
-8.46
-7.91
-8.14
-9.34
-11.26
-13.22
-14.47
-14.51
-13.29
-11.21
-8.92
-6.93
-5.50
-4.53
-3.78
-3.02
-2.16
-1.27
-0.50
0.10
0.58
1.04
1.56
2.10
2.59
3.02
3.51
4.27
5.52
7.28
9.34
11.27
12.57
12.91
12.21
10.74
8.92
7.18
5.81
4.89
4.30
3.85
3.32
2.61
1.70
0.72
-0.22
-1.09
-1.92
-2.75
-3.55
-4.15
-4.29
-3.84
-2.95
-2.03
-1.66
-2.19
-3.51
-5.14
-6.38
-6.76
-6.26
-5.30
-4.45
-4.19
-4.65
-5.63
-6.71
-7.43
-7.38
-6.41
-4.63
-2.43
-0.37
1.09
1.74
1.80
1.74
1.99
2.74
3.79
4.80
5.43
5.57
5.31
4.77
4.09
3.35
2.67
2.20
2.05
2.16
2.25
2.00
1.16
-0.28
-2.09
-4.00
-5.74
-7.17
-8.13
-8.40
-7.77
-6.20
-3.97
-1.61
0.29
1.37
1.67
1.53
1.35
1.36
1.53
1.63
1.49
1.11
0.61
0.14
-0.34
-0.99
-2.00
-3.45
-5.16
-6.77
-8.01
-8.77
-9.22
-9.64
-10.16
-10.60
-10.49
-9.41
-7.28
-4.49
-1.76
0.21
1.09
1.05
0.59
0.31
0.57
1.38
2.49
3.55
4.31
4.67
4.76
4.81
5.12
5.91
7.22
8.84
10.39
11.45
11.76
11.38
10.55
9.53
8.50
7.46
6.36
5.20
4.10
3.24
2.66
2.26
1.83
1.20
0.39
-0.45
-1.15
-1.62
-1.96
-2.27
-2.57
-2.83
-3.00
-3.14
-3.42
-4.01
-4.92
-6.09
-7.34
-8.58
-9.75
-10.82
-11.69
-12.11
-11.83
-10.75
-9.03
-7.12
-5.45
-4.30
-3.68
-3.38
-3.18
-2.90
-2.44
-1.78
-0.89
0.18
1.26
2.11
2.52
2.52
2.42
2.70
3.70
5.31
6.97
7.92
7.68
6.44
4.88
3.84
3.70
4.24
4.79
4.77
4.05
3.06
2.38
2.40
2.97
3.55
3.53
2.57
0.83
-1.20
-2.97
-4.17
-4.78
-5.07
-5.32
-5.73
-6.37
-7.20
-8.20
-9.38
-10.78
-12.32
-13.71
-14.52
-14.26
-12.66
-9.83
-6.19
-2.44
0.82
3.24
4.86
5.96
6.91
7.97
9.18
10.41
11.44
12.08
12.26
12.01
11.47
10.81
10.23
9.91
9.90
10.11
10.34
10.33
9.92
9.14
8.24
7.48
7.05
6.86
6.68
6.26
5.52
4.52
3.46
2.43
1.44
0.43
-0.60
-1.53
-2.22
-2.61
-2.84
-3.19
-3.93
-5.15
-6.64
-8.04
-9.10
-9.81
-10.39
-11.08
-11.92
-12.64
-12.81
-12.05
-10.32
-7.97
-5.57
-3.65
-2.48
-1.97
-1.85
-1.83
-1.77
-1.58
-1.20
-0.44
0.91
2.93
5.41
7.86
9.71
10.61
10.69
10.36
10.15
10.36
10.86
11.26
11.13
10.32
9.01
7.67
6.73
6.40
6.55
6.78
6.69
6.04
4.93
3.66
2.60
1.95
1.62
1.36
0.82
-0.16
-1.50
-2.94
-4.16
-4.98
-5.44
-5.72
-6.01
-6.49
-7.18
-8.06
-9.10
-10.25
-11.48
-12.66
-13.53
-13.82
-13.33
-12.00
-10.06
-7.87
-5.87
-4.31
-3.28
-2.59
-2.03
-1.42
-0.65
0.26
1.21
2.06
2.67
2.95
2.99
2.97
3.22
4.02
5.49
7.45
9.42
10.87
11.39
11.01
10.01
8.92
8.13
7.71
7.47
7.08
6.28
5.04
3.60
2.27
1.34
0.92
0.87
0.93
0.78
0.20
-0.82
-2.11
-3.36
-4.30
-4.91
-5.38
-5.97
-6.84
-7.92
-8.87
-9.41
-9.48
-9.32
-9.36
-9.87
-10.66
-11.21
-10.91
-9.45
-7.06
-4.45
-2.38
-1.30
-1.11
-1.23
-1.01
-0.04
1.66
3.64
5.32
6.24
6.22
5.44
4.29
3.17
2.46
2.37
2.92
4.00
5.36
6.62
7.40
7.39
6.50
5.06
3.69
3.04
3.53
5.05
6.92
8.26
8.40
7.17
5.02
2.64
0.67
-0.66
-1.46
-2.08
-2.77
-3.60
-4.52
-5.44
-6.41
-7.60
-9.10
-10.80
-12.35
-13.27
-13.29
-12.46
-11.26
-10.31
-10.12
-10.78
-11.91
-12.86
-13.04
-12.15
-10.32
-7.97
-5.64
-3.78
-2.64
-2.26
-2.50
-3.00
-3.34
-3.08
-2.00
-0.17
2.06
4.17
5.72
6.49
6.66
6.56
6.62
7.11
8.06
9.39
10.88
12.30
13.40
13.96
13.83
13.02
11.81
10.62
9.87
9.71
9.98
10.17
9.80
8.63
6.83
4.88
3.24
2.11
1.38
0.80
0.15
-0.53
-1.09
-1.38
-1.45
-1.50
-1.73
-2.16
-2.67
-3.13
-3.54
-4.08
-4.97
-6.24
-7.66
-8.78
-9.27
-8.98
-8.10
-7.02
-6.00
-5.11
-4.18
-3.01
-1.52
0.19
1.91
3.43
4.69
5.63
6.25
6.48
6.28
5.62
4.60
3.51
2.65
2.32
2.58
3.25
3.95
4.30
4.09
3.34
2.32
1.34
0.57
0.03
-0.43
-0.90
-1.36
-1.64
-1.62
-1.27
-0.78
-0.40
-0.38
-0.82
-1.62
-2.62
-3.60
-4.44
-5.05
-5.41
-5.62
-5.81
-6.13
-6.61
-7.17
-7.71
-8.18
-8.70
-9.45
-10.55
-11.87
-13.02
-13.46
-12.82
-11.11
-8.79
-6.56
-5.02
-4.39
-4.38
-4.49
-4.16
-3.18
-1.62
0.13
1.67
2.74
3.35
3.77
4.26
4.99
5.97
7.13
8.40
9.72
11.01
12.19
13.12
13.66
13.80
13.66
13.49
13.52
13.78
14.01
13.78
12.65
10.43
7.25
3.58
0.02
-3.00
-5.27
-6.81
-7.77
-8.25
-8.29
-7.87
-7.07
-6.15
-5.43
-5.21
-5.55
-6.28
-7.05
-7.52
-7.51
-7.16
-6.78
-6.70
-7.17
-8.15
-9.37
-10.40
-10.81
-10.35
-9.10
-7.44
-5.82
-4.62
-3.99
-3.80
-3.72
-3.46
-2.76
-1.57
-0.02
1.66
3.19
4.42
5.35
6.12
6.89
7.74
8.58
9.21
9.48
9.43
9.27
9.26
9.51
9.86
9.99
9.67
8.91
7.95
7.05
6.37
5.83
5.25
4.55
3.80
3.18
2.76
2.49
2.11
1.38
0.26
-1.04
-2.16
-2.81
-2.93
-2.81
-2.87
-3.46
-4.68
-6.27
-7.83
-8.99
-9.62
-9.85
-9.99
-10.25
-10.68
-11.03
-10.96
-10.29
-9.00
-7.33
-5.58
-4.02
-2.79
-1.98
-1.58
-1.52
-1.63
-1.61
-1.19
-0.22
1.17
2.65
3.85
4.54
4.86
5.09
5.50
6.09
6.56
6.56
5.94
4.97
4.13
3.93
4.48
5.56
6.70
7.47
7.73
7.53
7.06
6.44
5.79
5.16
4.66
4.39
4.39
4.52
4.52
4.13
3.20
1.89
0.54
-0.41
-0.71
-0.50
-0.21
-0.50
-1.77
-4.00
-6.59
-8.66
-9.45
-8.82
-7.30
-5.85
-5.32
-5.97
-7.37
-8.61
-8.95
-8.17
-6.68
-5.29
-4.79
-5.55
-7.33
-9.41
-10.83
-10.65
-8.30
-3.81
2.07
8.05
12.57
14.39
13.00
8.94
3.74
-0.43
-1.52
1.59
8.50
17.13
24.31
26.83
22.73
12.18
-2.39
-17.07
-27.73
-31.27
-26.41
-13.86
3.91
23.17
39.65
49.38
49.91
41.14
25.58
7.72
-7.56
-16.63
-18.30
-13.95
-6.68
0.04
3.62
2.96
-1.60
-8.75
-16.76
-23.89
-28.66
-30.13
-27.96
-22.59
-15.15
-7.25
-0.63
3.34
4.05
1.86
-2.05
-5.93
-8.14
-7.73
-4.73
-0.11
4.63
8.14
9.71
9.54
8.51
7.73
7.92
9.25
11.25
13.21
14.45
14.57
13.56
11.73
9.56
7.62
6.50
6.57
7.89
10.09
12.41
13.93
13.96
12.29
9.32
6.03
3.53
2.77
4.21
7.67
12.54
18.03
23.44
28.34
32.62
36.37
39.78
42.98
45.81
47.90
48.70
47.82
45.27
41.58
37.46
33.58
30.11
26.79
23.25
19.34
15.23
11.10
6.53
0.27
-9.35
-23.36
-41.07
-59.70
-75.27
-84.18
-84.93
-78.77
-68.93
-58.92
-51.02
-45.58
-41.45
-37.19
-32.06
-26.30
-20.73
-16.13
-12.95
-11.49
-12.09
-15.08
-20.27
-26.47
-31.66
-33.70
-31.43
-25.34
-17.42
-10.11
-5.10
-2.68
-1.90
-1.46
-0.60
0.46
0.88
-0.11
-2.56
-5.68
-8.23
-9.17
-8.22
-6.11
-4.15
-3.59
-4.82
-7.16
-9.24
-9.85
-8.71
-6.59
-4.77
-4.23
-4.95
-6.08
-6.54
-5.91
-4.66
-3.81
-4.23
-6.02
-8.55
-10.82
-12.00
-11.73
-10.06
-7.34
-4.05
-0.85
1.57
2.66
2.38
1.34
0.46
0.47
1.39
2.65
3.52
3.70
3.49
3.53
4.17
5.24
6.10
6.19
5.44
4.40
3.87
4.40
5.97
8.04
9.81
10.65
10.28
8.82
6.78
4.90
3.98
4.51
6.33
8.50
9.73
8.99
6.25
2.61
-0.27
-1.08
0.38
3.06
5.06
4.71
1.32
-4.48
-11.11
-16.62
-19.42
-18.69
-14.64
-8.65
-3.17
-1.14
-4.84
-14.89
-29.67
-45.66
-58.60
-64.87
-62.63
-52.10
-35.28
-15.30
4.35
20.53
30.94
34.44
31.18
22.40
10.19
-3.04
-14.89
-23.16
-26.18
-23.31
-15.39
-4.80
5.01
10.87
11.03
5.73
-2.99
-12.19
-19.33
-23.11
-23.62
-22.09
-20.14
-19.07
-19.54
-21.62
-25.00
-29.27
-33.74
-37.19
-37.72
-32.98
-21.13
-1.86
23.11
50.25
75.28
94.62
106.35
110.30
107.68
100.38
90.29
79.21
68.61
59.54
52.59
47.78
44.82
43.36
43.16
44.09
45.92
48.13
49.88
50.27
48.55
44.37
37.84
29.54
20.42
11.69
4.51
-0.28
-2.41
-2.32
-1.05
0.12
0.10
-1.61
-4.66
-8.02
-10.41
-10.76
-8.77
-4.96
-0.47
3.42
5.72
6.05
4.63
2.06
-1.00
-4.06
-6.79
-8.98
-10.50
-11.28
-11.35
-10.90
-10.25
-9.87
-10.21
-11.63
-14.20
-17.64
-21.35
-24.46
-26.16
-25.94
-23.94
-20.92
-18.08
-16.64
-17.36
-20.15
-24.16
-28.04
-30.46
-30.60
-28.41
-24.50
-19.78
-15.09
-10.90
-7.31
-4.27
-1.71
0.36
1.94
3.17
4.28
5.41
6.36
6.58
5.38
2.35
-2.17
-7.13
-11.22
-13.44
-13.58
-12.19
-10.20
-8.32
-6.87
-5.67
-4.49
-3.23
-2.02
-1.15
-0.85
-1.16
-1.93
-2.90
-3.66
-3.84
-3.20
-1.80
-0.07
1.31
1.75
1.08
-0.32
-1.66
-2.23
-1.80
-0.73
0.22
0.41
-0.36
-1.79
-3.33
-4.56
-5.38
-6.00
-6.62
-7.30
-7.89
-8.14
-7.86
-6.99
-5.55
-3.66
-1.46
0.84
2.96
4.68
5.89
6.75
7.53
8.46
9.45
10.22
10.41
9.86
8.74
7.40
6.13
4.99
3.86
2.62
1.32
0.15
-0.75
-1.39
-1.97
-2.68
-3.45
-3.90
-3.48
-1.90
0.78
4.02
7.10
9.39
10.69
11.14
11.17
11.20
11.43
11.86
12.36
12.77
12.96
12.82
12.18
10.84
8.67
5.80
2.71
0.03
-1.73
-2.50
-2.63
-2.69
-3.05
-3.52
-3.50
-2.25
0.55
4.58
8.93
12.53
14.64
15.12
14.38
12.99
11.49
10.22
9.38
9.19
9.73
10.90
12.27
13.19
13.05
11.63
9.22
6.41
3.79
1.53
-0.68
-3.48
-7.62
-13.64
-21.72
-31.55
-42.30
-52.63
-61.02
-66.20
-67.52
-65.21
-60.11
-53.21
-45.34
-37.03
-28.66
-20.65
-13.50
-7.57
-2.95
0.58
3.34
5.49
6.92
7.52
7.32
6.75
6.29
6.24
6.38
6.11
4.88
2.58
-0.22
-2.58
-3.61
-2.95
-0.84
1.91
4.41
5.95
6.27
5.56
4.35
3.19
2.55
2.59
3.28
4.36
5.50
6.36
6.63
6.07
4.58
2.32
-0.25
-2.44
-3.61
-3.44
-2.15
-0.33
1.33
2.40
2.90
3.15
3.52
4.12
4.83
5.35
5.42
5.00
4.24
3.31
2.40
1.58
0.94
0.54
0.45
0.59
0.72
0.52
-0.28
-1.60
-3.12
-4.32
-4.88
-4.96
-5.22
-6.57
-9.54
-13.82
-18.12
-20.67
-19.89
-15.10
-6.76
3.81
14.82
24.74
32.59
38.17
41.61
43.30
43.65
42.77
40.48
36.29
29.79
21.26
12.07
4.44
1.13
4.47
15.37
32.79
53.83
74.78
92.41
104.39
108.98
105.66
95.49
81.45
67.73
57.99
53.39
51.89
48.44
37.04
15.10
-14.17
-42.41
-60.36
-63.24
-53.49
-38.83
-29.02
-31.93
-49.74
-79.34
-115.10
-152.69
-191.46
-233.34
-279.35
-317.88
-334.71
-320.05
-275.80
-213.86
-148.58
-91.25
-51.47
-26.77
-13.36
-9.28
-14.34
-29.58
-55.89
-91.54
-131.75
-168.32
-190.83
-191.80
-169.91
-130.27
-82.16
-34.66
6.98
41.92
72.22
100.14
124.92
143.05
151.39
150.31
144.73
141.35
143.63
148.55
147.90
132.34
97.73
48.57
-3.45
-44.85
-67.12
-70.18
-60.99
-48.30
-38.14
-31.88
-27.72
-23.69
-19.50
-16.60
-16.16
-17.61
-18.22
-14.59
-4.03
14.29
39.51
69.74
102.55
135.40
165.93
192.35
213.73
229.93
240.84
245.57
242.21
228.49
203.79
170.40
133.51
99.90
75.47
63.27
62.71
70.33
81.42
91.77
98.78
101.72
101.33
99.01
96.00
92.52
87.69
80.27
69.83
57.16
43.85
31.34
20.04
9.33
-1.55
-12.47
-22.04
-28.17
-29.36
-25.51
-17.79
-8.00
2.29
11.89
19.73
24.78
26.22
23.93
18.73
12.12
5.53
-0.33
-5.34
-9.42
-12.10
-12.94
-12.49
-13.10
-18.65
-32.97
-57.44
-89.55
-123.06
-150.18
-164.56
-163.47
-148.40
-123.88
-95.45
-67.79
-43.66
-23.96
-8.36
3.74
12.61
18.09
19.91
18.37
14.64
10.46
7.41
5.98
5.45
4.30
1.26
-3.79
-9.66
-14.51
-16.82
-16.26
-13.70
-10.64
-8.43
-7.84
-9.04
-11.81
-15.81
-20.56
-25.38
-29.54
-32.38
-33.54
-33.02
-30.99
-27.68
-23.27
-18.05
-12.50
-7.32
-3.04
0.24
3.01
6.08
9.89
14.03
17.18
17.61
14.08
6.56
-3.63
-14.40
-23.89
-31.28
-36.98
-42.17
-47.86
-54.39
-61.50
-68.85
-76.50
-84.81
-93.79
-102.53
-109.09
-111.33
-108.14
-100.13
-89.29
-77.69
-66.15
-53.78
-38.82
-20.21
1.27
23.00
41.79
55.54
64.29
69.92
75.05
81.68
90.42
100.61
110.85
119.65
125.75
128.21
126.35
119.92
109.14
94.77
78.11
60.66
43.77
28.46
15.20
3.96
-5.53
-13.65
-20.57
-26.02
-29.32
-29.54
-25.98
-18.56
-8.14
3.69
14.95
23.70
28.35
27.87
21.90
10.97
-3.38
-18.80
-32.61
-42.58
-47.57
-47.81
-44.76
-40.53
-37.15
-36.02
-37.70
-41.81
-47.43
-53.26
-57.94
-60.46
-60.36
-57.81
-53.49
-48.43
-43.58
-39.73
-37.39
-36.64
-37.19
-38.46
-39.66
-40.16
-39.60
-38.03
-35.79
-33.30
-30.91
-28.75
-26.75
-24.64
-22.00
-18.42
-13.69
-8.04
-2.27
2.41
4.70
3.76
-0.42
-6.93
-14.22
-20.74
-25.49
-28.20
-29.30
-29.53
-29.68
-30.37
-31.77
-33.34
-33.58
-30.38
-21.88
-7.41
11.83
33.00
52.63
68.01
78.22
84.25
88.05
91.16
93.88
95.33
94.26
89.99
83.09
75.25
68.71
65.40
66.11
70.50
77.43
85.60
93.95
101.77
108.40
112.95
114.22
110.54
101.08
86.78
70.44
55.67
45.24
39.91
38.30
37.84
34.95
27.32
14.86
-0.27
-14.90
-26.34
-33.28
-35.76
-34.71
-33.22
-34.20
-39.08
-47.26
-56.99
-66.73
-75.96
-84.90
-93.78
-104.87
-120.28
-141.15
-167.69
-199.72
-237.24
-279.92
-325.99
-356.87
-355.81
-316.04
-246.43
-165.28
-88.86
-25.85
22.19
58.25
87.14
110.67
128.53
141.13
148.47
150.64
147.43
138.18
121.89
97.91
64.38
22.36
-21.03
-55.12
-70.33
-63.20
-37.89
-4.01
28.13
50.34
59.89
59.10
52.45
43.91
35.22
26.40
17.23
8.39
0.79
-4.81
-8.58
-11.92
-16.51
-23.85
-34.07
-45.94
-57.19
-65.70
-70.37
-70.92
-68.33
-63.74
-58.16
-51.76
-43.93
-33.70
-20.49
-4.69
12.37
28.47
41.94
51.78
58.06
61.82
64.39
66.75
69.00
70.57
70.34
67.98
63.81
58.89
55.05
54.62
60.09
73.62
96.71
125.93
157.69
187.35
210.08
222.73
225.06
219.91
211.83
204.91
200.68
198.09
193.55
182.50
161.83
130.95
91.68
47.10
0.37
-46.05
-89.66
-128.21
-160.01
-183.37
-197.34
-202.29
-200.25
-194.46
-188.46
-184.47
-179.57
-170.85
-156.59
-137.63
-116.77
-96.92
-79.68
-65.09
-52.07
-39.48
-27.31
-16.18
-6.85
0.36
5.75
9.96
13.49
16.65
19.59
22.02
23.90
25.44
27.17
29.58
32.97
37.27
42.32
47.98
53.85
59.53
64.51
68.29
70.00
68.62
63.30
53.66
40.02
23.19
4.48
-14.64
-32.73
-48.63
-61.48
-70.82
-76.58
-78.91
-77.92
-73.17
-63.43
-46.99
-22.54
9.81
47.80
87.33
123.63
152.65
172.30
182.64
185.36
182.76
176.85
169.02
159.32
148.53
137.31
125.73
113.06
97.96
78.99
55.50
28.20
-0.68
-28.16
-51.76
-70.48
-85.00
-97.07
-108.61
-120.96
-134.68
-149.72
-165.41
-180.46
-192.52
-198.34
-194.67
-179.74
-154.49
-122.62
-89.32
-59.27
-35.14
-17.14
-3.89
6.14
13.56
17.83
17.98
13.37
4.26
-8.36
-23.18
-39.02
-54.79
-69.55
-82.08
-90.86
-94.29
-91.24
-81.58
-66.54
-48.49
-30.29
-14.40
-2.24
6.09
11.46
15.10
18.03
20.68
22.96
24.52
25.10
24.68
23.55
22.09
20.69
19.62
18.85
18.07
16.63
13.63
8.26
0.32
-9.31
-18.56
-24.76
-25.87
-21.56
-13.64
-5.29
0.32
1.45
-1.69
-7.53
-14.11
-19.86
-23.57
-24.07
-20.35
-12.29
-1.47
8.72
14.25
12.45
3.56
-9.14
-20.97
-28.11
-29.06
-24.59
-16.30
-5.22
8.70
25.79
45.39
65.30
82.34
93.72
98.39
97.38
93.07
88.05
83.98
81.08
78.55
75.28
70.65
64.76
58.30
52.10
46.76
42.34
38.40
34.16
28.79
21.72
12.85
2.55
-8.45
-19.34
-29.49
-38.57
-46.46
-53.14
-58.51
-62.31
-64.22
-64.01
-61.67
-57.51
-52.07
-45.98
-39.77
-33.72
-27.90
-22.25
-16.67
-11.20
-6.06
-1.56
1.92
4.09
4.80
4.11
2.29
-0.27
-3.11
-5.83
-8.08
-9.67
-10.51
-10.60
-9.95
-8.62
-6.68
-4.31
-1.74
0.76
3.00
4.89
6.52
8.03
9.57
11.20
12.81
14.21
15.18
15.49
15.06
13.90
12.21
10.23
8.21
6.37
4.75
3.30
1.85
0.22
-1.72
-3.95
-6.30
-8.53
-10.37
-11.68
-12.46
-12.85
-13.03
-13.09
-13.08
-12.90
-12.46
-11.74
-10.89
-10.15
-9.81
-10.08
-11.01
-12.57
-14.66
-17.23
-20.16
-23.39
-26.76
-30.09
-33.18
-35.84
-37.93
-39.36
-39.94
-39.36
-37.25
-33.26
-27.24
-19.47
-10.61
-1.61
6.55
13.10
17.69
20.24
20.91
19.90
17.50
14.02
9.90
5.65
1.74
-1.46
-3.74
-5.08
-5.59
-5.49
-5.19
-5.24
-6.22
-8.54
-12.24
-16.99
-22.13
-26.98
-31.00
-33.96
-35.89
-36.97
-37.42
-37.42
-37.13
-36.65
-36.04
-35.27
-34.18
-32.53
-30.07
-26.73
-22.58
-17.97
-13.34
-9.03
-5.21
-1.76
1.67
5.45
9.86
15.00
20.75
26.85
32.95
38.73
43.89
48.28
51.92
54.98
57.71
60.33
62.91
65.36
67.39
68.57
68.50
66.83
63.48
58.66
52.98
47.29
42.55
39.41
38.04
38.05
38.65
39.15
39.11
38.57
37.85
37.39
37.40
37.85
38.51
39.03
39.07
38.21
36.00
32.06
26.32
19.16
11.46
4.29
-1.43
-5.32
-7.60
-8.87
-9.84
-10.87
-11.97
-12.84
-13.17
-12.85
-11.95
-10.71
-9.27
-7.68
-5.99
-4.34
-3.15
-3.05
-4.59
-7.94
-12.65
-17.73
-22.03
-24.82
-26.04
-26.33
-26.57
-27.36
-28.72
-30.14
-30.88
-30.53
-29.19
-27.34
-25.59
-24.36
-23.69
-23.35
-23.09
-22.74
-22.30
-21.85
-21.43
-21.02
-20.52
-19.81
-18.78
-17.37
-15.64
-13.77
-12.03
-10.71
-9.95
-9.71
-9.71
-9.61
-9.15
-8.31
-7.32
-6.58
-6.43
-7.02
-8.18
-9.54
-10.72
-11.41
-11.51
-11.12
-10.38
-9.44
-8.38
-7.23
-6.02
-4.85
-3.81
-2.95
-2.24
-1.56
-0.80
0.12
1.11
2.10
2.91
3.51
3.91
4.18
4.43
4.67
4.88
5.00
4.98
4.76
4.35
3.83
3.27
2.75
2.34
2.06
1.92
1.88
1.91
1.97
1.99
1.82
1.33
0.40
-0.99
-2.77
-4.79
-6.96
-9.21
-11.48
-13.76
-15.99
-18.02
-19.66
-20.71
-20.97
-20.27
-18.53
-15.78
-12.24
-8.24
-4.21
-0.55
2.49
4.93
6.87
8.48
9.86
10.99
11.80
12.18
12.12
11.72
11.13
10.58
10.18
10.03
10.13
10.46
10.92
11.42
11.81
11.96
11.78
11.22
10.34
9.30
8.34
7.60
7.20
7.14
7.35
7.76
8.26
8.78
9.19
9.43
9.40
9.13
8.68
8.19
7.78
7.47
7.18
6.77
6.15
5.27
4.18
2.99
1.81
0.71
-0.31
-1.31
-2.39
-3.57
-4.85
-6.10
-7.11
-7.63
-7.41
-6.37
-4.66
-2.60
-0.59
1.06
2.18
2.86
3.28
3.61
3.94
4.21
4.31
4.18
3.79
3.25
2.72
2.35
2.21
2.32
2.58
2.92
3.25
3.56
3.91
4.33
4.80
5.22
5.44
5.35
4.97
4.43
3.95
3.71
3.76
4.00
4.22
4.22
3.89
3.19
2.18
0.96
-0.37
-1.78
-3.28
-4.91
-6.66
-8.47
-10.26
-11.94
-13.44
-14.75
-15.89
-16.90
-17.76
-18.35
-18.48
-17.94
-16.60
-14.46
-11.69
-8.57
-5.40
-2.41
0.32
2.86
5.38
7.94
10.51
12.85
14.66
15.68
15.78
15.01
13.57
11.75
9.83
8.04
6.52
5.28
4.31
3.51
2.75
1.97
1.18
0.48
-0.02
-0.21
-0.11
0.25
0.73
1.24
1.70
2.14
2.56
2.99
3.42
3.88
4.31
4.65
4.80
4.68
4.26
3.55
2.58
1.37
-0.04
-1.64
-3.40
-5.25
-7.01
-8.44
-9.27
-9.27
-8.38
-6.72
-4.55
-2.15
0.16
2.26
4.09
5.73
7.27
8.64
9.66
9.92
9.01
6.71
3.04
-1.57
-6.52
-11.14
-14.99
-17.96
-20.23
-22.10
-23.81
-25.32
-26.37
-26.55
-25.48
-22.88
-18.68
-13.09
-6.54
0.37
7.03
12.93
17.73
21.23
23.43
24.38
24.22
23.04
21.03
18.47
15.71
13.10
10.83
9.00
7.60
6.43
4.94
2.66
-0.57
-4.46
-8.53
-12.20
-14.86
-15.92
-15.17
-13.09
-10.31
-6.93
-2.36
4.52
15.22
31.58
55.38
87.39
126.17
168.56
210.70
248.64
278.58
297.32
302.80
294.29
271.72
234.82
183.93
121.09
50.16
-24.30
-97.76
-166.14
-223.49
-259.29
-266.59
-248.24
-214.33
-174.97
-136.55
-101.90
-71.58
-45.16
-22.50
-4.27
9.04
18.23
25.40
32.68
41.44
52.01
64.35
76.47
85.38
88.32
83.95
72.52
55.11
33.14
8.81
-15.12
-36.80
-55.55
-71.43
-84.53
-94.78
-102.16
-106.68
-108.27
-106.95
-103.14
-97.70
-91.79
-86.66
-83.17
-81.80
-82.40
-83.97
-85.26
-85.42
-84.18
-82.02
-80.00
-79.04
-79.80
-82.50
-86.93
-92.56
-98.06
-100.85
-97.36
-84.21
-60.07
-27.02
9.50
42.44
65.78
76.88
77.01
70.01
60.09
49.87
40.04
30.20
20.10
10.22
1.66
-4.80
-9.43
-13.41
-18.18
-24.80
-33.12
-42.02
-49.61
-54.18
-54.49
-50.44
-42.90
-33.25
-22.85
-12.60
-2.82
6.50
15.52
24.14
31.95
38.42
43.02
45.51
46.18
45.68
44.87
44.58
45.37
47.45
50.74
55.05
60.10
65.69
71.61
77.50
82.80
86.74
88.56
87.63
83.70
77.05
68.56
59.50
51.25
44.85
40.82
39.23
39.56
41.03
43.00
45.23
47.88
51.25
55.65
61.00
67.27
74.09
81.04
88.01
95.34
103.68
113.68
125.85
140.34
157.22
175.60
193.59
208.83
219.05
222.84
220.08
212.03
198.01
180.03
160.44
140.98
122.24
103.87
85.18
65.90
46.68
28.65
13.21
0.39
-11.30
-24.26
-40.50
-60.46
-82.55
-103.81
-121.35
-133.21
-139.36
-141.02
-139.68
-136.35
-131.42
-125.26
-118.71
-113.41
-111.24
-113.98
-122.64
-137.26
-157.08
-180.85
-207.28
-235.13
-263.16
-290.03
-314.38
-334.89
-350.14
-358.57
-358.39
-348.10
-327.12
-296.60
-259.80
-221.64
-187.50
-161.42
-144.79
-136.04
-131.39
-126.52
-118.13
-104.97
-87.93
-69.42
-52.22
-38.67
-30.20
-27.22
-29.18
-34.58
-41.10
-45.72
-45.19
-36.72
-18.75
8.64
43.83
84.17
126.66
168.48
207.33
241.40
269.28
289.97
302.92
307.90
305.11
294.91
277.91
255.05
227.76
198.01
168.14
140.44
116.69
97.72
83.32
72.35
63.27
54.50
44.86
33.80
21.38
8.17
-5.02
-17.32
-28.05
-36.73
-43.19
-47.51
-50.00
-51.01
-50.82
-49.37
-46.38
-41.54
-34.79
-26.73
-18.45
-11.35
-6.57
-4.54
-4.92
-6.87
-9.55
-12.40
-15.30
-18.29
-21.35
-24.22
-26.50
-27.79
-27.98
-27.31
-26.25
-25.36
-25.14
-25.79
-27.20
-28.96
-30.40
-30.91
-30.07
-27.79
-24.42
-20.55
-16.86
-13.91
-11.92
-10.78
-10.07
-9.31
-8.10
-6.33
-4.22
-2.21
-0.79
-0.36
-1.00
-2.50
-4.50
-6.48
-7.96
-8.51
-7.84
-5.88
-2.88
0.67
4.15
7.05
9.13
10.50
11.54
12.72
14.41
16.72
19.54
22.62
25.72
28.66
31.29
33.43
34.84
35.29
34.62
32.91
30.45
27.68
25.04
22.80
21.02
19.63
18.47
17.39
16.30
15.12
13.79
12.30
10.66
8.98
7.35
5.83
4.35
2.85
1.29
-0.31
-1.77
-3.01
-3.98
-4.74
-5.27
-5.48
-5.10
-3.78
-1.37
2.09
6.18
10.43
14.40
17.82
20.57
22.50
23.47
23.31
22.01
19.76
17.00
14.16
11.64
9.56
7.85
6.34
4.92
3.65
2.62
1.96
1.68
1.69
1.82
1.91
1.87
1.70
1.48
1.32
1.34
1.59
2.05
2.65
3.25
3.75
4.02
4.08
4.01
3.98
4.13
4.46
4.97
5.55
6.16
6.71
7.06
6.92
5.98
4.09
1.37
-1.56
-3.81
-4.48
-3.05
0.41
5.33
10.93
16.50
21.62
26.22
30.33
33.92
36.85
38.88
39.86
39.84
39.12
38.11
37.21
36.58
36.06
35.32
33.92
31.62
28.39
24.47
20.18
15.75
11.24
6.56
1.62
-3.60
-8.98
-14.30
-19.27
-23.71
-27.48
-30.64
-33.26
-35.41
-37.16
-38.46
-39.25
-39.44
-39.09
-38.30
-37.36
-36.47
-35.79
-35.34
-35.03
-34.78
-34.58
-34.42
-34.30
-34.12
-33.71
-32.85
-31.39
-29.36
-27.02
-24.76
-22.93
-21.71
-21.10
-20.83
-20.60
-20.16
-19.39
-18.35
-17.21
-16.04
-14.85
-13.55
-12.01
-10.16
-8.09
-5.98
-4.05
-2.46
-1.28
-0.52
-0.13
-0.10
-0.46
-1.21
-2.33
-3.74
-5.32
-6.97
-8.62
-10.22
-11.80
-13.38
-14.97
-16.52
-17.96
-19.28
-20.48
-21.62
-22.75
-23.87
-24.94
-25.93
-26.87
-27.92
-29.44
-31.89
-35.66
-40.91
-47.34
-54.32
-60.92
-66.32
-70.05
-72.16
-73.23
-74.02
-75.33
-77.60
-80.80
-84.52
-88.16
-91.20
-93.48
-95.38
-97.70
-101.48
-107.63
-116.62
-128.30
-141.93
-156.08
-168.72
-177.44
-179.88
-174.34
-160.45
-139.25
-112.89
-83.82
-53.97
-24.43
4.31
31.64
56.42
77.06
92.09
100.87
103.92
102.59
98.40
92.38
84.72
74.81
61.74
44.92
24.53
1.69
-21.87
-44.52
-65.36
-84.54
-102.88
-121.08
-138.90
-154.86
-166.58
-171.55
-167.96
-155.08
-133.34
-104.16
-69.73
-32.66
4.43
39.30
70.57
97.73
120.91
140.68
157.76
172.86
186.66
199.70
212.18
223.78
233.75
241.19
245.51
246.65
244.94
240.89
234.94
227.39
218.56
208.86
198.81
188.85
179.25
170.00
161.03
152.26
143.70
135.48
127.69
120.38
113.44
106.65
99.66
92.20
84.09
75.36
66.19
56.86
47.69
38.86
30.53
22.72
15.45
8.77
2.65
-2.93
-8.06
-12.68
-16.70
-19.85
-21.86
-22.62
-22.27
-21.13
-19.61
-18.02
-16.46
-14.93
-13.35
-11.78
-10.39
-9.35
-8.81
-8.71
-8.86
-9.10
-9.36
-9.67
-10.21
-11.06
-12.22
-13.52
-14.69
-15.52
-15.98
-16.24
-16.58
-17.37
-18.73
-20.59
-22.62
-24.35
-25.28
-25.06
-23.60
-21.09
-17.97
-14.76
-11.90
-9.63
-7.93
-6.66
-5.68
-4.99
-4.70
-4.99
-5.86
-7.07
-8.21
-8.68
-8.03
-6.04
-2.82
1.30
5.80
10.21
14.17
17.46
20.04
21.92
23.21
24.02
24.54
24.99
25.58
26.41
27.40
28.30
28.76
28.51
27.47
25.74
23.50
20.92
18.03
14.80
11.17
7.23
3.20
-0.65
-4.11
-7.13
-9.82
-12.32
-14.76
-17.17
-19.53
-21.80
-23.98
-26.11
-28.27
-30.47
-32.68
-34.79
-36.62
-37.96
-38.59
-38.41
-37.49
-36.11
-34.71
-33.77
-33.65
-34.43
-35.88
-37.44
-38.45
-38.27
-36.43
-32.85
-27.85
-22.11
-16.48
-11.69
-8.18
-5.94
-4.55
-3.41
-1.86
0.49
3.67
7.27
10.56
12.67
12.90
10.95
7.06
1.89
-3.67
-8.82
-13.08
-16.25
-18.40
-19.64
-20.13
-20.00
-19.51
-18.99
-18.81
-19.24
-20.32
-21.86
-23.53
-25.07
-26.31
-27.28
-27.92
-28.11
-27.56
-26.08
-23.74
-20.93
-18.25
-16.27
-15.22
-14.98
-15.22
-15.69
-16.36
-17.35
-18.66
-19.88
-20.26
-18.96
-15.56
-10.29
-4.12
1.71
6.18
8.84
9.91
9.94
9.52
8.95
8.30
7.46
6.45
5.41
4.59
4.13
4.00
4.03
3.90
3.38
2.29
0.60
-1.60
-4.14
-6.80
-9.28
-11.32
-12.74
-13.42
-13.40
-12.77
-11.65
-10.22
-8.65
-7.15
-5.92
-5.11
-4.78
-4.94
-5.51
-6.40
-7.56
-8.97
-10.62
-12.38
-14.06
-15.34
-15.88
-15.44
-13.95
-11.55
-8.57
-5.41
-2.48
-0.17
1.26
1.60
0.78
-1.10
-3.71
-6.58
-9.14
-10.84
-11.37
-10.73
-9.18
-7.13
-4.92
-2.73
-0.55
1.71
4.18
6.82
9.56
12.23
14.65
16.79
18.62
20.25
21.74
23.22
24.80
26.57
28.61
30.87
33.36
36.00
38.73
41.45
43.98
46.04
47.27
47.38
46.16
43.70
40.24
36.16
31.82
27.44
23.09
18.73
14.35
9.94
5.64
1.60
-2.01
-5.08
-7.61
-9.67
-11.49
-13.30
-15.35
-17.79
-20.68
-23.91
-27.25
-30.33
-32.73
-33.99
-33.81
-32.12
-29.17
-25.39
-21.38
-17.66
-14.50
-11.94
-9.83
-7.95
-6.18
-4.52
-3.06
-1.90
-1.12
-0.70
-0.59
-0.69
-0.89
-1.13
-1.26
-1.11
-0.53
0.58
2.11
3.77
5.15
5.95
6.08
5.72
5.24
5.03
5.24
5.81
6.46
6.89
7.00
6.81
6.49
6.15
5.80
5.37
4.72
3.75
2.41
0.69
-1.47
-4.01
-6.87
-9.81
-12.51
-14.62
-15.85
-16.12
-15.50
-14.19
-12.40
-10.34
-8.19
-6.11
-4.24
-2.73
-1.66
-1.02
-0.78
-0.91
-1.38
-2.21
-3.37
-4.69
-5.90
-6.63
-6.57
-5.57
-3.70
-1.21
1.62
4.48
7.14
9.38
10.98
11.75
11.54
10.37
8.44
6.15
3.98
2.31
1.37
1.12
1.35
1.76
2.08
2.19
2.10
2.01
2.10
2.49
3.13
3.75
4.01
3.57
2.32
0.36
-1.95
-4.16
-5.88
-6.89
-7.14
-6.71
-5.75
-4.39
-2.76
-0.96
0.80
2.31
3.35
3.79
3.67
3.13
2.38
1.65
1.16
1.07
1.49
2.39
3.67
5.12
6.42
7.32
7.62
7.33
6.59
5.64
4.65
3.80
3.17
2.81
2.72
2.87
3.13
3.33
3.28
2.83
1.94
0.64
-0.92
-2.60
-4.28
-5.89
-7.43
-8.86
-10.23
-11.61
-13.09
-14.72
-16.39
-17.85
-18.74
-18.77
-17.77
-15.88
-13.47
-10.97
-8.75
-6.95
-5.54
-4.36
-3.26
-2.15
-1.05
-0.02
0.88
1.63
2.30
2.93
3.57
4.22
4.80
5.25
5.47
5.44
5.22
4.88
4.49
4.04
3.48
2.73
1.74
0.52
-0.86
-2.27
-3.65
-4.97
-6.30
-7.69
-9.20
-10.83
-12.58
-14.43
-16.38
-18.45
-20.64
-22.96
-25.44
-28.11
-30.96
-33.95
-36.96
-39.70
-41.83
-42.95
-42.75
-41.19
-38.52
-35.27
-32.08
-29.52
-27.85
-26.98
-26.56
-26.14
-25.38
-24.18
-22.62
-20.95
-19.42
-18.25
-17.42
-16.70
-15.49
-12.92
-7.99
-0.05
10.90
23.93
37.34
49.10
57.54
61.80
62.08
59.47
55.32
50.85
46.79
43.27
40.16
37.20
34.30
31.48
28.74
25.96
22.94
19.45
15.41
10.96
6.43
2.11
-1.76
-5.14
-8.12
-10.74
-12.93
-14.49
-15.11
-14.49
-12.46
-9.08
-4.58
0.63
6.02
11.06
15.25
18.21
19.79
20.20
19.91
19.55
19.73
20.76
22.55
24.62
26.37
27.28
27.44
27.34
27.86
29.87
33.92
40.00
47.63
56.09
64.65
73.06
81.27
89.42
97.64
106.06
114.85
124.17
133.93
142.62
147.50
145.07
132.49
109.19
77.35
41.10
5.15
-26.47
-54.34
-78.71
-99.23
-115.08
-125.31
-129.31
-127.32
-120.69
-111.91
-99.56
-84.32
-67.58
-50.80
-35.25
-21.84
-10.99
-2.59
3.80
8.73
12.37
14.72
15.60
14.81
12.20
7.85
2.08
-4.74
-12.27
-20.67
-30.14
-40.74
-52.13
-63.59
-74.25
-83.38
-90.60
-95.64
-98.11
-97.05
-91.19
-79.81
-63.64
-45.18
-28.29
-16.90
-13.57
-18.78
-30.83
-46.69
-63.30
-78.48
-91.35
-102.02
-110.90
-117.99
-122.63
-123.69
-120.18
-111.98
-100.16
-86.81
-74.33
-64.60
-58.47
-55.70
-55.41
-56.41
-57.55
-57.69
-55.71
-50.50
-41.26
-27.76
-10.54
9.07
29.24
48.07
63.97
76.05
84.18
88.79
90.61
90.38
88.81
86.52
84.12
81.96
80.01
77.91
75.04
71.05
66.09
60.76
55.64
50.77
45.35
38.17
28.35
16.12
2.97
-8.92
-17.71
-22.81
-24.99
-25.85
-26.87
-28.60
-30.55
-31.52
-30.41
-26.78
-21.02
-14.26
-7.79
-2.75
0.12
0.49
-1.64
-5.93
-11.67
-17.85
-23.38
-27.34
-29.31
-29.37
-28.00
-25.67
-22.59
-18.63
-13.46
-6.82
1.28
10.43
20.03
29.39
37.87
44.97
50.31
53.62
54.77
53.78
50.76
45.95
39.74
32.63
25.19
18.00
11.59
6.38
2.68
0.58
0.01
0.74
2.30
4.08
5.37
5.43
3.72
0.04
-5.29
-11.45
-17.25
-21.52
-23.44
-22.77
-19.97
-15.85
-11.34
-7.11
-3.41
-0.18
2.80
5.68
8.48
11.01
13.05
14.35
14.88
14.70
14.09
13.33
12.73
12.50
12.76
13.59
14.99
16.88
19.07
21.18
22.74
23.33
22.71
20.96
18.50
15.89
13.70
12.26
11.55
11.30
11.04
10.29
8.70
6.15
2.76
-1.10
-4.94
-8.24
-10.63
-11.98
-12.45
-12.40
-12.29
-12.50
-13.04
-13.65
-13.84
-13.10
-11.19
-8.23
-4.67
-1.08
2.05
4.51
6.34
7.73
8.96
10.17
11.42
12.66
13.83
14.85
15.79
16.66
17.52
18.33
18.90
19.05
18.63
17.70
16.52
15.43
14.65
14.20
13.85
13.24
12.15
10.49
8.37
5.95
3.28
0.30
-3.11
-6.94
-11.06
-15.08
-18.58
-21.16
-22.66
-23.17
-22.98
-22.50
-22.08
-21.96
-22.18
-22.69
-23.35
-23.94
-24.15
-23.57
-21.76
-18.33
-13.10
-6.28
1.59
9.64
17.05
23.12
27.52
30.22
31.36
31.22
30.09
28.31
26.23
24.26
22.70
21.79
21.57
21.92
22.67
23.62
24.63
25.58
26.40
26.98
27.26
27.19
26.76
26.02
25.00
23.70
22.11
20.29
18.36
16.53
15.01
13.93
13.27
12.88
12.54
12.06
11.36
10.44
9.29
7.86
5.98
3.48
0.28
-3.47
-7.39
-10.94
-13.55
-14.81
-14.57
-12.97
-10.40
-7.35
-4.28
-1.47
0.96
3.02
4.79
6.34
7.72
8.93
9.99
10.97
11.90
12.77
13.48
13.92
14.09
14.07
14.05
14.21
14.59
15.14
15.68
16.08
16.29
16.38
16.44
16.50
16.50
16.31
15.86
15.20
14.53
14.12
14.13
14.59
15.35
16.16
16.77
17.05
17.07
17.04
17.17
17.60
18.28
19.02
19.62
19.93
20.09
20.46
21.57
23.91
27.67
32.68
38.47
44.48
50.34
55.99
61.63
67.40
73.30
79.03
84.38
89.54
95.28
102.55
111.70
121.87
130.90
136.04
135.01
126.86
112.18
92.51
69.59
44.77
19.06
-6.76
-31.93
-56.13
-80.02
-105.18
-133.31
-165.10
-199.55
-233.70
-263.36
-284.16
-292.50
-286.56
-267.34
-238.92
-207.80
-180.85
-162.38
-151.82
-143.52
-129.56
-104.10
-66.64
-22.12
22.17
60.68
91.87
117.25
138.38
154.66
163.52
162.90
153.71
140.23
128.54
123.08
124.34
129.00
131.96
128.54
115.78
92.36
58.20
15.18
-32.15
-76.50
-109.36
-123.32
-114.71
-84.40
-36.63
22.63
87.47
151.81
208.62
249.94
269.03
262.56
232.76
187.20
135.56
86.97
46.25
12.84
-17.28
-48.17
-82.63
-121.41
-163.20
-206.05
-244.51
-270.96
-278.44
-263.78
-229.04
-183.50
-140.36
-111.17
-102.31
-108.43
-116.67
-113.70
-91.59
-48.61
10.15
77.28
146.60
212.13
272.84
328.86
378.77
403.83
388.94
327.52
226.88
121.86
27.93
-48.64
-105.85
-147.16
-171.99
-176.82
-160.91
-127.17
-83.26
-42.53
-15.71
-9.12
-23.30
-53.19
-88.92
-121.03
-141.15
-144.28
-131.73
-107.35
-81.57
-65.36
-66.63
-78.37
-93.81
-106.57
-115.57
-121.39
-124.40
-124.96
-122.43
-115.27
-101.65
-82.02
-57.35
-28.92
1.74
33.69
65.91
97.22
125.84
149.64
165.91
173.72
174.15
169.68
162.69
154.47
145.30
135.02
123.58
110.63
96.22
80.67
64.81
49.71
36.92
28.25
25.11
27.96
35.94
47.81
62.48
79.45
98.14
117.24
134.61
147.62
154.19
153.63
147.15
137.36
127.12
118.21
110.67
102.74
91.75
75.34
52.65
24.76
-5.92
-36.94
-66.99
-96.15
-125.16
-154.31
-182.69
-208.55
-230.52
-249.05
-266.64
-286.29
-309.10
-332.30
-349.36
-352.06
-334.23
-294.59
-237.49
-171.04
-104.01
-43.50
6.08
42.54
64.83
72.33
65.11
44.80
15.06
-18.78
-51.22
-78.13
-97.51
-109.34
-114.76
-115.32
-112.50
-107.79
-102.77
-98.95
-97.07
-96.61
-95.66
-91.51
-81.96
-66.45
-46.56
-25.19
-5.20
11.88
25.88
37.32
46.68
53.85
58.36
60.08
59.68
58.50
57.90
58.57
60.20
61.77
62.20
60.87
57.82
53.55
48.52
42.96
36.89
30.56
24.79
20.86
20.03
22.73
28.03
33.96
38.31
39.71
38.21
35.05
31.84
29.56
28.24
27.24
25.94
24.31
22.92
22.47
23.26
24.95
26.72
27.71
27.45
25.87
23.26
20.12
17.01
14.59
13.42
13.92
16.09
19.55
23.71
27.95
31.87
35.23
38.00
40.17
41.80
43.00
43.97
45.08
46.77
49.46
53.23
57.77
62.37
66.25
68.90
70.40
71.50
73.25
76.54
81.58
87.84
94.23
99.60
103.15
104.58
104.15
102.34
99.79
97.11
94.77
92.93
91.27
88.95
84.60
76.88
65.01
49.49
31.91
14.27
-2.24
-18.26
-36.40
-60.09
-91.47
-129.45
-169.17
-203.56
-226.05
-233.14
-225.31
-206.04
-179.91
-150.91
-121.98
-95.57
-73.92
-58.41
-48.38
-40.55
-29.96
-12.60
12.18
41.07
68.66
90.76
106.66
118.70
129.66
140.20
147.49
146.83
134.84
112.16
84.04
58.20
41.35
36.31
41.53
52.41
63.56
70.69
70.92
62.24
42.47
9.72
-36.21
-92.01
-150.06
-199.56
-230.09
-235.79
-217.86
-184.40
-147.22
-117.34
-101.74
-101.91
-114.51
-133.67
-153.56
-169.95
-180.82
-185.96
-185.78
-180.45
-169.49
-152.11
-128.01
-98.60
-67.00
-37.29
-13.10
3.96
14.18
18.60
17.89
11.93
0.85
-13.39
-26.31
-32.05
-26.01
-7.42
19.94
49.53
74.88
92.42
102.10
105.65
104.45
98.83
89.11
77.49
68.50
66.68
73.21
83.70
89.44
81.58
56.27
16.86
-27.67
-67.39
-96.02
-112.37
-118.50
-116.86
-108.59
-94.05
-74.89
-54.76
-37.74
-25.67
-16.67
-6.09
10.24
33.16
59.25
82.67
98.40
104.68
103.13
97.41
91.08
86.19
83.01
80.58
77.48
72.41
64.78
54.95
44.17
33.87
24.73
16.23
6.80
-5.07
-19.86
-36.45
-52.90
-67.53
-80.18
-92.49
-106.94
-125.40
-148.06
-173.02
-197.07
-216.82
-229.81
-234.92
-232.30
-222.62
-206.48
-184.05
-155.40
-121.06
-82.58
-42.43
-3.40
32.18
63.07
89.28
111.76
131.76
150.09
166.74
180.87
191.14
196.25
195.51
189.05
177.84
163.43
147.56
131.74
117.01
103.93
92.75
83.83
77.65
74.90
76.09
81.14
89.14
98.41
106.98
113.15
116.08
115.90
113.41
109.63
105.26
100.56
95.47
89.83
83.68
77.29
71.08
65.40
60.34
55.70
51.20
46.67
42.23
38.29
35.40
33.94
33.90
34.84
35.99
36.58
36.12
34.56
32.27
29.80
27.52
25.47
23.36
20.80
17.56
13.73
9.72
6.01
2.90
0.43
-1.62
-3.51
-5.40
-7.25
-8.97
-10.47
-11.81
-13.14
-14.56
-16.09
-17.65
-19.15
-20.53
-21.91
-23.44
-25.29
-27.44
-29.72
-31.89
-33.68
-34.90
-35.47
-35.36
-34.61
-33.30
-31.58
-29.64
-27.80
-26.33
-25.41
-25.07
-25.14
-25.38
-25.57
-25.67
-25.77
-26.03
-26.51
-27.15
-27.72
-27.99
-27.83
-27.27
-26.47
-25.57
-24.69
-23.84
-23.02
-22.26
-21.61
-21.15
-20.96
-21.03
-21.34
-21.82
-22.41
-23.10
-23.92
-24.86
-25.87
-26.90
-27.91
-28.90
-29.94
-31.11
-32.42
-33.84
-35.27
-36.64
-37.92
-39.17
-40.46
-41.77
-42.96
-43.80
-44.16
-44.03
-43.61
-43.12
-42.65
-42.08
-41.11
-39.40
-36.79
-33.33
-29.23
-24.74
-20.01
-15.05
-9.89
-4.64
0.41
4.88
8.38
10.72
11.88
12.06
11.47
10.27
8.57
6.40
3.88
1.24
-1.22
-3.13
-4.24
-4.44
-3.79
-2.45
-0.54
1.86
4.76
8.16
11.96
15.91
19.62
22.70
24.86
26.05
26.44
26.34
26.12
26.08
26.36
27.00
27.95
29.11
30.35
31.51
32.43
32.95
32.93
32.33
31.14
29.39
27.11
24.30
20.94
17.09
12.87
8.46
4.16
0.30
-2.76
-4.80
-5.77
-5.82
-5.23
-4.33
-3.39
-2.55
-1.81
-1.16
-0.58
-0.07
0.32
0.66
0.95
1.21
1.41
1.43
1.20
0.68
-0.06
-0.89
-1.64
-2.20
-2.51
-2.65
-2.78
-3.11
-3.78
-4.86
-6.28
-7.84
-9.33
-10.58
-11.49
-12.01
-12.11
-11.68
-10.64
-9.03
-7.08
-5.18
-3.72
-2.99
-3.03
-3.64
-4.47
-5.22
-5.73
-6.03
-6.25
-6.50
-6.84
-7.25
-7.65
-7.95
-8.11
-8.12
-8.03
-7.91
-7.81
-7.72
-7.68
-7.73
-7.92
-8.25
-8.66
-9.01
-9.21
-9.26
-9.26
-9.39
-9.77
-10.39
-11.03
-11.42
-11.27
-10.49
-9.18
-7.56
-5.91
-4.44
-3.21
-2.25
-1.53
-1.08
-1.01
-1.44
-2.36
-3.65
-5.01
-6.11
-6.69
-6.62
-5.89
-4.65
-3.05
-1.22
0.75
2.77
4.76
6.54
7.92
8.78
9.03
8.76
8.15
7.47
6.92
6.60
6.49
6.51
6.57
6.60
6.58
6.54
6.45
6.30
6.07
5.74
5.29
4.73
4.10
3.46
2.95
2.64
2.58
2.73
2.93
3.05
2.95
2.63
2.16
1.68
1.30
1.05
0.85
0.56
0.04
-0.79
-1.95
-3.41
-5.05
-6.74
-8.31
-9.59
-10.52
-11.06
-11.30
-11.43
-11.66
-12.09
-12.68
-13.19
-13.30
-12.76
-11.48
-9.60
-7.38
-5.12
-3.03
-1.23
0.26
1.43
2.31
2.90
3.27
3.49
3.61
3.59
3.33
2.76
1.88
0.85
-0.07
-0.61
-0.60
-0.04
0.93
2.11
3.31
4.40
5.34
6.09
6.63
6.88
6.82
6.47
5.93
5.39
5.05
5.10
5.56
6.39
7.44
8.55
9.54
10.24
10.49
10.19
9.27
7.74
5.77
3.60
1.53
-0.17
-1.35
-2.04
-2.41
-2.67
-2.93
-3.15
-3.10
-2.52
-1.20
0.83
3.35
5.99
8.38
10.32
11.75
12.79
13.50
13.93
14.00
13.63
12.81
11.65
10.34
9.08
8.00
7.07
6.16
5.09
3.84
2.50
1.26
0.26
-0.49
-1.10
-1.73
-2.48
-3.33
-4.15
-4.72
-4.94
-4.78
-4.40
-4.04
-3.93
-4.19
-4.83
-5.68
-6.58
-7.45
-8.32
-9.35
-10.69
-12.37
-14.22
-15.94
-17.24
-17.96
-18.17
-18.11
-18.14
-18.50
-19.29
-20.45
-21.83
-23.22
-24.50
-25.56
-26.21
-26.26
-25.48
-23.74
-21.14
-18.01
-14.79
-11.88
-9.45
-7.42
-5.60
-3.86
-2.23
-0.88
0.02
0.40
0.43
0.35
0.49
0.97
1.76
2.74
3.71
4.52
5.10
5.44
5.59
5.64
5.63
5.52
5.30
4.91
4.36
3.73
3.10
2.57
2.16
1.85
1.55
1.18
0.69
0.08
-0.55
-1.13
-1.63
-2.07
-2.55
-3.18
-4.00
-4.98
-5.99
-6.91
-7.75
-8.60
-9.61
-10.87
-12.37
-13.92
-15.26
-16.12
-16.29
-15.67
-14.26
-12.10
-9.32
-6.10
-2.64
0.80
3.99
6.68
8.65
9.76
10.00
9.47
8.41
7.11
5.85
4.74
3.83
3.02
2.28
1.55
0.90
0.42
0.14
0.07
0.14
0.34
0.67
1.11
1.61
2.06
2.35
2.37
2.07
1.51
0.85
0.23
-0.25
-0.55
-0.70
-0.76
-0.80
-0.94
-1.27
-1.87
-2.76
-3.92
-5.25
-6.59
-7.80
-8.76
-9.49
-10.14
-10.92
-12.01
-13.45
-15.06
-16.51
-17.37
-17.33
-16.25
-14.25
-11.60
-8.61
-5.59
-2.75
-0.25
1.81
3.35
4.40
5.02
5.30
5.35
5.27
5.14
5.06
5.10
5.31
5.76
6.47
7.46
8.66
9.93
11.09
11.92
12.27
12.10
11.49
10.64
9.72
8.91
8.23
7.65
7.08
6.41
5.55
4.48
3.21
1.79
0.31
-1.13
-2.47
-3.62
-4.58
-5.33
-5.90
-6.31
-6.71
-7.21
-7.95
-8.97
-10.20
-11.58
-13.05
-14.57
-16.10
-17.52
-18.54
-18.80
-17.97
-15.90
-12.77
-8.97
-4.97
-1.23
2.04
4.72
6.84
8.39
9.40
9.89
9.95
9.76
9.55
9.49
9.65
9.97
10.31
10.56
10.69
10.74
10.80
10.90
11.01
11.03
10.90
10.62
10.23
9.79
9.32
8.79
8.19
7.51
6.80
6.12
5.54
5.05
4.57
3.94
3.00
1.64
-0.08
-2.02
-4.00
-5.85
-7.46
-8.85
-10.07
-11.21
-12.33
-13.49
-14.79
-16.38
-18.32
-20.51
-22.60
-24.07
-24.40
-23.33
-20.92
-17.50
-13.54
-9.40
-5.30
-1.30
2.54
6.09
9.09
11.32
12.65
13.15
13.01
12.48
11.80
11.16
10.67
10.40
10.42
10.71
11.20
11.79
12.36
12.87
13.36
13.90
14.51
15.13
15.55
15.54
14.97
13.85
12.36
10.77
9.33
8.13
7.13
6.14
5.00
3.64
2.12
0.57
-0.88
-2.17
-3.33
-4.44
-5.56
-6.64
-7.65
-8.57
-9.44
-10.42
-11.62
-13.06
-14.56
-15.85
-16.61
-16.59
-15.71
-14.01
-11.59
-8.61
-5.21
-1.65
1.77
4.73
7.01
8.53
9.36
9.68
9.67
9.44
9.01
8.37
7.55
6.66
5.84
5.25
4.99
5.08
5.43
5.93
6.49
6.99
7.33
7.44
7.28
6.88
6.30
5.67
5.08
4.60
4.18
3.71
3.12
2.41
1.65
0.91
0.26
-0.39
-1.15
-2.17
-3.50
-5.02
-6.51
-7.76
-8.68
-9.33
-9.87
-10.45
-11.20
-12.12
-13.17
-14.28
-15.31
-16.05
-16.26
-15.70
-14.22
-11.90
-8.98
-5.84
-2.87
-0.32
1.72
3.24
4.31
5.01
5.40
5.55
5.57
5.53
5.53
5.58
5.71
5.91
6.17
6.49
6.85
7.22
7.52
7.69
7.69
7.54
7.28
6.99
6.73
6.58
6.56
6.66
6.82
6.96
7.00
6.85
6.55
6.16
5.82
5.63
5.60
5.63
5.50
5.00
4.01
2.55
0.77
-1.19
-3.19
-5.19
-7.19
-9.24
-11.36
-13.54
-15.72
-17.85
-19.82
-21.42
-22.37
-22.31
-20.91
-18.05
-13.86
-8.71
-3.20
2.07
6.57
9.95
12.13
13.24
13.51
13.22
12.62
11.90
11.18
10.60
10.21
10.04
10.07
10.23
10.46
10.67
10.87
11.13
11.55
12.12
12.77
13.29
13.50
13.25
12.52
11.40
10.10
8.82
7.68
6.72
5.84
4.91
3.83
2.60
1.30
0.05
-1.00
-1.79
-2.34
-2.79
-3.32
-4.08
-5.13
-6.44
-7.91
-9.39
-10.81
-12.19
-13.67
-15.39
-17.43
-19.72
-22.03
-23.99
-25.20
-25.30
-24.06
-21.43
-17.54
-12.68
-7.26
-1.76
3.34
7.65
10.89
12.98
13.97
14.04
13.45
12.48
11.41
10.46
9.79
9.47
9.50
9.82
10.38
11.11
11.99
12.92
13.76
14.32
14.40
13.93
12.93
11.58
10.13
8.77
7.60
6.59
5.67
4.76
3.87
3.02
2.26
1.60
1.01
0.42
-0.21
-0.91
-1.70
-2.54
-3.42
-4.34
-5.27
-6.23
-7.30
-8.56
-10.10
-11.98
-14.11
-16.35
-18.53
-20.42
-21.82
-22.53
-22.29
-20.86
-18.12
-14.16
-9.36
-4.25
0.55
4.65
7.84
10.15
11.75
12.77
13.28
13.34
13.04
12.56
12.08
11.77
11.70
11.81
11.97
12.02
11.90
11.62
11.27
10.94
10.63
10.31
9.82
9.11
8.14
7.02
5.90
4.89
4.04
3.30
2.60
1.85
1.04
0.16
-0.77
-1.82
-3.00
-4.33
-5.76
-7.22
-8.64
-10.00
-11.31
-12.59
-13.84
-15.03
-16.15
-17.24
-18.36
-19.60
-21.01
-22.49
-23.85
-24.72
-24.76
-23.59
-21.08
-17.31
-12.64
-7.64
-2.87
1.18
4.34
6.59
8.13
9.19
9.91
10.36
10.58
10.59
10.44
10.29
10.20
10.31
10.65
11.20
11.95
12.81
13.67
14.41
14.85
14.88
14.48
13.70
12.62
11.36
9.95
8.42
6.79
5.10
3.43
1.92
0.66
-0.35
-1.10
-1.74
-2.35
-2.99
-3.70
-4.48
-5.30
-6.15
-7.06
-8.03
-9.11
-10.31
-11.65
-13.11
-14.72
-16.45
-18.31
-20.18
-21.82
-22.92
-23.12
-22.13
-19.85
-16.40
-12.07
-7.31
-2.56
1.80
5.48
8.29
10.23
11.41
12.05
12.40
12.67
12.94
13.19
13.34
13.29
12.98
12.43
11.69
10.92
10.26
9.84
9.73
9.93
10.33
10.74
11.02
11.01
10.70
10.12
9.43
8.75
8.20
7.81
7.52
7.28
6.96
6.57
6.09
5.53
4.91
4.17
3.24
2.06
0.63
-0.99
-2.71
-4.47
-6.29
-8.24
-10.35
-12.64
-14.99
-17.31
-19.50
-21.43
-22.98
-23.96
-24.10
-23.20
-21.17
-18.14
-14.39
-10.30
-6.17
-2.27
1.27
4.34
6.83
8.66
9.79
10.32
10.45
10.44
10.44
10.56
10.79
11.12
11.59
12.27
13.24
14.47
15.81
16.95
17.60
17.58
16.90
15.79
14.54
13.36
12.35
11.44
10.47
9.32
7.97
6.55
5.30
4.34
3.67
3.14
2.47
1.43
-0.02
-1.80
-3.65
-5.37
-6.90
-8.28
-9.61
-10.98
-12.35
-13.70
-15.12
-16.78
-18.92
-21.63
-24.76
-27.83
-30.20
-31.24
-30.56
-28.12
-24.25
-19.49
-14.48
-9.75
-5.66
-2.38
0.11
1.92
3.18
4.04
4.66
5.18
5.70
6.29
6.96
7.67
8.40
9.07
9.72
10.39
11.16
12.07
13.12
14.25
15.30
16.07
16.37
16.08
15.21
13.90
12.36
10.84
9.47
8.32
7.32
6.38
5.43
4.50
3.67
3.02
2.56
2.22
1.87
1.31
0.42
-0.86
-2.47
-4.34
-6.37
-8.52
-10.77
-13.06
-15.35
-17.57
-19.69
-21.73
-23.67
-25.40
-26.68
-27.13
-26.36
-24.15
-20.60
-16.06
-11.15
-6.45
-2.38
0.93
3.57
5.72
7.51
8.97
10.04
10.70
10.96
10.99
10.95
10.95
11.05
11.22
11.47
11.87
12.53
13.55
14.98
16.71
18.52
20.16
21.39
22.08
22.18
21.76
20.94
19.87
18.65
17.33
15.90
14.31
12.55
10.68
8.83
7.17
5.82
4.82
4.09
3.49
2.84
2.06
1.04
-0.19
-1.64
-3.25
-4.90
-6.48
-7.89
-9.12
-10.24
-11.46
-12.99
-14.96
-17.29
-19.64
-21.59
-22.63
-22.44
-20.90
-18.12
-14.44
-10.32
-6.21
-2.48
0.64
3.09
4.91
6.22
7.16
7.82
8.31
8.73
9.18
9.74
10.40
11.10
11.70
12.08
12.19
12.13
12.06
12.16
12.48
12.98
13.51
13.87
13.98
13.78
13.34
12.70
11.84
10.71
9.26
7.53
5.61
3.66
1.78
0.04
-1.54
-2.99
-4.30
-5.48
-6.59
-7.70
-8.90
-10.24
-11.68
-13.06
-14.26
-15.20
-16.02
-16.96
-18.31
-20.19
-22.50
-24.89
-26.85
-27.89
-27.69
-26.16
-23.48
-19.99
-16.09
-12.20
-8.61
-5.60
-3.31
-1.79
-1.02
-0.89
-1.27
-2.02
-3.01
-4.15
-5.36
-6.62
-7.85
-9.04
-10.18
-11.34
-12.60
-14.01
-15.54
-17.09
-18.45
-19.41
-19.85
-19.86
-19.71
-19.77
-20.34
-21.49
-23.03
-24.60
-25.75
-26.20
-25.87
-24.88
-23.42
-21.63
-19.54
-17.06
-14.07
-10.49
-6.38
-1.87
2.76
7.17
11.04
14.16
16.46
18.07
19.22
20.10
20.77
21.03
20.52
18.85
15.82
11.52
6.33
0.80
-4.51
-9.19
-12.99
-15.97
-18.47
-21.00
-24.15
-28.32
-33.47
-39.00
-43.82
-46.68
-46.70
-43.66
-38.24
-31.69
-25.32
-19.90
-15.18
-9.94
-2.38
9.07
24.99
44.55
65.54
85.01
100.06
108.73
110.54
106.60
99.20
91.20
85.15
82.61
83.81
87.72
92.43
95.85
96.24
92.58
84.72
73.25
59.28
44.21
29.46
16.32
5.73
-1.83
-6.40
-8.48
-8.81
-8.25
-7.52
-7.08
-7.13
-7.59
-8.30
-9.06
-9.83
-10.62
-11.51
-12.51
-13.60
-14.64
-15.48
-15.97
-16.01
-15.64
-15.05
-14.60
-14.77
-16.06
-18.82
-23.13
-28.70
-34.93
-41.12
-46.60
-50.99
-54.16
-56.28
-57.71
-58.90
-60.28
-62.22
-64.90
-68.09
-71.13
-72.96
-72.30
-68.07
-59.78
-47.77
-33.20
-17.69
-2.78
10.54
22.10
32.24
41.35
49.42
55.79
59.48
59.72
56.55
50.98
44.72
39.65
37.14
37.76
41.22
46.66
52.93
58.79
63.02
64.63
62.95
57.84
49.75
39.69
29.00
19.11
11.23
6.14
4.01
4.47
6.77
9.98
13.25
15.95
17.75
18.55
18.33
17.15
15.12
12.44
9.43
6.45
3.81
1.64
-0.11
-1.59
-2.94
-4.13
-5.01
-5.32
-4.89
-3.72
-2.03
-0.21
1.34
2.34
2.69
2.48
1.79
0.68
-0.93
-3.15
-6.03
-9.47
-13.28
-17.16
-20.90
-24.37
-27.53
-30.34
-32.75
-34.65
-35.93
-36.59
-36.68
-36.37
-35.86
-35.34
-34.95
-34.76
-34.75
-34.84
-34.86
-34.57
-33.69
-31.92
-28.98
-24.70
-19.11
-12.53
-5.54
1.15
6.97
11.58
14.98
17.40
19.09
20.11
20.38
19.72
18.10
15.70
12.93
10.28
8.14
6.65
5.75
5.23
4.88
4.57
4.32
4.21
4.31
4.61
5.00
5.28
5.36
5.15
4.72
4.18
3.59
2.97
2.23
1.27
-0.04
-1.68
-3.60
-5.68
-7.78
-9.78
-11.63
-13.35
-14.96
-16.53
-17.99
-19.29
-20.35
-21.15
-21.75
-22.31
-23.01
-24.02
-25.36
-26.86
-28.21
-28.93
-28.60
-26.99
-24.09
-20.20
-15.74
-11.17
-6.82
-2.86
0.64
3.68
6.20
8.11
9.37
9.96
9.98
9.64
9.17
8.80
8.67
8.83
9.23
9.84
10.59
11.43
12.35
13.33
14.29
15.13
15.75
16.13
16.25
16.17
15.90
15.50
14.96
14.29
13.55
12.77
11.96
11.09
10.10
8.93
7.50
5.66
3.30
0.39
-2.96
-6.54
-9.99
-12.94
-15.10
-16.30
-16.68
-16.49
-15.95
-15.08
-13.57
-10.71
-5.59
2.67
14.69
30.39
49.06
69.61
90.77
111.43
130.69
147.88
162.41
173.72
180.77
182.52
178.39
168.62
154.30
137.18
119.27
102.47
88.36
77.14
68.26
60.98
54.94
50.22
47.26
46.46
48.08
52.08
56.61
58.95
56.35
46.64
28.26
0.24
-37.78
-85.12
-139.56
-199.34
-262.60
-326.96
-389.64
-448.17
-500.63
-546.01
-583.93
-600.53
-584.27
-529.70
-440.52
-328.73
-209.95
-97.08
2.38
85.83
150.60
198.83
231.37
247.93
248.65
234.09
205.91
166.31
117.77
64.34
9.24
-45.25
-96.79
-137.43
-159.61
-158.28
-133.69
-90.84
-37.13
19.19
70.97
113.65
145.62
166.84
178.69
182.75
181.48
178.01
174.82
173.18
173.48
175.51
177.97
179.32
177.79
171.73
160.51
144.06
122.36
95.46
63.70
27.26
-12.98
-56.85
-102.46
-146.63
-185.84
-217.19
-238.80
-249.98
-251.39
-235.54
-203.71
-160.32
-110.68
-59.80
-11.68
30.81
66.01
93.17
112.90
125.50
132.89
137.63
141.73
146.04
149.96
152.99
152.89
148.11
137.19
120.45
99.09
74.33
46.79
16.53
-15.22
-47.27
-78.60
-109.15
-138.37
-164.47
-184.04
-192.39
-185.14
-160.49
-121.46
-75.20
-31.20
2.68
22.83
30.52
30.08
26.34
22.43
18.86
15.00
10.25
5.07
0.70
-1.77
-2.27
-1.68
-1.28
-2.46
-5.55
-10.08
-15.09
-19.68
-23.25
-25.89
-27.98
-29.98
-32.56
-35.98
-40.44
-46.14
-53.05
-60.67
-68.15
-74.09
-76.77
-75.47
-69.41
-58.94
-45.44
-30.42
-14.52
2.25
20.55
41.32
64.61
89.54
114.77
138.78
159.09
174.20
181.88
179.91
168.75
149.49
126.72
106.77
94.37
90.10
89.59
85.29
70.65
43.80
8.60
-27.09
-54.17
-67.87
-68.79
-61.24
-50.08
-38.19
-26.07
-13.07
1.56
16.92
30.35
39.30
42.82
41.56
37.74
32.95
27.56
20.77
10.69
-4.81
-26.58
-53.67
-83.08
-110.87
-133.42
-148.32
-154.69
-153.11
-144.94
-130.38
-111.29
-88.79
-63.97
-38.47
-14.35
6.16
21.29
30.43
34.46
35.17
35.02
36.01
38.84
43.12
47.64
50.81
50.94
46.89
37.36
22.75
5.48
-10.46
-20.82
-23.18
-18.45
-10.82
-5.88
-7.69
-16.72
-29.75
-41.52
-47.33
-44.90
-34.66
-18.63
0.86
22.12
44.03
65.38
84.27
98.17
104.82
102.86
92.74
76.35
56.50
36.18
17.76
2.46
-9.62
-18.93
-26.14
-31.67
-35.70
-38.26
-39.97
-41.25
-42.98
-46.27
-51.82
-59.89
-70.10
-81.48
-92.64
-102.37
-109.72
-114.28
-116.07
-115.16
-111.90
-106.88
-100.68
-93.93
-87.40
-81.72
-77.53
-75.48
-75.59
-77.77
-81.85
-87.50
-94.36
-102.07
-110.29
-118.77
-127.43
-135.66
-143.01
-149.13
-153.62
-156.02
-155.83
-152.29
-144.30
-134.06
-122.44
-110.26
-98.31
-87.22
-77.56
-69.80
-64.23
-61.09
-60.47
-61.83
-64.73
-68.71
-73.31
-78.11
-82.74
-86.91
-90.42
-93.22
-94.86
-95.13
-93.84
-90.95
-86.47
-80.55
-73.41
-65.40
-57.00
-48.50
-40.27
-32.69
-26.11
-20.78
-16.83
-14.28
-13.02
-12.89
-13.53
-14.54
-15.58
-16.31
-16.50
-15.97
-14.69
-12.70
-10.15
-7.23
-4.07
-0.82
2.48
5.82
9.26
12.83
16.56
20.44
24.40
28.37
32.32
36.23
40.14
44.07
47.97
51.73
55.15
57.97
59.98
61.03
61.16
60.50
59.26
57.60
55.59
53.22
50.45
47.38
44.32
41.89
40.75
41.50
44.37
49.13
55.09
61.35
67.24
72.55
77.70
83.55
91.06
100.82
112.86
126.62
141.34
156.37
171.55
187.26
204.14
222.98
244.47
269.09
296.81
326.60
356.10
381.60
398.91
404.58
397.32
378.41
351.34
320.33
288.86
258.76
230.25
202.83
176.27
151.11
128.45
109.35
94.21
82.57
73.34
65.30
57.67
50.36
43.94
39.16
36.52
35.96
36.81
38.11
39.06
39.48
39.77
40.67
42.60
45.36
47.94
48.85
46.90
41.67
33.92
25.30
17.59
12.04
8.71
6.60
4.22
0.43
-5.09
-11.70
-18.31
-23.94
-28.17
-31.22
-33.54
-35.34
-36.27
-35.72
-33.20
-28.71
-22.98
-17.05
-11.89
-7.95
-5.15
-3.07
-1.50
-0.62
-1.03
-3.50
-8.44
-15.73
-24.65
-34.19
-43.26
-50.84
-56.02
-58.00
-56.27
-50.78
-42.29
-32.30
-22.66
-14.99
-10.10
-7.82
-7.09
-6.73
-5.77
-4.11
-2.48
-2.19
-4.77
-11.37
-22.11
-35.82
-50.16
-62.30
-69.81
-71.34
-66.82
-57.25
-44.31
-29.79
-15.30
-2.34
7.85
14.47
17.46
17.76
16.87
16.34
17.16
19.45
22.67
26.03
28.91
30.99
32.66
34.26
36.04
38.02
39.99
41.71
42.93
43.37
42.83
42.36
42.96
45.26
49.26
54.74
61.63
70.40
81.89
96.83
117.62
145.00
177.48
211.80
244.30
272.52
296.01
315.68
332.92
352.43
377.25
407.80
441.99
476.37
507.75
534.21
555.21
571.26
588.28
610.44
637.83
665.37
684.31
685.88
665.04
622.23
531.70
384.97
189.32
-32.51
-251.10
-442.36
-593.86
-703.65
-776.05
-818.00
-832.26
-822.85
-795.31
-756.70
-714.15
-673.02
-635.84
-603.03
-574.08
-544.60
-511.78
-475.07
-436.26
-398.44
-364.19
-334.75
-309.96
-289.09
-268.97
-247.34
-223.43
-198.01
-172.70
-149.00
-127.53
-108.29
-91.07
-74.62
-58.22
-42.04
-26.92
-14.07
-4.43
1.79
5.07
6.23
6.55
7.18
8.69
11.27
14.54
17.82
20.46
21.97
22.03
20.54
17.75
14.03
10.08
6.66
4.26
3.46
4.56
7.69
12.74
19.38
27.12
35.46
43.88
51.71
58.69
64.70
69.86
74.56
79.37
84.92
91.98
101.25
113.20
128.38
146.86
168.31
191.95
216.61
240.54
261.70
279.32
291.60
297.21
295.45
286.54
271.80
253.41
233.86
215.66
200.62
189.32
181.38
175.32
168.80
159.24
144.35
122.61
93.73
58.66
19.24
-21.89
-61.88
-97.96
-128.07
-151.06
-166.73
-175.84
-180.02
-181.61
-182.96
-186.13
-192.24
-201.19
-211.76
-221.51
-227.41
-226.74
-217.80
-200.05
-174.25
-142.05
-105.28
-65.76
-24.84
16.27
56.27
93.38
125.61
150.98
168.03
176.03
174.67
164.17
145.14
119.51
90.75
63.76
43.39
32.64
31.02
34.76
38.83
39.27
35.01
27.61
19.40
11.29
2.10
-10.60
-28.56
-51.05
-74.93
-96.03
-111.15
-119.30
-121.88
-121.51
-120.76
-121.22
-123.17
-126.33
-130.00
-133.39
-135.70
-136.43
-135.54
-133.27
-129.95
-125.77
-121.15
-116.49
-112.10
-108.06
-104.10
-99.77
-94.89
-89.90
-85.84
-84.36
-87.08
-94.84
-107.32
-122.59
-137.35
-147.79
-150.47
-143.54
-127.78
-106.61
-84.94
-67.51
-56.80
-52.33
-51.63
-51.86
-51.17
-49.42
-47.55
-46.53
-47.00
-49.14
-52.91
-58.60
-66.52
-76.97
-89.91
-104.33
-118.41
-130.20
-138.67
-144.34
-149.50
-157.19
-169.65
-186.51
-203.89
-215.81
-216.58
-203.60
-178.45
-146.04
-111.78
-78.91
-47.63
-16.14
16.48
48.25
74.42
89.72
91.09
80.06
61.84
42.67
26.68
14.08
2.63
-10.12
-24.46
-38.21
-47.74
-50.17
-45.04
-34.31
-21.01
-7.28
6.03
19.31
33.04
46.95
59.87
70.31
76.81
78.61
75.49
67.35
53.47
32.42
2.71
-35.81
-80.66
-126.53
-166.40
-193.46
-203.16
-194.38
-169.62
-134.09
-94.29
-56.29
-24.32
0.01
17.92
32.49
47.28
64.57
84.67
105.67
124.14
135.88
136.97
124.60
98.02
60.65
20.20
-12.88
-29.68
-26.91
-8.61
16.27
38.65
53.81
62.93
70.02
77.70
84.00
83.94
73.40
53.17
29.92
12.59
7.06
12.03
19.56
19.19
3.95
-25.70
-62.07
-93.28
-108.90
-104.23
-82.47
-52.87
-26.20
-10.24
-6.55
-10.94
-16.19
-16.59
-10.93
-2.75
2.58
1.23
-6.71
-17.22
-24.94
-25.96
-19.87
-9.00
3.03
13.08
19.03
20.00
16.51
10.41
5.27
5.36
14.83
36.26
69.39
110.79
154.25
191.42
213.19
211.91
184.45
134.23
71.52
9.93
-38.80
-69.73
-85.82
-94.75
-102.88
-110.74
-113.02
-102.49
-75.55
-35.31
9.21
47.78
73.58
85.56
87.04
82.09
72.68
57.69
34.87
2.90
-36.56
-78.76
-117.13
-145.36
-159.41
-158.33
-144.45
-121.73
-94.17
-64.92
-36.10
-9.91
10.68
22.19
22.74
13.69
0.70
-8.03
-5.91
8.04
27.47
41.57
40.26
20.26
-12.52
-45.44
-65.23
-64.90
-46.34
-18.73
7.79
27.64
42.48
58.56
80.89
109.03
135.89
152.22
151.38
133.27
104.11
73.54
50.60
41.01
46.53
65.24
92.88
123.23
149.14
163.67
161.59
141.19
104.94
59.28
12.80
-26.15
-52.37
-65.37
-69.21
-70.62
-75.22
-84.65
-95.55
-101.96
-99.06
-86.24
-67.64
-49.37
-36.19
-28.61
-23.38
-15.84
-3.44
12.30
26.01
31.10
23.87
5.74
-16.83
-35.13
-41.90
-34.45
-15.40
8.79
30.54
43.81
45.38
35.18
15.59
-9.27
-34.31
-54.48
-66.09
-68.09
-62.79
-55.53
-52.21
-56.19
-66.65
-78.78
-86.05
-83.76
-71.67
-54.39
-39.06
-31.97
-35.27
-46.60
-60.78
-72.80
-80.45
-84.50
-87.22
-90.98
-97.30
-106.55
-118.35
-131.37
-143.06
-149.83
-148.03
-135.35
-112.10
-81.24
-47.16
-14.44
13.08
32.26
40.81
37.92
25.46
8.32
-6.49
-12.29
-5.66
12.12
36.09
60.23
79.84
92.98
100.10
103.39
105.70
109.93
118.86
134.11
154.18
173.41
183.19
175.65
148.32
106.88
64.28
35.87
32.99
57.95
103.25
155.35
200.74
231.32
246.50
251.42
253.54
258.90
269.87
284.79
298.91
305.66
298.03
270.73
222.58
158.55
89.68
29.74
-9.90
-25.33
-21.94
-12.09
-9.30
-22.78
-54.76
-101.22
-154.89
-207.72
-252.37
-282.82
-295.36
-289.62
-269.34
-240.94
-210.66
-181.63
-153.46
-124.28
-94.03
-65.79
-43.73
-29.60
-20.24
-9.16
9.49
36.88
68.73
97.93
119.63
134.18
146.25
160.82
179.51
199.12
213.88
219.21
214.42
202.98
189.51
176.58
162.44
142.61
112.89
72.66
25.79
-21.29
-63.03
-97.58
-127.29
-156.77
-189.44
-225.26
-260.38
-288.30
-302.25
-297.57
-273.26
-231.99
-179.63
-123.32
-68.57
-17.71
29.78
75.11
118.30
157.38
189.34
211.19
220.49
216.16
198.18
168.39
131.39
95.20
69.35
61.33
71.74
92.25
110.40
115.51
103.51
77.77
45.66
13.02
-17.92
-49.17
-85.99
-128.95
-172.87
-210.72
-238.44
-257.64
-274.97
-294.96
-318.25
-344.45
-365.89
-371.59
-356.12
-322.32
-279.12
-236.11
-194.14
-149.26
-103.56
-56.33
-5.62
46.28
94.97
137.39
173.94
213.65
264.42
319.47
373.17
424.50
471.26
511.10
542.24
526.16
442.92
353.39
282.49
218.20
158.80
104.22
55.16
12.39
-23.60
-47.18
-55.23
-57.66
-59.93
-59.29
-52.06
-35.23
-8.87
22.41
54.46
80.23
85.15
63.11
19.76
-34.12
-85.84
-123.56
-138.61
-123.84
-78.01
-11.02
65.07
139.71
203.49
250.51
280.28
297.17
309.30
323.19
338.45
350.65
353.62
340.87
308.29
256.34
189.98
117.47
47.23
-15.07
-65.97
-103.81
-128.29
-140.70
-143.68
-141.38
-138.89
-140.57
-148.64
-162.65
-180.36
-198.74
-215.66
-230.58
-244.48
-259.36
-277.05
-298.69
-323.95
-350.54
-373.63
-387.02
-385.65
-368.72
-341.45
-313.65
-295.58
-292.72
-302.69
-315.72
-319.31
-304.25
-268.45
-217.14
-159.34
-103.35
-53.61
-10.65
27.04
60.58
89.81
114.05
132.93
147.37
159.22
169.96
179.65
186.87
189.44
185.49
174.51
157.40
136.58
115.43
97.26
84.21
76.69
73.34
71.82
69.93
65.92
58.71
47.64
32.07
11.84
-11.94
-36.56
-58.39
-74.20
-82.91
-85.84
-85.56
-84.37
-83.07
-81.30
-78.61
-75.26
-71.64
-67.79
-62.95
-55.98
-46.65
-36.19
-26.74
-19.72
-14.38
-7.44
5.15
25.83
53.53
83.49
109.42
126.11
131.33
125.94
112.65
94.31
73.30
51.95
32.91
19.33
13.52
15.64
23.02
31.19
35.84
34.94
29.57
22.92
18.68
18.90
23.64
31.07
39.07
45.77
50.15
52.01
51.59
49.52
46.62
44.06
42.84
43.59
46.12
49.24
51.08
49.29
41.94
28.06
8.44
-14.45
-36.72
-54.36
-64.61
-66.87
-62.75
-55.08
-46.88
-40.00
-34.93
-30.92
-26.70
-21.36
-14.40
-6.03
3.20
12.18
19.60
24.20
25.31
23.10
18.46
12.96
8.04
4.66
2.77
1.63
0.23
-2.19
-5.99
-11.07
-16.80
-22.73
-28.26
-32.87
-36.00
-37.24
-36.41
-33.59
-29.27
-24.03
-18.58
-13.53
-9.26
-6.06
-4.08
-3.43
-3.79
-4.68
-5.63
-6.43
-7.16
-8.01
-9.09
-10.16
-10.81
-10.52
-9.23
-7.32
-5.50
-4.30
-3.74
-3.24
-1.85
1.36
6.82
13.98
21.44
27.15
29.16
26.29
18.84
8.61
-1.73
-9.45
-12.94
-12.03
-8.01
-2.85
1.53
3.93
4.16
2.94
1.58
1.42
3.35
7.29
12.15
16.16
17.66
15.77
10.98
4.99
0.11
-1.77
-0.27
3.30
6.44
6.83
3.55
-2.22
-7.85
-10.63
-9.31
-4.83
0.15
2.89
2.12
-1.31
-4.88
-6.04
-3.72
1.10
6.02
8.61
7.86
4.57
0.70
-1.51
-0.74
2.76
7.73
12.31
14.59
12.94
6.27
-5.79
-22.23
-40.55
-56.96
-67.59
-70.13
-65.00
-55.27
-45.21
-38.47
-36.28
-37.31
-38.58
-37.03
-31.10
-21.23
-9.31
2.56
12.71
20.70
26.81
31.64
35.64
38.62
40.11
39.56
36.58
31.11
23.62
14.85
5.68
-2.87
-10.15
-15.74
-19.78
-22.63
-24.75
-26.20
-26.83
-26.43
-24.88
-22.62
-20.18
-18.02
-15.82
-12.46
-6.38
3.26
15.80
29.33
41.05
48.83
51.97
51.41
49.05
46.54
44.56
42.66
40.02
36.05
31.11
26.19
22.33
19.92
18.26
16.29
12.95
8.03
2.11
-3.54
-7.86
-10.46
-11.71
-12.61
-13.74
-15.13
-16.05
-15.57
-13.10
-8.94
-4.13
0.03
2.47
3.06
2.37
1.51
1.71
3.60
7.03
10.89
13.77
14.48
12.73
9.35
6.04
4.75
6.53
11.08
16.71
20.97
21.69
17.98
10.50
1.41
-6.69
-11.87
-13.42
-12.15
-9.67
-7.37
-5.91
-5.20
-4.75
-4.38
-4.56
-5.80
-8.10
-10.71
-12.06
-10.95
-7.20
-1.95
2.91
5.89
6.81
6.99
8.50
13.10
21.35
32.49
44.85
56.67
66.49
73.19
75.61
72.68
63.66
48.88
30.33
11.14
-5.48
-17.67
-25.50
-30.84
-36.03
-42.40
-49.64
-55.98
-59.38
-58.83
-54.74
-48.47
-41.65
-35.16
-28.99
-22.71
-16.06
-9.51
-4.15
-1.18
-1.25
-4.00
-8.16
-11.91
-13.79
-13.05
-9.92
-5.50
-1.14
1.86
2.82
1.84
-0.03
-1.12
0.67
7.11
18.80
34.75
52.19
67.30
76.54
77.65
70.27
55.97
37.40
17.23
-2.34
-20.07
-35.32
-47.66
-56.56
-61.48
-61.90
-57.85
-50.21
-40.52
-30.82
-23.00
-18.24
-16.65
-17.49
-19.33
-20.85
-21.07
-19.54
-16.37
-11.98
-6.83
-1.28
4.40
10.13
15.61
20.33
23.62
24.79
23.53
20.18
15.51
10.59
6.32
3.13
0.92
-0.51
-1.37
-1.52
-0.76
0.97
3.30
5.71
7.58
8.72
9.48
10.42
12.06
14.29
16.53
17.94
17.94
16.46
14.02
11.54
9.98
10.01
12.00
15.76
20.63
25.71
30.03
32.98
34.40
34.51
33.74
32.61
31.57
30.79
30.49
30.83
31.92
33.87
36.54
39.64
42.79
45.62
47.67
48.71
48.70
47.77
46.32
44.65
42.62
39.64
34.52
25.99
13.43
-2.96
-22.05
-42.46
-63.10
-83.24
-101.99
-117.90
-128.86
-132.82
-128.89
-118.02
-102.81
-86.68
-72.36
-61.05
-52.54
-45.88
-40.13
-34.89
-30.07
-25.59
-21.39
-17.48
-13.94
-10.92
-8.34
-5.55
-1.68
3.95
11.27
19.36
26.74
32.15
35.22
36.67
37.98
40.49
44.78
50.25
55.28
58.02
57.28
53.04
46.59
39.88
34.69
31.98
31.67
32.87
34.43
35.53
35.82
35.37
34.22
32.27
29.30
25.12
19.64
12.75
4.18
-6.52
-19.63
-34.58
-49.72
-62.61
-70.82
-72.97
-69.43
-61.92
-52.84
-44.17
-36.83
-30.84
-25.86
-21.71
-18.44
-16.18
-14.73
-13.66
-12.50
-10.99
-9.26
-7.55
-5.98
-4.31
-2.28
0.30
3.17
5.76
7.51
8.25
8.32
8.42
9.16
10.49
11.95
12.75
12.33
10.70
8.35
5.94
3.99
2.49
0.86
-1.43
-4.64
-8.34
-11.64
-13.66
-14.05
-13.09
-11.59
-10.46
-10.06
-10.20
-10.31
-9.80
-8.52
-6.74
-4.96
-3.54
-2.64
-2.20
-2.18
-2.67
-3.62
-4.86
-5.84
-5.97
-4.89
-2.75
-0.21
1.79
2.47
1.69
-0.11
-1.95
-2.95
-2.54
-0.79
1.74
4.27
6.01
6.73
6.66
6.39
6.51
7.31
8.55
9.85
10.88
11.49
11.98
12.69
13.73
14.81
15.41
14.94
13.13
10.24
6.81
3.59
1.15
-0.29
-0.73
-0.31
0.74
2.12
3.44
4.15
3.87
2.55
0.62
-1.05
-1.61
-0.94
0.28
0.89
-0.28
-3.50
-8.05
-12.52
-15.46
-16.21
-15.12
-13.13
-11.05
-9.40
-8.18
-7.17
-6.29
-5.56
-5.00
-4.37
-3.34
-1.39
1.60
5.37
9.37
12.87
15.25
16.11
15.49
13.75
11.64
9.88
8.89
8.64
8.50
7.63
5.40
1.86
-2.38
-6.22
-8.71
-9.49
-8.74
-7.16
-5.46
-4.07
-2.91
-1.63
0.21
2.80
5.79
8.65
10.69
11.63
11.53
10.63
9.13
7.15
4.84
2.39
0.35
-0.85
-0.98
-0.19
0.87
1.32
0.58
-1.33
-4.00
-6.57
-8.35
-9.00
-8.48
-7.04
-5.20
-3.42
-2.12
-1.68
-2.09
-3.13
-4.28
-4.81
-4.09
-1.78
2.12
7.28
13.06
18.80
23.75
27.27
29.00
28.80
26.91
23.82
20.12
16.43
13.31
11.09
9.75
9.04
8.50
7.62
6.08
4.00
1.82
0.31
-0.04
0.82
2.34
3.64
3.98
3.14
1.56
-0.01
-0.71
-0.13
1.73
4.43
7.15
9.04
9.18
6.98
2.39
-3.86
-10.51
-16.14
-19.96
-22.28
-24.34
-27.75
-33.67
-42.11
-52.00
-61.57
-69.04
-73.34
-74.51
-73.61
-72.39
-72.47
-74.53
-77.94
-80.70
-80.49
-75.66
-66.16
-53.65
-40.68
-29.36
-20.34
-12.73
-4.67
5.32
17.24
29.39
39.08
43.93
43.23
38.58
33.20
30.57
32.84
39.72
49.03
57.86
64.04
66.99
67.51
66.77
65.32
62.84
58.54
52.15
44.50
37.44
32.91
31.96
34.30
38.33
42.01
43.67
42.65
39.26
34.47
29.30
24.56
20.64
17.61
15.32
13.56
12.01
10.49
8.96
7.70
7.25
8.12
10.34
13.24
15.65
16.33
14.79
11.49
7.87
5.61
5.80
8.33
12.07
15.44
17.17
16.94
15.19
12.87
10.68
8.89
7.23
5.23
2.52
-1.03
-5.08
-9.06
-12.28
-14.07
-13.87
-11.25
-6.05
1.46
10.24
18.87
25.82
30.13
31.98
32.58
33.60
36.28
40.70
45.43
48.35
47.49
41.71
31.02
16.18
-1.80
-21.74
-42.35
-62.28
-80.11
-94.51
-104.63
-110.05
-110.64
-106.49
-97.74
-84.80
-68.79
-51.46
-34.95
-21.28
-11.83
-7.03
-6.44
-9.00
-13.44
-18.58
-23.55
-27.67
-30.50
-31.77
-31.43
-29.80
-27.38
-24.76
-22.26
-19.76
-16.90
-13.24
-8.56
-2.77
4.01
11.79
20.47
29.63
38.42
45.52
49.76
50.84
49.73
47.89
46.82
47.05
47.86
47.90
46.10
42.23
36.96
31.55
26.91
23.47
21.16
19.63
18.63
18.05
17.85
17.78
17.67
17.37
16.89
16.50
16.37
16.69
17.46
18.50
19.48
20.15
20.25
19.50
17.69
14.65
10.50
5.59
0.50
-4.12
-7.53
-9.29
-9.14
-6.95
-2.98
2.20
7.59
11.91
13.83
12.41
7.21
-1.59
-13.12
-26.36
-40.13
-53.13
-64.08
-71.72
-75.18
-74.32
-69.77
-62.72
-54.72
-46.94
-39.78
-32.90
-25.35
-16.09
-4.62
8.86
23.40
37.60
49.88
58.78
63.03
61.78
54.82
42.66
26.82
9.44
-7.21
-21.38
-32.38
-40.86
-48.02
-55.11
-62.69
-70.20
-76.19
-78.80
-76.57
-68.86
-56.51
-41.47
-26.38
-13.66
-4.63
0.80
3.94
6.51
9.91
14.41
19.18
22.80
24.07
22.51
18.80
14.25
10.21
7.61
6.47
6.09
5.37
3.44
0.07
-4.05
-7.67
-9.47
-8.51
-4.84
0.52
5.87
9.14
8.73
4.38
-2.59
-9.24
-12.01
-8.35
1.76
15.23
26.48
29.53
20.72
0.20
-27.56
-55.38
-76.34
-86.03
-83.91
-72.91
-57.71
-42.59
-30.05
-20.26
-11.68
-2.57
8.18
20.45
33.16
44.97
54.92
62.51
67.50
69.80
69.12
65.47
59.29
51.44
43.11
35.42
28.97
23.62
18.78
13.56
7.40
0.10
-7.99
-15.93
-22.33
-25.88
-25.85
-22.34
-16.49
-9.97
-4.42
-0.74
1.16
2.04
2.88
4.14
5.59
6.32
5.31
1.98
-3.42
-9.70
-15.35
-18.91
-19.66
-17.79
-14.30
-10.34
-6.52
-2.68
1.92
7.83
15.02
22.42
28.47
31.80
31.91
29.30
24.96
19.72
13.88
7.43
0.34
-6.94
-13.40
-17.95
-19.80
-18.90
-15.94
-11.93
-8.04
-5.23
-4.28
-5.23
-7.63
-10.43
-12.55
-13.29
-12.74
-11.77
-11.44
-12.40
-14.31
-16.17
-16.71
-15.15
-11.52
-6.74
-2.07
1.44
3.20
3.28
2.19
0.68
-0.60
-1.19
-0.97
-0.04
1.55
3.61
6.19
9.28
12.89
16.93
21.13
24.98
27.87
29.35
29.09
27.19
23.94
19.84
15.36
10.87
6.51
2.38
-1.22
-3.95
-5.40
-5.49
-4.64
-3.77
-3.85
-5.56
-9.00
-13.53
-18.14
-21.70
-23.39
-22.90
-20.37
-16.28
-11.12
-5.36
0.60
6.26
11.16
14.73
16.42
15.99
13.57
9.86
5.98
2.99
1.50
1.57
2.64
3.89
4.66
4.78
4.53
4.49
5.17
6.60
8.40
9.85
10.33
9.63
7.91
5.69
3.39
1.30
-0.64
-2.61
-4.66
-6.52
-7.78
-8.17
-7.70
-6.88
-6.29
-6.19
-6.44
-6.58
-6.17
-5.17
-4.09
-3.60
-4.19
-5.80
-7.83
-9.51
-10.17
-9.63
-7.96
-5.37
-1.96
1.99
6.14
9.95
12.85
14.52
14.93
14.33
13.17
11.92
10.95
10.68
11.47
13.36
16.05
18.69
20.15
19.61
16.91
12.70
8.03
3.83
0.30
-2.87
-6.04
-9.03
-10.89
-10.44
-6.88
-0.61
6.83
13.37
17.35
18.08
15.81
11.13
4.51
-3.93
-14.07
-25.35
-36.50
-45.77
-51.62
-53.24
-51.00
-46.16
-40.27
-34.49
-29.25
-24.32
-19.30
-14.20
-9.44
-5.79
-3.81
-3.49
-4.33
-5.50
-6.34
-6.46
-5.85
-4.57
-2.81
-0.77
1.07
1.99
1.45
-0.71
-3.86
-7.02
-9.23
-10.13
-10.01
-9.62
-9.70
-10.39
-11.51
-12.52
-13.03
-12.91
-12.05
-10.18
-6.82
-1.54
5.72
14.24
22.62
29.30
33.07
33.61
31.34
27.22
22.28
17.33
13.04
9.79
7.81
6.90
6.41
5.42
3.24
-0.27
-4.64
-8.92
-12.36
-14.62
-16.09
-17.34
-18.78
-20.35
-21.49
-21.82
-21.32
-20.43
-19.65
-19.31
-19.19
-18.64
-16.95
-13.69
-8.96
-3.42
2.07
6.64
9.86
11.68
12.44
12.72
12.97
13.42
13.97
14.28
14.03
13.18
11.98
11.00
10.79
11.85
14.17
17.33
20.49
22.66
23.35
22.79
21.85
21.54
22.58
24.70
26.76
27.31
25.18
20.21
13.40
6.28
0.19
-4.29
-7.50
-10.22
-13.16
-16.35
-19.15
-20.67
-20.19
-17.81
-14.36
-11.09
-8.88
-7.93
-7.61
-6.89
-5.24
-2.90
-0.73
0.22
-0.49
-2.40
-4.28
-4.90
-3.64
-0.85
2.48
5.38
7.43
8.77
9.87
11.18
12.68
14.02
14.78
14.67
13.67
11.97
10.00
8.16
7.02
6.81
7.33
7.94
7.76
6.06
2.71
-1.64
-5.94
-9.01
-10.24
-9.67
-7.97
-5.91
-4.14
-2.96
-2.31
-2.07
-2.05
-2.27
-2.85
-3.89
-5.39
-7.07
-8.49
-9.30
-9.44
-9.15
-9.05
-9.62
-11.02
-13.05
-15.15
-16.73
-17.58
-17.91
-18.01
-18.22
-18.43
-18.13
-16.65
-13.35
-7.87
-0.27
8.99
19.22
29.55
38.99
46.48
50.91
51.41
47.65
40.09
30.14
19.78
11.05
5.46
3.47
4.46
7.03
9.64
11.08
10.75
8.80
5.88
2.87
0.50
-0.90
-1.40
-1.34
-1.21
-1.37
-2.02
-3.07
-4.36
-5.69
-6.79
-7.34
-7.19
-6.25
-4.63
-2.69
-0.80
0.64
1.32
1.08
0.05
-1.62
-3.64
-5.70
-7.59
-9.23
-10.55
-11.58
-12.44
-13.24
-14.04
-14.71
-14.96
-14.42
-12.85
-10.29
-7.27
-4.39
-2.30
-1.17
-0.72
-0.51
-0.08
0.76
1.88
3.06
4.19
5.25
6.34
7.48
8.39
8.58
7.54
5.03
1.25
-3.13
-7.26
-10.37
-12.03
-12.33
-11.69
-10.73
-9.98
-9.74
-10.02
-10.65
-11.36
-12.07
-12.80
-13.61
-14.50
-15.31
-15.69
-15.41
-14.49
-13.31
-12.56
-12.68
-13.75
-15.35
-16.77
-17.38
-17.16
-16.36
-15.20
-13.58
-10.88
-6.16
1.24
11.54
24.31
38.48
52.59
65.11
74.63
80.10
81.16
78.07
71.98
64.39
56.86
50.49
45.60
41.80
38.15
33.70
27.82
20.59
12.63
5.07
-1.02
-5.03
-7.01
-7.57
-7.64
-8.08
-9.43
-11.86
-15.16
-18.88
-22.43
-25.26
-27.07
-27.79
-27.67
-27.05
-26.26
-25.36
-24.17
-22.51
-20.43
-18.30
-16.64
-15.79
-15.77
-16.09
-16.26
-15.97
-15.42
-15.06
-15.35
-16.28
-17.34
-17.68
-16.48
-13.40
-8.66
-3.00
2.64
7.31
10.53
12.10
12.38
11.91
11.29
10.90
10.66
10.36
9.48
7.85
5.69
3.81
3.02
3.85
6.20
9.27
12.16
14.16
15.04
15.01
14.54
13.97
13.50
13.22
13.00
12.66
11.87
10.23
7.46
3.58
-0.91
-5.21
-8.47
-10.23
-10.33
-9.04
-7.09
-5.51
-5.85
-9.44
-16.82
-26.79
-36.50
-42.00
-40.20
-30.42
-14.95
1.61
14.43
20.45
19.48
13.86
7.25
2.58
1.29
3.15
6.89
11.16
15.00
17.87
19.60
20.16
19.55
17.88
15.60
13.33
11.69
11.18
11.79
13.16
14.76
16.11
16.89
17.18
17.00
16.48
15.68
14.65
13.48
12.35
11.48
10.95
10.76
10.51
9.77
7.97
4.72
-0.16
-6.62
-14.18
-22.05
-29.33
-35.40
-39.94
-43.00
-44.76
-45.22
-44.07
-41.04
-36.03
-29.64
-23.11
-17.81
-14.69
-14.10
-15.75
-19.06
-23.34
-27.86
-31.58
-33.46
-32.74
-29.64
-25.60
-22.80
-22.95
-25.96
-29.45
-29.57
-22.55
-6.63
16.81
43.61
68.35
86.22
94.58
93.63
85.62
73.67
60.50
47.66
35.56
24.03
12.97
2.67
-6.32
-13.57
-19.21
-23.86
-28.29
-32.70
-36.61
-38.96
-38.63
-35.31
-29.76
-23.50
-18.36
-15.59
-15.21
-16.32
-17.52
-17.63
-16.16
-13.45
-10.02
-6.40
-2.97
0.04
2.30
3.41
3.20
2.00
0.72
0.51
2.13
5.56
9.98
14.20
17.26
18.91
19.42
19.43
19.42
19.36
18.98
17.92
15.88
12.93
9.28
5.13
0.62
-4.13
-9.11
-14.43
-20.36
-27.47
-36.28
-46.94
-58.74
-69.91
-78.20
-81.66
-79.56
-72.75
-63.30
-53.57
-45.17
-38.61
-33.37
-28.68
-24.04
-19.49
-15.27
-11.51
-8.08
-4.73
-1.33
1.98
4.70
6.51
7.50
8.38
10.13
13.52
18.59
24.46
29.71
32.86
33.05
30.37
25.80
20.91
17.43
16.51
18.48
22.69
27.71
31.89
34.04
33.91
32.42
31.27
32.08
35.79
42.19
50.17
58.22
64.90
69.23
70.59
68.50
62.62
52.94
40.15
25.60
11.28
-0.89
-9.63
-14.68
-16.90
-17.69
-18.46
-20.08
-22.71
-25.71
-28.17
-29.37
-29.23
-28.30
-27.55
-27.68
-28.71
-29.93
-30.29
-29.05
-26.25
-22.64
-19.22
-16.71
-15.26
-14.54
-14.11
-13.87
-13.91
-14.22
-14.49
-14.17
-12.66
-9.89
-6.26
-2.41
1.03
3.78
5.92
7.60
8.90
9.73
9.95
9.45
8.16
6.18
3.74
1.19
-1.05
-2.50
-2.92
-2.41
-1.42
-0.67
-0.62
-1.40
-2.67
-3.98
-4.93
-5.40
-5.63
-5.77
-6.00
-6.24
-6.26
-5.82
-4.88
-3.60
-2.29
-1.42
-1.16
-1.55
-2.35
-3.17
-3.50
-2.85
-1.14
1.40
4.19
6.66
8.47
9.75
10.78
11.87
13.07
14.03
14.30
13.50
11.84
9.86
8.36
7.82
8.14
8.82
9.23
9.03
8.36
7.75
7.74
8.61
10.21
12.00
13.43
14.18
14.34
14.23
14.15
14.28
14.51
14.67
14.54
14.14
13.60
13.13
12.77
12.45
11.91
10.93
9.53
7.71
5.73
3.62
1.55
-0.32
-1.80
-2.79
-3.30
-3.64
-4.39
-6.05
-8.92
-12.67
-16.61
-19.82
-21.58
-21.65
-20.19
-17.74
-14.78
-11.88
-9.43
-7.66
-6.69
-6.36
-6.42
-6.37
-5.73
-4.10
-1.50
1.73
4.87
7.24
8.56
8.99
9.23
9.99
11.62
13.75
15.51
15.96
14.70
12.09
9.12
6.84
5.82
5.88
6.36
6.55
6.01
4.82
3.47
2.44
1.94
1.82
1.65
1.18
0.40
-0.50
-1.16
-1.51
-1.62
-1.53
-1.45
-1.62
-2.16
-3.15
-4.55
-6.00
-7.11
-7.48
-6.94
-5.72
-4.36
-3.35
-2.74
-2.21
-1.25
0.32
2.05
3.20
3.11
1.64
-0.63
-2.67
-3.60
-3.01
-1.12
1.42
3.83
5.62
6.76
7.56
8.37
9.43
10.64
11.62
11.83
11.03
9.27
7.04
5.01
3.63
2.84
2.16
0.93
-1.40
-4.77
-8.63
-12.13
-14.43
-15.03
-13.94
-11.49
-8.18
-4.64
-1.36
1.23
2.75
3.07
2.26
0.46
-1.92
-4.56
-7.24
-9.82
-12.07
-13.87
-14.94
-15.09
-14.30
-12.65
-10.42
-8.03
-5.76
-3.80
-2.26
-1.15
-0.51
-0.38
-0.78
-1.60
-2.58
-3.23
-3.04
-1.69
0.78
3.91
6.91
9.03
9.81
9.36
8.37
7.72
8.05
9.50
11.52
13.15
13.66
12.81
11.16
9.70
9.39
10.54
12.81
15.24
16.66
16.36
14.13
10.38
5.89
1.57
-1.90
-4.15
-5.24
-5.63
-5.78
-6.07
-6.69
-7.69
-9.08
-10.77
-12.55
-14.14
-15.16
-15.28
-14.39
-12.72
-10.78
-9.15
-8.17
-7.76
-7.56
-7.11
-5.86
-3.66
-0.73
2.40
4.87
5.85
4.91
2.16
-1.72
-5.65
-8.62
-9.95
-9.40
-7.33
-4.41
-1.38
1.03
2.35
2.48
1.66
0.48
-0.26
0.01
1.41
3.68
6.16
8.23
9.51
9.84
9.39
8.53
7.60
6.96
6.94
7.66
9.01
10.64
11.90
12.23
11.32
9.27
6.57
3.91
1.88
0.80
0.51
0.44
-0.09
-1.55
-3.99
-6.93
-9.68
-11.72
-12.85
-13.32
-13.52
-13.69
-13.83
-13.73
-13.11
-11.85
-10.08
-8.04
-5.87
-3.68
-1.38
1.04
3.34
5.33
6.71
7.32
7.27
6.83
6.33
6.00
5.86
5.64
5.06
3.99
2.60
1.42
1.18
2.39
5.15
9.10
13.51
17.58
20.73
22.72
23.56
23.52
22.79
21.65
20.39
19.17
18.03
16.79
15.19
13.13
10.79
8.63
7.20
6.80
7.12
7.60
7.46
6.17
3.66
0.27
-3.41
-6.84
-9.83
-12.92
-17.05
-23.33
-32.43
-43.85
-55.96
-66.31
-72.50
-72.97
-67.35
-56.17
-40.62
-22.18
-2.51
16.20
31.50
41.10
43.86
40.28
32.40
22.82
13.48
5.32
-1.91
-8.59
-14.54
-18.89
-20.87
-20.54
-18.85
-17.14
-15.66
-13.21
-7.70
2.32
16.07
30.22
39.95
41.32
32.97
17.11
-1.56
-17.47
-25.65
-22.69
-6.95
20.99
58.11
99.07
137.38
167.47
186.75
196.52
200.64
203.03
204.44
201.26
187.24
156.87
108.48
45.70
-23.95
-92.46
-154.08
-206.54
-250.59
-288.02
-319.81
-345.49
-363.60
-372.60
-371.88
-361.75
-342.72
-315.48
-280.45
-238.27
-189.86
-136.75
-80.88
-24.50
29.87
79.46
121.40
153.46
174.61
185.64
188.83
187.10
182.79
177.02
169.82
160.96
150.87
140.48
130.88
122.58
115.15
107.66
99.36
90.16
80.52
70.95
61.40
51.25
40.21
28.56
17.45
8.26
1.81
-2.26
-5.45
-9.55
-15.63
-23.27
-30.87
-36.39
-38.44
-36.91
-32.94
-28.24
-24.01
-20.61
-17.38
-13.29
-7.63
-0.53
6.95
13.23
16.80
17.08
14.66
10.91
7.33
4.84
3.46
2.64
1.82
0.99
0.77
1.99
4.90
8.62
11.34
11.23
7.43
0.57
-7.44
-14.32
-18.50
-19.58
-18.16
-15.18
-11.22
-6.26
-0.04
7.75
16.91
26.75
36.14
43.83
48.76
50.27
48.29
43.15
35.52
25.92
14.82
2.78
-9.37
-20.56
-29.93
-37.16
-42.74
-47.73
-53.19
-59.51
-66.02
-71.34
-74.02
-73.09
-68.51
-61.19
-52.65
-44.61
-38.45
-34.74
-33.23
-32.96
-32.92
-32.32
-31.08
-29.47
-28.11
-27.38
-27.33
-27.89
-28.67
-29.40
-29.91
-30.15
-30.10
-29.74
-29.02
-27.80
-26.16
-24.15
-21.79
-18.84
-14.67
-8.38
0.72
12.53
25.87
38.69
48.90
55.10
57.05
55.51
51.41
45.44
37.65
28.00
16.70
4.78
-6.27
-14.98
-20.43
-22.82
-23.25
-23.37
-24.44
-26.84
-29.66
-31.38
-30.58
-26.43
-19.37
-10.70
-2.22
4.56
8.89
11.12
12.34
14.24
18.54
26.39
38.03
52.44
67.41
80.26
88.50
90.68
86.62
77.21
63.63
47.13
28.66
8.97
-10.94
-29.93
-46.63
-60.03
-69.72
-76.20
-80.25
-82.70
-84.04
-84.22
-83.01
-80.17
-75.72
-69.85
-62.92
-55.21
-47.16
-39.66
-33.80
-30.79
-31.42
-35.69
-42.66
-51.02
-59.60
-67.95
-76.30
-85.11
-94.53
-104.02
-112.73
-120.15
-126.56
-133.10
-140.81
-149.73
-158.03
-162.67
-160.85
-151.60
-136.45
-118.52
-100.32
-81.82
-59.86
-29.65
12.41
66.31
127.58
188.53
240.91
278.89
300.64
308.20
306.13
299.09
290.66
283.06
277.39
274.50
274.73
277.04
277.85
271.32
252.07
218.71
175.90
133.13
100.27
82.31
76.22
72.66
61.46
37.97
6.52
-21.24
-32.19
-18.80
16.35
61.54
101.47
123.95
124.89
108.46
82.95
55.49
28.40
-1.25
-37.76
-82.12
-130.21
-174.92
-210.71
-237.27
-258.85
-281.32
-307.91
-336.72
-361.67
-376.33
-377.30
-365.17
-342.87
-312.31
-273.74
-227.13
-173.92
-117.83
-63.76
-15.48
26.51
63.95
100.68
138.27
174.45
204.66
224.63
232.95
230.98
222.35
210.28
199.40
193.59
195.36
205.69
223.43
245.60
267.21
284.48
280.95
248.55
192.41
129.38
76.89
42.53
29.34
28.19
32.78
40.86
55.55
80.52
112.24
145.53
173.92
192.64
199.30
195.52
184.86
172.93
164.04
159.01
156.27
152.93
146.87
136.45
121.13
99.78
71.99
37.82
-3.10
-49.53
-98.53
-146.22
-189.94
-228.72
-263.11
-292.93
-316.20
-332.50
-341.15
-341.33
-332.29
-314.31
-288.76
-257.34
-220.79
-178.82
-135.57
-95.38
-60.75
-31.58
-7.05
12.11
23.31
23.21
9.07
-26.47
-88.82
-177.91
-287.65
-408.48
-531.04
-647.56
-751.63
-801.01
-765.13
-641.84
-461.97
-268.76
-93.07
52.66
168.66
260.61
335.11
391.31
427.83
446.89
452.62
450.33
443.78
434.22
421.27
404.06
377.00
330.87
267.82
196.55
127.83
69.77
26.18
-2.50
-17.89
-25.27
-29.97
-34.16
-38.41
-41.81
-43.46
-43.18
-41.23
-37.94
-34.89
-33.61
-33.97
-35.99
-39.59
-44.68
-51.28
-59.18
-67.69
-76.22
-86.62
-96.27
-103.81
-108.79
-111.05
-110.43
-106.56
-98.97
-87.35
-72.07
-53.76
-34.65
-17.99
-6.50
-1.72
-3.75
-11.40
-22.76
-35.95
-49.24
-62.25
-76.24
-93.13
-114.99
-143.29
-177.99
-216.55
-253.92
-283.83
-296.02
-285.86
-254.51
-208.76
-158.62
-114.05
-81.91
-64.70
-60.77
-65.83
-75.23
-83.99
-87.60
-82.67
-67.64
-43.30
-12.68
20.09
50.96
76.11
93.57
103.04
105.54
103.02
97.88
92.06
86.89
83.10
80.46
78.97
79.40
83.18
92.07
107.31
128.78
154.77
182.48
208.32
229.19
242.95
248.62
246.42
237.60
224.53
210.57
198.95
190.76
183.77
172.40
149.55
110.10
53.50
-15.62
-89.23
-159.20
-219.93
-268.48
-303.02
-320.95
-318.45
-292.52
-243.64
-177.51
-104.22
-35.25
20.48
58.89
80.80
90.49
93.12
93.25
93.98
97.28
104.42
116.36
133.44
