1720554915.00
64.000000
-0.00
-0.00
-0.00
-0.00
-0.00
-0.00
-0.00
-0.00
-0.00
-0.00
0.00
0.01
0.01
-0.00
-0.03
-0.05
-0.05
0.00
0.13
0.36
0.66
1.01
1.37
1.72
2.06
2.40
2.79
3.24
3.80
4.42
5.06
5.66
6.20
6.68
7.15
7.68
8.31
9.14
10.09
11.04
11.88
12.56
13.14
13.76
14.65
15.96
17.91
20.32
22.90
25.38
27.58
29.57
31.68
34.32
37.81
42.54
48.15
54.10
59.83
64.97
69.58
74.14
79.34
85.71
93.76
103.00
112.62
121.73
129.77
136.75
143.30
150.75
157.77
166.64
177.95
191.79
206.97
220.57
228.25
225.36
208.53
176.87
132.76
80.05
23.07
-34.94
-92.44
-149.16
-205.23
-260.37
-313.74
-363.87
-409.83
-450.91
-486.50
-515.74
-537.23
-549.22
-549.96
-538.37
-514.20
-478.68
-433.88
-382.46
-327.02
-269.83
-212.61
-156.63
-102.94
-52.39
-5.99
35.42
71.20
101.09
125.23
144.13
158.45
168.89
176.05
180.32
182.03
181.42
178.82
174.56
169.04
162.61
155.57
148.13
140.43
132.59
124.73
116.96
109.36
101.95
94.70
87.51
80.36
73.26
66.35
59.83
53.86
48.53
43.70
39.15
34.57
29.80
24.86
20.01
15.63
12.06
9.40
7.42
5.65
3.56
0.82
-2.50
-5.96
-8.91
-10.86
-11.66
-11.66
-11.50
-11.86
-13.15
-15.45
-18.59
-22.14
-25.49
-27.71
-27.66
-24.40
-17.65
-8.28
1.76
10.15
15.25
16.99
16.85
17.11
19.52
24.35
30.31
35.37
37.83
37.22
34.25
30.28
26.51
23.43
20.87
18.30
15.41
12.22
9.18
6.81
5.38
4.85
4.83
4.82
4.40
3.51
2.41
1.54
1.23
1.52
2.08
2.39
2.09
1.15
-0.03
-0.89
-0.98
-0.24
1.02
2.27
3.04
3.08
2.44
1.39
0.25
-0.65
-0.98
-0.45
1.08
3.45
6.20
8.66
10.15
10.49
9.97
9.34
9.49
10.86
13.31
16.13
18.39
19.38
18.90
17.21
14.72
11.77
8.55
5.01
1.28
-2.24
-5.14
-7.16
-8.51
-9.73
-11.28
-13.23
-15.10
-16.12
-15.81
-14.34
-12.55
-11.39
-11.42
-12.40
-13.53
-13.93
-13.19
-11.57
-9.70
-8.19
-7.26
-6.77
-6.45
-6.11
-5.80
-5.62
-5.53
-5.42
-5.09
-4.50
-3.78
-3.20
-2.90
-2.88
-2.95
-3.01
-3.05
-3.19
-3.46
-3.68
-3.56
-2.81
-1.46
0.12
1.38
1.82
1.28
0.05
-1.23
-1.90
-1.56
-0.22
1.77
3.88
5.54
6.37
6.17
4.86
2.52
-0.67
-4.47
-8.24
-11.15
-12.40
-11.53
-8.69
-4.52
0.07
4.25
7.49
9.63
10.68
10.59
9.34
6.97
3.78
0.38
-2.46
-4.09
-4.27
-3.32
-1.97
-1.08
-1.34
-2.97
-5.68
-8.70
-11.04
-11.72
-10.19
-6.55
-1.54
3.59
7.52
9.27
8.56
5.83
2.00
-1.85
-4.90
-6.76
-7.50
-7.50
-7.25
-7.14
-7.29
-7.54
-7.56
-7.02
-5.74
-3.84
-1.64
0.43
2.08
3.23
3.99
4.52
4.88
5.00
4.77
4.16
3.36
2.70
2.51
2.95
3.96
5.25
6.49
7.35
7.71
7.58
7.12
6.53
5.98
5.54
5.16
4.70
4.02
3.07
1.97
0.91
0.08
-0.40
-0.57
-0.51
-0.36
-0.19
-0.10
-0.13
-0.27
-0.47
-0.60
-0.56
-0.40
-0.30
-0.57
-1.41
-2.80
-4.50
-6.11
-7.34
-8.12
-8.57
-8.89
-9.21
-9.51
-9.73
-9.77
-9.55
-9.04
-8.17
-6.83
-4.96
-2.58
0.05
2.54
4.43
5.39
5.33
4.45
3.13
1.85
0.94
0.59
0.75
1.21
1.75
2.24
2.67
3.12
3.68
4.35
5.02
5.54
5.79
5.74
5.44
5.01
4.54
4.08
3.65
3.29
3.04
2.98
3.16
3.55
4.02
4.35
4.33
3.82
2.81
1.47
0.05
-1.19
-2.05
-2.39
-2.22
-1.70
-1.09
-0.69
-0.76
-1.44
-2.65
-4.17
-5.69
-6.93
-7.77
-8.20
-8.31
-8.19
-7.93
-7.57
-7.08
-6.42
-5.49
-4.20
-2.51
-0.52
1.51
3.21
4.32
4.72
4.54
4.02
3.44
2.97
2.65
2.48
2.46
2.64
3.08
3.81
4.77
5.79
6.68
7.21
7.26
6.78
5.90
4.83
3.85
3.19
2.91
2.94
3.12
3.28
3.37
3.45
3.55
3.66
3.65
3.35
2.73
1.84
0.90
0.08
-0.48
-0.78
-0.93
-1.03
-1.17
-1.41
-1.83
-2.48
-3.39
-4.43
-5.34
-5.86
-5.80
-5.26
-4.56
-4.12
-4.18
-4.72
-5.47
-6.11
-6.39
-6.24
-5.67
-4.69
-3.36
-1.71
0.05
1.62
2.72
3.22
3.21
3.01
2.85
2.86
3.00
3.16
3.32
3.53
3.92
4.51
5.22
5.88
6.30
6.40
6.17
5.67
4.97
4.16
3.33
2.60
2.05
1.73
1.60
1.58
1.62
1.71
1.83
2.01
2.16
2.23
2.16
1.96
1.65
1.30
0.95
0.60
0.21
-0.22
-0.67
-1.09
-1.40
-1.62
-1.82
-2.19
-2.98
-4.39
-6.45
-8.97
-11.53
-13.62
-14.80
-14.80
-13.65
-11.57
-8.87
-5.88
-2.89
-0.10
2.30
4.16
5.26
5.51
4.92
3.71
2.26
1.06
0.46
0.57
1.26
2.22
3.20
4.08
4.90
5.79
6.83
8.02
9.27
10.42
11.31
11.76
11.57
10.62
8.95
6.76
4.41
2.19
0.35
-1.08
-2.14
-2.90
-3.38
-3.61
-3.63
-3.52
-3.34
-3.11
-2.74
-2.17
-1.40
-0.58
0.06
0.28
-0.05
-0.88
-2.05
-3.34
-4.52
-5.44
-6.06
-6.49
-6.95
-7.61
-8.55
-9.57
-10.33
-10.47
-9.79
-8.44
-6.80
-5.35
-4.47
-4.24
-4.47
-4.80
-4.84
-4.38
-3.36
-1.92
-0.27
1.37
2.81
3.90
4.54
4.65
4.24
3.44
2.54
1.90
1.77
2.23
3.12
4.12
4.91
5.31
5.30
5.00
4.60
4.22
3.98
3.97
4.22
4.74
5.38
5.92
6.08
5.75
4.99
4.09
3.36
2.99
2.94
3.01
3.00
2.80
2.44
1.99
1.46
0.83
-0.02
-1.08
-2.35
-3.75
-5.36
-7.28
-9.59
-12.04
-13.95
-14.40
-12.61
-8.38
-2.33
4.30
10.06
13.80
15.01
13.80
10.79
6.82
2.68
-0.89
-3.34
-4.31
-3.83
-2.34
-0.62
0.42
0.11
-1.72
-4.58
-7.48
-9.27
-8.98
-6.21
-1.19
5.21
11.81
17.40
21.11
22.51
21.70
19.16
15.59
11.71
8.14
5.26
3.20
1.90
1.12
0.58
0.07
-0.50
-1.08
-1.52
-1.67
-1.46
-0.97
-0.40
0.04
0.21
0.06
-0.36
-0.96
-1.63
-2.23
-2.64
-2.82
-2.77
-2.63
-2.55
-2.66
-2.95
-3.33
-3.65
-3.91
-4.25
-4.86
-5.89
-7.28
-8.75
-9.92
-10.50
-10.42
-9.87
-9.19
-8.67
-8.44
-8.43
-8.37
-8.00
-7.18
-5.94
-4.44
-2.91
-1.54
-0.45
0.31
0.77
0.98
1.04
1.11
1.33
1.73
2.22
2.58
2.64
2.32
1.69
0.90
0.11
-0.54
-0.90
-0.77
0.13
1.90
4.40
7.12
9.34
10.45
10.20
8.85
7.01
5.40
4.47
4.28
4.55
4.89
4.98
4.76
4.32
3.81
3.31
2.78
2.14
1.30
0.27
-0.86
-1.91
-2.82
-3.57
-4.17
-4.55
-4.52
-3.81
-2.29
-0.13
2.11
3.61
3.63
1.85
-1.34
-5.01
-7.98
-9.40
-9.11
-7.65
-5.91
-4.71
-4.31
-4.47
-4.63
-4.32
-3.48
-2.36
-1.41
-0.91
-0.78
-0.72
-0.40
0.32
1.27
2.12
2.56
2.51
2.17
1.85
1.79
2.02
2.42
2.85
3.27
3.74
4.33
5.06
5.71
6.01
5.71
4.72
3.18
1.41
-0.22
-1.43
-2.02
-2.00
-1.47
-0.65
0.15
0.68
0.86
0.74
0.54
0.48
0.67
1.02
1.34
1.40
1.11
0.49
-0.35
-1.32
-2.38
-3.52
-4.71
-5.80
-6.58
-6.86
-6.60
-5.90
-4.99
-4.04
-3.13
-2.22
-1.19
0.01
1.36
2.72
3.92
4.79
5.30
5.47
5.40
5.21
4.95
4.61
4.17
3.66
3.19
2.94
3.06
3.58
4.32
4.92
5.06
4.61
3.65
2.49
1.48
0.86
0.71
0.90
1.22
1.43
1.41
1.13
0.69
0.22
-0.16
-0.39
-0.53
-0.66
-0.86
-1.16
-1.50
-1.79
-1.95
-2.01
-2.06
-2.19
-2.47
-2.86
-3.24
-3.47
-3.48
-3.31
-3.12
-3.14
-3.56
-4.48
-5.76
-7.11
-8.18
-8.65
-8.46
-7.79
-7.00
-6.42
-6.15
-6.06
-5.81
-5.14
-4.01
-2.69
-1.58
-1.00
-1.01
-1.36
-1.60
-1.36
-0.55
0.63
1.76
2.46
2.62
2.39
2.13
2.18
2.70
3.63
4.68
5.53
5.98
5.99
5.64
5.07
4.33
3.39
2.30
1.14
0.12
-0.56
-0.79
-0.59
-0.12
0.44
0.94
1.36
1.68
1.93
2.14
2.32
2.51
2.81
3.24
3.72
4.01
3.81
2.96
1.55
-0.11
-1.58
-2.54
-2.87
-2.74
-2.44
-2.33
-2.64
-3.41
-4.58
-5.93
-7.19
-8.16
-8.72
-8.90
-8.88
-8.86
-8.96
-9.11
-9.05
-8.49
-7.25
-5.42
-3.34
-1.43
-0.01
0.82
1.25
1.54
1.89
2.35
2.76
2.95
2.82
2.47
2.08
1.87
1.94
2.30
2.82
3.36
3.78
4.07
4.24
4.32
4.34
4.26
4.03
3.66
3.21
2.80
2.54
2.50
2.59
2.68
2.65
2.47
2.25
2.16
2.32
2.70
3.09
3.19
2.81
1.91
0.72
-0.44
-1.25
-1.56
-1.45
-1.16
-0.92
-0.92
-1.19
-1.71
-2.40
-3.20
-4.02
-4.79
-5.37
-5.63
-5.56
-5.24
-4.88
-4.66
-4.63
-4.63
-4.38
-3.55
-2.00
0.16
2.54
4.65
6.09
6.71
6.68
6.35
6.08
6.09
6.37
6.77
7.08
7.19
7.12
7.07
7.36
8.29
9.99
12.29
14.67
16.44
17.05
16.41
15.04
13.94
14.08
15.85
18.77
21.66
23.17
22.52
19.92
16.50
13.81
13.04
14.55
17.73
21.32
23.93
24.54
22.76
18.63
12.43
4.14
-6.89
-21.96
-42.82
-71.44
-109.71
-159.05
-219.53
-288.91
-361.91
-430.64
-486.24
-521.59
-533.57
-524.08
-498.94
-465.44
-429.66
-395.00
-362.31
-330.97
-300.18
-269.46
-238.39
-206.11
-171.30
-132.83
-90.46
-45.24
0.82
45.50
87.27
125.89
162.45
198.95
237.53
279.45
324.15
368.74
408.31
437.36
451.67
449.95
434.43
409.92
381.81
354.00
327.78
302.20
275.54
246.81
216.56
186.55
158.73
134.37
113.90
97.40
85.30
78.70
79.00
86.97
101.91
121.49
142.40
161.56
177.16
189.00
198.07
205.75
213.00
219.95
225.82
229.02
227.25
217.85
198.41
168.05
128.43
84.05
41.29
6.28
-17.27
-29.12
-31.82
-28.98
-23.18
-15.39
-5.58
5.82
16.96
24.97
27.39
23.69
15.89
7.81
3.28
4.60
11.89
23.49
37.00
50.20
61.73
71.09
78.73
85.78
93.71
103.51
114.74
125.19
131.32
129.59
117.90
96.49
67.66
34.67
0.46
-33.04
-64.50
-92.49
-115.32
-131.55
-141.04
-145.34
-147.24
-149.65
-154.53
-162.54
-173.49
-186.80
-201.50
-215.85
-227.05
-231.95
-228.42
-216.62
-199.12
-179.65
-161.03
-143.56
-125.29
-103.88
-78.92
-53.07
-30.93
-16.96
-13.61
-20.93
-37.51
-61.82
-92.68
-128.56
-166.94
-203.34
-232.29
-249.57
-254.01
-247.54
-233.28
-213.32
-187.69
-155.97
-118.27
-76.62
-35.43
-0.30
24.38
37.45
41.29
40.18
36.93
33.37
30.64
29.38
29.68
31.36
34.19
37.05
37.16
28.69
6.83
-29.05
-74.23
-119.94
-156.14
-174.74
-172.41
-142.16
-88.73
-27.43
25.12
61.34
83.45
97.05
106.20
112.05
115.89
116.78
115.88
116.95
124.28
139.64
161.25
184.71
205.58
216.66
214.02
198.49
175.10
150.18
128.06
109.66
93.44
77.40
60.70
43.81
28.53
16.92
9.93
6.80
5.65
4.73
3.17
0.85
-1.96
-4.92
-7.49
-8.95
-8.61
-6.15
-1.82
3.45
8.17
10.93
10.92
8.19
3.58
-1.83
-7.22
-12.16
-16.56
-20.41
-23.40
-25.19
-25.52
-24.49
-22.58
-20.57
-19.09
-18.51
-18.74
-19.43
-20.21
-20.90
-21.58
-22.44
-23.62
-25.12
-26.80
-28.47
-29.98
-31.28
-32.41
-33.49
-34.69
-36.14
-37.84
-39.67
-41.32
-42.45
-42.78
-42.16
-40.57
-38.12
-34.89
-31.00
-26.63
-22.05
-17.62
-13.75
-10.74
-8.71
-7.58
-7.14
-7.17
-7.50
-7.99
-8.48
-8.75
-8.61
-8.01
-7.19
-6.58
-6.62
-7.55
-9.26
-11.32
-13.25
-14.77
-15.89
-16.83
-17.75
-18.60
-18.95
-18.24
-16.02
-12.19
-7.01
-1.05
5.15
11.20
16.90
22.19
26.95
30.95
33.91
35.61
35.99
35.16
33.33
30.73
27.58
24.12
20.62
17.39
14.63
12.36
10.45
8.79
7.52
7.04
7.89
10.51
14.93
20.77
27.37
34.04
40.29
45.97
51.20
56.26
61.45
66.99
72.95
79.35
86.13
93.22
100.56
108.03
115.53
122.88
129.97
136.80
143.68
151.23
160.21
171.21
184.38
199.25
214.74
229.44
241.81
250.33
253.63
250.46
239.81
221.16
194.67
161.32
122.87
81.64
40.05
0.18
-36.51
-69.48
-99.12
-126.64
-153.81
-182.63
-214.98
-252.07
-293.89
-338.75
-383.20
-422.82
-453.61
-473.61
-483.54
-486.39
-485.95
-485.07
-484.73
-484.10
-481.30
-474.31
-461.63
-442.53
-417.08
-386.25
-351.75
-315.61
-279.61
-244.65
-210.50
-176.10
-140.03
-100.91
-57.46
-8.71
45.73
104.90
166.07
224.99
276.75
317.05
343.07
353.86
350.28
334.72
310.81
282.70
253.97
226.69
201.05
176.29
152.19
130.44
114.86
110.02
118.66
139.48
166.56
191.39
206.31
207.88
198.45
184.79
174.74
173.14
179.48
188.33
192.26
185.61
166.89
138.73
105.70
71.61
38.16
5.26
-27.33
-58.52
-85.61
-105.39
-115.92
-117.72
-113.88
-108.55
-104.99
-104.15
-104.57
-103.73
-99.75
-92.62
-84.10
-76.51
-71.13
-67.53
-64.14
-59.60
-53.77
-47.70
-42.57
-38.73
-35.50
-31.92
-27.70
-23.54
-20.61
-19.58
-20.01
-20.67
-20.44
-19.00
-16.90
-14.86
-13.07
-11.02
-7.95
-3.59
1.54
6.38
10.06
12.33
13.56
14.23
14.47
13.93
12.14
9.03
5.07
1.17
-1.86
-3.69
-4.61
-5.17
-5.82
-6.67
-7.50
-8.00
-8.05
-7.73
-7.21
-6.53
-5.61
-4.24
-2.34
-0.00
2.47
4.81
6.85
8.62
10.15
11.36
12.03
11.92
11.03
9.74
8.68
8.48
9.45
11.45
13.99
16.52
18.62
20.10
20.87
20.83
19.93
18.33
16.45
14.92
14.26
14.56
15.36
15.94
15.60
14.13
11.77
9.13
6.76
4.97
3.77
3.00
2.52
2.22
1.96
1.51
0.62
-0.76
-2.32
-3.45
-3.53
-2.29
-0.14
2.00
3.03
2.22
-0.49
-4.48
-8.81
-12.55
-15.15
-16.45
-16.72
-16.42
-16.02
-15.91
-16.34
-17.32
-18.64
-19.90
-20.67
-20.54
-19.35
-17.07
-13.94
-10.26
-6.22
-1.63
4.20
12.19
23.09
36.96
52.93
69.14
83.24
93.35
98.94
100.94
100.90
99.99
98.25
94.81
88.04
76.21
58.21
34.15
5.45
-25.46
-55.53
-81.51
-99.93
-108.67
-107.73
-99.05
-85.33
-68.67
-49.96
-29.06
-5.56
21.01
49.64
77.68
101.70
118.92
127.87
128.19
120.26
100.38
68.90
31.37
-3.82
-30.46
-46.79
-54.37
-56.09
-54.46
-51.17
-46.43
-40.43
-33.99
-28.55
-25.51
-25.67
-28.85
-33.83
-39.24
-43.63
-47.46
-51.80
-58.96
-70.76
-86.87
-104.32
-117.97
-123.64
-119.58
-107.18
-89.58
-70.21
-52.21
-38.69
-33.29
-38.60
-56.75
-87.64
-127.33
-168.09
-197.56
-205.32
-187.23
-146.78
-90.78
-28.98
29.06
76.60
111.81
137.11
156.64
174.40
193.88
221.06
258.95
305.66
354.73
397.57
425.99
433.73
418.29
363.34
271.30
163.00
65.12
-6.62
-51.98
-79.01
-96.19
-109.01
-119.20
-123.73
-121.21
-113.94
-106.26
-102.12
-104.76
-114.42
-130.64
-151.55
-170.98
-181.95
-179.04
-159.55
-124.64
-79.95
-34.33
2.13
21.70
22.61
6.75
-25.44
-70.27
-121.61
-171.75
-212.92
-239.74
-250.68
-247.64
-235.50
-219.62
-202.76
-184.51
-162.76
-135.87
-104.46
-70.86
-37.14
-4.23
28.06
59.98
90.14
115.57
133.27
141.80
141.99
136.43
128.16
119.81
113.84
112.38
116.90
127.45
141.46
153.90
158.92
152.39
134.04
107.85
80.42
58.15
44.94
41.08
43.63
47.80
48.73
43.11
30.37
12.77
-5.46
-19.59
-26.12
-23.99
-14.89
-2.36
9.53
17.44
19.64
16.18
8.68
-0.53
-9.26
-16.24
-21.24
-24.66
-26.83
-27.71
-27.02
-24.78
-21.71
-18.87
-16.67
-14.04
-8.68
1.76
17.90
37.68
56.94
71.24
77.79
76.60
70.09
61.59
53.86
48.32
45.03
43.36
42.46
41.48
39.70
36.61
32.29
27.74
24.81
25.53
31.03
40.76
52.16
61.30
64.14
57.92
42.06
18.26
-10.44
-40.77
-70.10
-96.70
-119.35
-136.88
-148.20
-152.69
-150.72
-143.76
-133.80
-122.56
-111.05
-99.62
-88.36
-77.36
-66.60
-55.29
-41.49
-22.55
3.28
35.04
68.06
94.68
106.86
99.47
72.69
32.37
-11.83
-49.56
-72.85
-78.00
-65.88
-40.87
-8.96
23.93
53.25
76.27
92.01
100.77
103.48
101.18
94.62
84.06
69.08
48.57
21.40
-12.42
-50.66
-88.54
-119.71
-138.29
-140.95
-127.97
-102.80
-70.35
-35.05
0.57
35.52
69.25
100.87
128.98
151.91
167.86
174.80
170.46
153.38
123.38
82.90
38.19
-0.86
-23.28
-21.19
6.56
53.23
107.28
155.26
185.69
192.47
176.13
142.31
99.38
56.56
22.70
7.13
15.73
47.92
96.13
147.98
189.73
210.30
204.62
175.13
133.07
91.85
61.42
45.51
42.27
46.07
50.02
48.29
25.69
-20.21
-77.21
-127.79
-162.54
-182.03
-190.93
-192.80
-189.33
-182.09
-170.72
-156.58
-143.40
-135.08
-132.74
-135.68
-139.97
-142.70
-144.00
-143.78
-143.45
-146.28
-156.08
-174.23
-199.32
-227.03
-243.55
-241.37
-216.86
-172.64
-117.70
-64.17
-21.32
6.76
21.88
29.18
34.18
39.49
45.28
50.27
53.17
55.21
58.21
63.68
71.59
79.88
86.52
90.31
91.82
85.03
70.71
52.35
34.09
18.54
5.90
-4.87
-14.93
-24.41
-33.01
-38.83
-40.65
-37.17
-29.55
-19.65
-9.32
0.06
8.57
16.54
25.45
36.18
48.94
63.39
79.42
97.61
114.20
128.12
138.98
147.33
153.38
156.79
156.47
151.07
139.22
120.05
94.39
63.90
31.30
-0.53
-29.06
-52.49
-69.68
-80.12
-84.06
-82.06
-75.61
-66.61
-57.02
-48.60
-42.66
-40.06
-41.31
-46.67
-55.98
-68.84
-84.21
-99.88
-112.63
-118.79
-115.46
-101.86
-80.43
-56.59
-36.97
-26.56
-26.04
-31.82
-37.88
-38.85
-32.22
-19.67
-5.77
4.60
8.32
5.32
-3.55
-17.61
-36.12
-56.34
-73.54
-82.19
-78.01
-60.41
-32.65
-2.05
23.57
40.05
49.87
59.34
74.24
97.15
126.54
159.43
190.92
215.64
228.96
229.19
215.82
188.73
148.88
90.70
19.36
-51.71
-106.87
-143.63
-162.89
-165.53
-156.23
-143.66
-137.74
-143.78
-161.46
-184.36
-202.54
-205.58
-188.42
-153.89
-110.16
-66.37
-28.20
1.31
20.43
27.89
24.24
11.87
-4.43
-17.55
-20.25
-8.07
17.02
47.18
72.71
87.71
92.41
92.11
93.54
100.74
112.76
123.73
126.25
115.68
93.02
64.41
38.13
21.37
17.89
27.41
46.44
69.90
92.92
112.28
126.46
135.12
138.26
135.85
127.94
115.22
99.29
82.71
68.40
58.66
54.01
52.71
51.04
44.47
29.88
7.46
-18.80
-42.70
-58.61
-64.35
-62.06
-56.84
-54.02
-56.67
-65.02
-77.67
-93.07
-110.40
-128.85
-146.55
-160.11
-165.65
-160.61
-145.31
-123.18
-99.38
-78.88
-64.73
-57.35
-54.64
-52.86
-48.04
-37.49
-20.92
-0.69
19.22
34.89
44.23
47.62
47.22
45.60
44.37
43.72
42.96
41.32
38.32
33.69
26.99
17.74
6.07
-6.49
-16.81
-20.90
-15.66
-0.42
22.38
47.74
70.04
85.01
91.07
89.49
83.39
76.28
70.71
68.05
68.62
72.34
79.12
88.78
100.56
112.70
122.63
127.77
126.63
119.43
108.16
95.74
84.69
76.38
70.67
66.43
62.08
56.26
47.97
36.66
22.21
4.94
-14.33
-34.40
-53.93
-71.80
-87.37
-100.51
-111.34
-120.02
-126.71
-131.55
-134.84
-136.94
-138.15
-138.38
-137.18
-133.89
-128.10
-120.05
-110.69
-101.40
-93.35
-86.93
-81.78
-76.99
-71.73
-65.73
-59.36
-53.37
-48.39
-44.58
-41.51
-38.49
-34.95
-30.86
-26.72
-23.36
-21.41
-21.01
-21.71
-22.70
-23.14
-22.59
-21.09
-19.10
-17.24
-15.87
-14.96
-14.11
-12.76
-10.53
-7.56
-4.53
-2.32
-1.57
-2.28
-3.81
-5.17
-5.61
-5.11
-4.36
-4.50
-6.59
-11.15
-17.97
-26.09
-33.97
-39.81
-42.05
-39.74
-32.80
-21.96
-8.47
6.36
21.46
36.09
49.68
61.73
71.66
79.00
83.47
85.19
84.57
82.09
78.13
72.91
66.62
59.60
52.33
45.30
38.72
32.43
26.00
19.02
11.42
3.68
-3.39
-8.92
-12.44
-13.93
-13.78
-12.41
-10.08
-6.82
-2.65
2.11
6.80
10.53
12.45
12.15
9.84
6.36
2.96
1.00
1.49
4.91
11.24
20.05
30.66
42.19
53.41
62.72
68.42
69.12
64.26
54.34
40.77
25.41
10.04
-4.09
-16.38
-26.68
-35.02
-41.37
-45.59
-47.69
-47.98
-47.13
-46.04
-45.37
-45.29
-45.28
-44.40
-41.67
-36.63
-29.55
-21.38
-13.35
-6.53
-1.55
1.49
2.79
2.72
1.57
-0.48
-3.32
-6.83
-10.74
-14.60
-17.83
-19.89
-20.50
-19.71
-17.93
-15.69
-13.38
-11.17
-9.04
-6.91
-4.87
-3.23
-2.31
-2.33
-3.21
-4.47
-5.43
-5.44
-4.17
-1.82
0.99
3.37
4.61
4.45
3.21
1.60
0.41
0.13
0.86
2.28
3.99
5.65
7.07
8.23
9.20
10.13
11.23
12.73
14.72
17.04
19.33
21.18
22.39
23.03
23.36
23.55
23.56
23.17
22.20
20.72
19.08
17.66
16.59
15.58
14.08
11.64
8.25
4.44
1.16
-0.70
-0.73
0.81
3.03
4.81
5.26
4.02
1.36
-2.05
-5.45
-8.28
-10.25
-11.39
-11.88
-11.94
-11.79
-11.60
-11.47
-11.44
-11.50
-11.71
-12.06
-12.52
-12.90
-12.85
-12.05
-10.39
-8.11
-5.72
-3.63
-1.93
-0.27
1.87
4.78
8.21
11.42
13.58
14.26
13.66
12.51
11.64
11.59
12.35
13.54
14.64
15.25
15.27
14.81
14.13
13.46
12.87
12.34
11.67
10.70
9.37
7.83
6.38
5.28
4.55
4.01
3.30
2.19
0.75
-0.67
-1.62
-1.87
-1.49
-0.81
-0.20
0.16
0.29
0.26
0.12
-0.22
-0.76
-1.38
-1.78
-1.70
-1.11
-0.28
0.37
0.58
0.32
-0.18
-0.67
-1.10
-1.61
-2.39
-3.49
-4.72
-5.81
-6.59
-7.13
-7.65
-8.28
-8.97
-9.46
-9.46
-8.80
-7.57
-5.97
-4.32
-2.95
-2.17
-2.28
-3.45
-5.62
-8.45
-11.39
-13.87
-15.51
-16.23
-16.20
-15.77
-15.27
-14.87
-14.61
-14.34
-13.83
-12.82
-11.08
-8.54
-5.34
-1.78
1.74
4.90
7.56
9.79
11.78
13.63
15.29
16.48
16.88
16.36
15.09
13.47
12.01
11.02
10.50
10.21
9.80
9.02
7.82
6.29
4.59
2.90
1.39
0.25
-0.39
-0.46
-0.01
0.73
1.46
1.87
1.79
1.14
-0.01
-1.55
-3.34
-5.15
-6.78
-8.00
-8.67
-8.75
-8.34
-7.57
-6.59
-5.47
-4.22
-2.86
-1.43
-0.03
1.24
2.37
3.37
4.28
5.03
5.49
5.50
5.03
4.20
3.25
2.44
1.99
1.99
2.45
3.34
4.59
6.04
7.39
8.33
8.59
8.09
7.00
5.64
4.33
3.30
2.63
2.25
2.02
1.80
1.50
1.12
0.77
0.57
0.67
1.09
1.73
2.40
2.89
3.03
2.83
2.40
1.91
1.55
1.36
1.25
1.04
0.53
-0.38
-1.58
-2.80
-3.70
-4.06
-3.89
-3.46
-3.16
-3.32
-4.08
-5.37
-6.95
-8.48
-9.69
-10.40
-10.56
-10.23
-9.57
-8.84
-8.29
-8.05
-7.94
-7.58
-6.51
-4.52
-1.82
0.99
3.20
4.33
4.33
3.54
2.40
1.31
0.44
-0.19
-0.53
-0.54
-0.26
0.17
0.48
0.52
0.42
0.59
1.49
3.27
5.60
7.71
8.71
8.09
5.96
3.04
0.41
-0.98
-0.72
0.83
2.66
3.50
2.32
-1.00
-5.64
-9.98
-12.42
-12.17
-9.73
-6.80
-5.44
-7.04
-11.53
-17.61
-23.27
-27.18
-29.49
-31.29
-33.76
-37.53
-42.66
-49.31
-58.32
-70.63
-85.80
-100.49
-108.00
-100.84
-75.00
-33.58
12.66
48.95
62.86
49.58
13.62
-33.28
-77.80
-110.26
-126.78
-128.06
-116.34
-92.69
-57.71
-13.54
35.92
84.37
124.72
151.97
165.16
167.21
163.47
156.87
145.76
127.76
102.15
71.48
42.07
21.76
16.62
29.94
58.81
94.44
128.80
156.15
173.66
182.54
187.65
195.40
212.65
239.95
269.07
290.46
296.28
282.80
252.31
211.87
158.03
98.95
57.93
36.51
27.93
27.05
28.09
25.36
15.14
-2.41
-20.90
-33.42
-37.58
-32.59
-20.81
-7.29
3.31
8.70
8.92
6.26
0.93
-10.21
-28.25
-52.00
-78.48
-103.87
-125.17
-141.73
-154.84
-168.63
-188.79
-217.77
-254.03
-292.63
-326.77
-349.96
-358.17
-350.24
-328.24
-296.60
-259.42
-220.13
-181.83
-146.98
-116.88
-91.32
-68.91
-48.75
-31.74
-20.36
-17.34
-23.50
-36.49
-50.70
-59.88
-60.20
-51.86
-38.35
-24.18
-12.73
-5.26
-2.00
-2.22
-5.10
-10.15
-16.67
-23.34
-28.40
-30.41
-28.85
-25.12
-20.89
-17.92
-18.23
-23.82
-35.84
-53.82
-75.46
-96.70
-113.64
-121.70
-117.39
-100.01
-71.75
-36.55
1.50
39.18
79.81
118.94
149.51
167.40
173.06
169.50
160.36
149.22
139.01
131.62
126.36
122.22
118.29
113.70
108.24
102.64
99.50
99.95
104.73
113.01
123.82
135.82
146.61
152.89
151.40
140.22
119.68
92.84
63.76
36.71
14.35
-3.42
-18.31
-32.13
-45.76
-58.34
-67.37
-70.42
-66.56
-57.53
-47.69
-42.23
-44.98
-56.39
-72.97
-88.58
-97.26
-95.72
-84.61
-68.06
-51.50
-39.09
-32.26
-29.64
-28.49
-26.60
-23.28
-19.06
-14.56
-9.48
-2.59
7.34
20.55
35.54
49.59
59.85
64.82
65.10
63.03
61.56
62.86
67.40
73.76
79.49
82.12
80.30
74.18
65.17
55.33
46.49
39.65
34.64
30.42
25.71
19.69
12.47
4.96
-1.62
-6.45
-9.64
-12.34
-15.99
-21.50
-28.61
-36.07
-42.61
-47.66
-51.54
-55.06
-58.84
-62.67
-65.69
-66.89
-65.66
-62.35
-57.70
-52.21
-46.10
-39.61
-33.09
-27.29
-22.61
-18.77
-15.45
-12.16
-8.41
-4.44
-1.13
1.22
3.02
6.01
12.63
23.59
37.96
54.10
69.75
82.42
90.69
93.10
88.46
75.93
53.91
22.36
-14.95
-52.38
-84.75
-108.63
-124.61
-135.95
-138.08
-130.22
-116.58
-102.41
-90.47
-85.57
-82.50
-75.88
-62.67
-42.81
-17.03
10.42
37.73
65.08
92.79
119.96
142.15
153.07
147.74
123.98
81.98
33.08
-7.67
-32.52
-44.73
-52.51
-63.54
-74.92
-80.55
-75.30
-56.89
-29.04
2.17
27.47
40.48
41.39
36.68
33.69
36.08
41.97
44.01
34.05
8.82
-27.06
-63.68
-90.98
-104.00
-103.19
-91.30
-71.04
-44.06
-11.83
22.88
55.08
78.91
90.33
89.36
80.34
69.17
60.13
53.60
46.63
34.86
15.12
-12.34
-43.03
-69.25
-83.07
-79.64
-59.52
-28.60
3.86
28.72
40.21
37.36
23.71
5.26
-12.05
-24.42
-31.11
-33.57
-34.04
-33.75
-32.27
-28.07
-20.13
-9.19
2.16
10.76
14.79
14.69
13.08
12.97
16.25
23.15
32.63
43.11
52.65
59.03
59.96
54.07
41.33
23.70
5.34
-8.52
-13.83
-9.66
1.55
15.17
27.17
34.90
37.59
36.76
35.61
37.15
42.45
50.28
57.47
61.38
59.35
49.39
31.83
10.09
-10.66
-25.36
-30.33
-24.03
-5.61
22.64
50.95
66.53
61.75
40.71
15.38
0.61
-2.81
1.74
7.74
8.65
-0.22
-17.23
-36.21
-49.88
-52.74
-43.00
-19.98
13.01
49.53
82.89
108.39
123.24
125.65
115.04
86.34
44.14
-0.94
-38.98
-66.04
-82.85
-91.99
-95.63
-94.71
-91.26
-82.89
-68.76
-50.59
-31.84
-16.04
-5.90
-2.82
-6.45
-14.80
-23.43
-28.84
-29.86
-27.37
-22.83
-17.22
-10.69
-3.06
5.37
14.00
20.62
22.54
18.46
9.69
-0.54
-8.90
-13.95
-16.82
-19.94
-26.05
-36.45
-50.22
-64.57
-76.21
-82.65
-82.91
-77.37
-67.17
-53.99
-39.90
-27.00
-17.03
-10.93
-8.60
-9.09
-11.10
-13.54
-15.84
-17.65
-18.60
-18.04
-15.29
-10.15
-3.28
3.99
10.11
14.04
15.62
15.54
14.89
14.58
14.96
15.91
17.01
17.94
18.56
18.89
18.88
18.36
17.19
15.43
13.63
12.63
13.26
15.93
20.36
25.67
30.77
34.81
37.52
39.21
40.45
41.72
43.10
44.28
44.63
43.43
40.06
34.04
25.28
14.10
1.42
-11.29
-22.31
-30.07
-33.76
-33.65
-31.00
-27.47
-24.45
-22.44
-21.18
-19.97
-18.35
-16.39
-14.56
-13.36
-12.88
-12.78
-12.43
-11.38
-9.57
-7.36
-5.30
-3.81
-3.04
-2.73
-2.55
-2.30
-2.06
-2.23
-3.22
-5.20
-7.91
-10.72
-12.86
-13.82
-13.59
-12.64
-11.62
-11.05
-11.01
-11.16
-10.96
-9.91
-7.74
-4.37
0.04
5.10
10.25
14.74
17.81
18.91
17.94
15.34
11.98
8.85
6.65
5.58
5.31
5.28
5.08
4.60
4.11
4.02
4.60
5.80
7.26
8.42
8.85
8.36
7.16
5.70
4.48
3.81
3.77
4.15
4.65
5.10
5.46
5.84
6.35
6.88
7.14
6.71
5.36
3.25
0.91
-0.94
-1.67
-1.08
0.58
2.79
5.00
6.82
7.99
8.39
7.82
6.20
3.59
0.38
-2.80
-5.16
-6.12
-5.47
-3.46
-0.70
2.06
4.21
5.45
5.87
5.83
5.72
5.82
6.14
6.50
6.70
6.65
6.43
6.24
6.18
6.22
6.20
5.97
5.54
5.03
4.61
4.35
4.20
4.05
3.83
3.61
3.51
3.65
4.05
4.62
5.14
5.33
4.95
3.94
2.39
0.58
-1.09
-2.29
-2.87
-2.88
-2.60
-2.34
-2.38
-2.81
-3.59
-4.60
-5.65
-6.58
-7.24
-7.50
-7.30
-6.68
-5.76
-4.71
-3.70
-2.76
-1.86
-0.94
0.02
0.91
1.54
1.72
1.44
0.88
0.34
0.08
0.19
0.50
0.80
0.98
1.13
1.55
2.49
4.00
5.77
7.31
8.18
8.20
7.51
6.48
5.55
5.00
4.86
4.99
5.13
5.01
4.46
3.35
1.73
-0.27
-2.33
-4.04
-5.02
-5.02
-4.07
-2.41
-0.47
1.29
2.57
3.17
3.09
2.42
1.31
-0.05
-1.41
-2.49
-3.08
-3.13
-2.83
-2.54
-2.65
-3.41
-4.75
-6.32
-7.69
-8.53
-8.76
-8.51
-8.05
-7.60
-7.28
-7.04
-6.72
-6.11
-5.02
-3.30
-1.03
1.53
3.92
5.63
6.29
5.80
4.42
2.65
1.02
-0.09
-0.51
-0.31
0.39
1.41
2.63
3.93
5.17
6.21
6.86
7.05
6.80
6.26
5.61
5.00
4.54
4.25
4.15
4.25
4.53
4.89
5.18
5.25
5.10
4.84
4.70
4.83
5.20
5.60
5.76
5.53
4.99
4.38
3.92
3.65
3.44
3.05
2.34
1.33
0.13
-1.20
-2.72
-4.55
-6.69
-8.90
-10.70
-11.63
-11.50
-10.51
-9.16
-7.95
-7.10
-6.50
-5.86
-4.97
-3.93
-3.05
-2.64
-2.74
-3.08
-3.24
-2.94
-2.22
-1.38
-0.76
-0.54
-0.61
-0.71
-0.62
-0.30
0.11
0.34
0.23
-0.30
-1.18
-2.28
-3.46
-4.54
-5.34
-5.74
-5.73
-5.48
-5.30
-5.52
-6.32
-7.56
-8.95
-10.07
-10.68
-10.81
-10.79
-11.05
-11.95
-13.63
-15.92
-18.37
-20.26
-20.89
-19.73
-16.74
-12.43
-7.65
-3.23
0.35
3.09
5.26
6.95
7.92
7.52
5.22
1.02
-4.42
-9.99
-14.72
-18.24
-20.86
-23.19
-25.65
-28.18
-30.14
-30.70
-29.02
-24.66
-17.72
-8.83
1.00
10.64
19.01
25.13
27.99
26.75
21.13
11.95
1.37
-7.49
-11.81
-10.38
-4.44
3.02
9.21
13.47
18.10
27.24
44.26
69.40
99.03
126.97
147.21
156.33
154.30
143.47
126.83
106.49
83.53
58.76
33.69
10.92
-6.59
-16.68
-18.99
-15.17
-8.49
-2.62
-0.48
-3.32
-10.43
-19.59
-28.18
-34.44
-38.05
-40.04
-41.86
-44.43
-47.85
-52.30
-59.01
-70.53
-89.47
-116.12
-146.62
-173.22
-187.20
-183.19
-162.12
-130.83
-98.43
-71.37
-50.32
-30.83
-7.22
22.91
56.54
86.69
106.42
112.94
108.94
100.84
94.94
94.28
97.60
101.01
101.05
96.73
89.97
83.85
80.56
79.85
79.43
76.57
69.62
58.68
44.93
29.82
14.67
0.89
-9.61
-14.54
-12.18
-2.60
11.82
27.07
39.40
46.91
49.99
50.33
49.10
45.98
39.41
28.18
12.76
-4.29
-19.41
-29.72
-34.10
-33.65
-30.86
-28.54
-29.05
-33.85
-43.47
-57.66
-75.50
-95.35
-115.00
-131.99
-144.04
-149.48
-147.62
-139.03
-125.57
-109.93
-94.68
-81.04
-67.89
-51.88
-28.74
4.43
47.21
95.43
142.06
179.07
199.42
198.88
177.27
138.84
91.17
42.86
0.75
-32.39
-58.58
-83.02
-110.60
-142.37
-174.35
-199.24
-210.00
-203.17
-180.26
-146.76
-109.50
-73.74
-41.27
-11.02
18.86
48.81
77.41
102.04
120.44
131.67
134.00
126.17
109.11
86.52
62.84
40.99
22.16
6.81
-4.84
-12.59
-16.09
-15.12
-10.32
-3.51
2.91
6.87
7.51
5.31
1.91
-0.66
-0.81
1.62
5.37
8.57
9.88
9.14
7.25
5.57
5.21
6.51
8.61
9.91
9.03
5.51
0.18
-5.46
-10.09
-13.56
-16.25
-19.40
-24.30
-31.46
-40.98
-52.41
-65.15
-77.65
-87.40
-90.21
-81.82
-60.24
-27.64
9.56
43.35
67.46
80.64
85.98
88.54
91.62
94.57
93.38
83.73
64.46
37.70
11.25
-7.69
-15.83
-14.63
-8.57
-2.60
0.34
-0.02
-2.50
-4.92
-5.78
-5.15
-4.10
-4.38
-7.35
-14.11
-23.79
-35.17
-46.25
-56.01
-64.97
-74.52
-85.65
-97.42
-106.06
-104.01
-88.56
-59.91
-22.45
16.53
50.51
76.75
95.31
108.01
115.69
115.93
105.46
82.63
50.38
16.80
-8.37
-18.91
-15.89
-7.23
-3.42
-9.82
-23.14
-32.93
-27.49
-0.69
44.50
97.70
146.86
179.86
189.78
176.41
144.34
99.51
47.39
-7.29
-59.40
-103.34
-134.46
-150.46
-153.10
-148.09
-142.70
-142.33
-147.96
-155.74
-158.95
-150.92
-127.10
-86.55
-32.48
28.16
86.07
131.66
157.65
161.14
144.62
115.33
82.80
55.55
38.67
33.05
36.04
43.06
49.09
49.76
42.57
27.29
5.65
-19.74
-46.85
-74.98
-104.07
-132.99
-158.15
-173.72
-174.17
-157.63
-128.04
-94.25
-66.37
-51.32
-50.11
-58.44
-69.84
-79.18
-84.35
-85.61
-83.57
-77.87
-67.28
-51.32
-31.54
-11.51
4.67
14.56
18.53
19.38
20.48
24.05
30.15
37.23
43.15
46.22
45.42
40.02
29.61
14.74
-2.11
-16.12
-21.09
-11.77
13.57
51.73
95.22
134.70
162.20
173.55
169.12
152.64
129.07
102.57
75.62
49.27
24.31
2.00
-15.95
-28.03
-33.81
-34.06
-30.20
-23.45
-14.36
-3.14
9.56
22.08
32.15
37.81
38.41
34.92
29.33
23.51
18.54
14.39
10.27
5.06
-2.19
-11.83
-23.20
-34.42
-42.77
-45.72
-42.14
-33.07
-21.36
-10.39
-2.55
1.68
3.33
3.94
4.59
5.48
6.32
6.86
7.10
7.09
6.60
5.15
2.38
-1.56
-5.96
-9.94
-12.98
-15.17
-16.85
-18.01
-17.95
-15.60
-10.42
-3.19
3.95
8.36
8.17
3.35
-4.03
-10.64
-13.02
-8.89
2.07
18.18
36.29
52.74
64.46
69.89
69.24
64.18
56.94
49.27
41.84
34.24
25.59
15.37
4.02
-7.06
-16.04
-21.47
-22.96
-21.37
-18.51
-16.46
-16.91
-20.74
-27.87
-37.29
-47.07
-54.49
-56.51
-50.78
-36.67
-16.03
7.11
27.89
42.43
49.21
49.21
44.93
39.01
33.19
28.08
23.58
19.49
15.80
12.63
10.13
8.31
7.05
6.18
5.50
4.86
4.34
4.44
6.13
10.34
17.10
24.82
30.33
30.03
21.80
6.43
-12.28
-28.94
-38.97
-40.55
-35.10
-26.23
-17.72
-11.88
-8.92
-7.51
-6.10
-3.91
-1.24
0.87
1.51
0.34
-2.21
-5.36
-8.39
-11.03
-13.30
-15.27
-16.76
-17.24
-16.18
-13.49
-9.82
-6.61
-5.60
-8.09
-14.25
-22.71
-30.78
-35.32
-33.99
-26.27
-13.85
0.05
12.08
20.15
24.07
25.16
25.16
25.23
25.59
25.80
25.31
23.82
21.30
17.92
14.08
10.44
7.75
6.44
6.26
6.29
5.54
3.74
1.76
1.09
2.79
6.61
10.95
13.72
13.57
10.58
5.97
1.25
-2.66
-5.63
-7.99
-9.90
-11.12
-11.23
-10.11
-8.17
-6.15
-4.73
-4.15
-4.10
-4.01
-3.49
-2.58
-1.80
-1.75
-2.78
-4.69
-6.80
-8.29
-8.52
-7.24
-4.55
-0.91
2.85
5.51
5.66
2.25
-4.82
-14.22
-23.54
-30.03
-31.81
-28.52
-21.46
-12.89
-5.14
0.18
2.48
2.10
-0.05
-2.86
-5.28
-6.50
-6.05
-3.87
-0.12
4.98
11.30
18.77
27.12
35.56
42.77
47.21
47.86
44.74
39.03
32.57
27.00
22.99
20.04
16.99
12.94
7.86
2.75
-1.08
-2.82
-2.77
-2.10
-2.20
-3.82
-6.75
-10.02
-12.52
-13.53
-12.93
-11.11
-8.77
-6.83
-6.31
-8.02
-12.16
-17.96
-23.87
-28.14
-29.77
-29.06
-27.50
-26.88
-28.30
-31.71
-36.10
-40.27
-43.52
-45.68
-46.75
-46.64
-45.38
-43.68
-43.28
-46.49
-55.02
-68.80
-85.64
-102.19
-115.42
-124.02
-128.87
-132.37
-137.06
-144.10
-152.55
-159.34
-160.24
-151.30
-130.68
-99.88
-63.84
-29.41
-2.67
13.86
22.55
29.41
41.09
61.41
89.60
121.04
150.00
172.59
188.37
199.79
209.98
220.50
230.39
236.78
236.68
228.53
212.78
191.44
167.13
142.21
118.29
96.31
76.59
58.90
42.68
27.32
12.46
-1.73
-14.49
-24.77
-31.62
-34.61
-34.09
-31.04
-26.74
-22.49
-19.31
-17.74
-17.57
-17.59
-15.88
-10.59
-1.10
11.17
22.90
30.20
30.30
22.85
10.01
-4.51
-16.89
-24.08
-23.91
-14.78
4.34
33.03
68.29
104.42
134.33
152.02
155.10
145.51
128.06
107.76
87.66
68.36
49.26
30.16
11.65
-5.72
-22.81
-42.20
-66.94
-98.71
-136.35
-175.80
-211.56
-238.63
-253.94
-256.71
-247.96
-229.46
-203.12
-170.75
-134.21
-95.64
-57.48
-22.39
6.86
28.04
40.42
45.40
46.78
49.51
57.37
70.99
87.50
102.01
110.40
111.85
109.31
107.90
111.74
121.14
131.91
136.94
129.13
103.96
60.78
2.78
-63.85
-130.52
-187.16
-223.66
-232.65
-212.72
-170.26
-118.03
-70.71
-39.47
-28.29
-33.94
-49.05
-66.19
-80.35
-89.01
-90.83
-84.62
-69.71
-47.15
-20.44
5.37
25.87
39.20
46.49
50.22
52.08
51.94
48.65
41.84
32.98
24.84
19.65
17.59
16.75
14.46
9.42
2.77
-2.64
-4.13
-1.07
4.81
10.65
14.33
15.68
16.19
17.69
20.82
24.56
26.96
26.46
22.95
17.90
13.50
11.55
12.59
15.61
18.66
19.71
17.55
12.29
5.30
-1.40
-5.97
-7.51
-6.27
-3.41
-0.19
2.71
5.42
8.55
12.51
16.93
20.64
22.22
20.86
16.94
11.86
7.40
4.69
3.76
3.65
3.16
1.61
-0.82
-3.18
-4.40
-3.86
-1.72
1.05
3.14
3.50
2.00
-0.31
-1.54
0.12
5.25
12.73
19.97
24.12
23.40
17.93
9.48
0.56
-6.70
-11.11
-12.46
-11.22
-8.36
-5.22
-3.36
-4.21
-8.38
-15.15
-22.53
-28.00
-29.65
-26.98
-21.18
-14.37
-8.68
-5.33
-4.27
-4.54
-4.82
-4.17
-2.34
0.22
2.69
4.30
4.64
3.79
2.27
0.84
0.17
0.51
1.50
2.19
1.38
-1.65
-6.76
-12.68
-17.62
-20.14
-19.85
-17.61
-14.84
-12.59
-10.93
-9.11
-6.33
-2.53
1.35
4.02
4.69
3.67
2.18
1.60
2.57
4.68
6.80
7.72
6.83
4.23
0.59
-3.35
-6.91
-9.59
-11.01
-10.99
-9.82
-8.34
-7.85
-9.56
-13.98
-20.45
-27.19
-31.91
-32.75
-29.00
-21.43
-11.90
-2.63
4.58
8.79
10.02
8.98
6.87
5.00
4.55
6.09
9.31
12.98
15.43
15.28
12.14
6.84
0.94
-3.98
-6.96
-7.73
-6.42
-3.29
1.22
6.01
9.07
7.88
0.56
-12.72
-29.16
-44.14
-53.13
-53.71
-46.52
-34.62
-21.70
-10.30
-1.07
6.76
14.24
21.64
28.27
33.02
35.09
34.46
31.68
27.38
21.94
15.43
8.10
0.59
-5.91
-10.06
-10.84
-8.06
-2.39
5.02
13.13
21.52
30.43
40.25
50.87
61.17
69.15
72.81
71.11
64.58
55.03
44.54
34.51
25.19
16.12
7.01
-1.71
-9.03
-14.12
-17.06
-18.89
-20.96
-24.06
-27.92
-31.48
-33.68
-34.13
-33.17
-31.48
-29.43
-26.93
-23.71
-19.71
-15.38
-11.49
-8.74
-7.47
-7.61
-8.88
-10.98
-13.59
-16.26
-18.39
-19.42
-19.11
-17.61
-15.36
-12.72
-9.70
-5.97
-1.28
4.17
9.54
13.70
15.76
15.57
13.82
11.73
10.43
10.61
12.21
14.62
16.87
17.92
16.93
13.56
8.11
1.57
-4.58
-8.82
-10.09
-8.16
-3.71
1.86
6.97
10.31
11.30
10.17
7.91
5.88
5.21
6.26
8.37
10.00
9.51
6.07
0.29
-6.00
-10.66
-12.44
-11.58
-9.64
-8.44
-8.90
-10.47
-11.52
-10.44
-6.64
-1.00
4.75
8.96
10.91
11.08
10.52
10.21
10.49
11.06
11.30
10.77
9.43
7.70
6.20
5.53
6.03
7.65
9.92
12.04
13.08
12.32
9.58
5.38
0.76
-3.14
-5.57
-6.35
-5.86
-4.69
-3.44
-2.69
-3.06
-5.23
-9.61
-15.89
-22.77
-28.19
-30.11
-27.47
-20.82
-12.12
-3.88
1.98
4.78
5.19
4.53
4.12
4.67
6.20
8.20
9.88
10.47
9.52
7.12
3.96
1.11
-0.54
-0.75
-0.07
0.57
0.56
0.18
0.43
2.38
6.31
11.37
15.94
18.61
18.94
17.57
15.68
14.26
13.61
13.40
13.24
12.95
12.78
13.06
13.93
15.24
16.62
17.69
18.21
18.20
17.87
17.56
17.57
18.07
18.94
19.85
20.44
20.62
20.71
21.31
22.93
25.60
28.75
31.42
32.73
32.20
30.05
27.18
24.99
25.17
29.30
38.30
51.92
68.39
84.52
96.45
100.67
95.10
79.64
56.13
27.72
-2.02
-29.90
-53.63
-72.01
-84.74
-92.32
-95.74
-96.30
-95.45
-94.55
-94.55
-95.67
-97.28
-98.14
-97.00
-93.29
-87.61
-81.57
-77.13
-75.74
-77.73
-82.24
-87.68
-92.30
-94.67
-93.89
-89.47
-81.41
-70.09
-56.39
-41.51
-26.63
-12.58
0.42
12.44
23.51
33.18
40.65
45.13
46.43
45.25
42.95
41.07
40.62
41.86
44.27
46.84
48.43
47.96
44.64
38.18
29.07
18.70
9.24
2.98
1.43
4.67
11.21
18.63
24.63
27.96
28.78
28.21
27.53
27.35
27.34
26.49
23.78
18.87
12.37
5.62
0.11
-3.18
-4.13
-3.48
-2.32
-1.50
-1.16
-0.76
0.63
3.58
7.93
12.70
16.58
18.50
18.20
16.30
13.90
11.94
10.68
9.65
8.05
5.32
1.69
-1.98
-4.55
-5.35
-4.51
-2.87
-1.54
-1.29
-2.30
-4.27
-6.71
-9.25
-11.56
-13.29
-13.95
-13.16
-11.04
-8.47
-6.87
-7.65
-11.38
-17.30
-23.54
-27.79
-28.38
-24.93
-18.55
-11.29
-5.17
-1.37
0.17
0.47
0.92
2.52
5.55
9.54
13.55
16.55
17.81
17.09
14.71
11.53
8.59
6.73
6.20
6.63
7.30
7.64
7.72
8.08
9.38
11.77
14.66
17.05
18.07
17.52
15.92
14.08
12.64
11.73
11.11
10.47
9.66
8.75
7.82
6.82
5.57
3.95
2.02
0.07
-1.50
-2.54
-3.17
-3.85
-5.07
-7.17
-10.06
-13.33
-16.39
-18.69
-19.86
-19.78
-18.65
-17.02
-15.76
-15.85
-17.94
-21.90
-26.56
-29.98
-30.24
-26.31
-18.64
-8.93
0.64
8.42
13.82
17.23
19.44
21.14
22.57
23.65
24.11
23.60
21.82
18.58
14.04
8.83
4.00
0.52
-1.15
-1.33
-0.88
-0.61
-0.79
-1.00
-0.50
1.18
3.90
6.93
9.33
10.44
10.13
8.72
6.78
4.88
3.36
2.31
1.58
0.89
-0.05
-1.34
-2.81
-3.95
-4.16
-3.02
-0.56
2.53
5.09
5.94
4.50
1.16
-2.77
-5.70
-6.53
-5.28
-3.00
-1.21
-1.15
-3.31
-7.37
-12.63
-18.32
-23.65
-27.70
-29.42
-27.83
-22.64
-14.62
-5.57
2.31
7.33
8.98
8.10
6.36
5.43
6.18
8.39
10.88
12.27
11.63
9.06
5.51
2.27
0.23
-0.52
-0.52
-0.43
-0.49
-0.34
0.65
2.90
6.17
9.61
12.21
13.17
12.31
10.00
6.96
4.03
1.90
0.93
1.02
1.74
2.43
2.62
2.21
1.55
1.24
1.70
2.89
4.24
4.90
4.17
1.87
-1.51
-4.99
-7.55
-8.53
-7.92
-6.28
-4.45
-3.31
-3.57
-5.61
-9.52
-14.95
-21.04
-26.46
-29.68
-29.49
-25.53
-18.49
-9.95
-1.77
4.50
8.12
9.23
8.65
7.49
6.75
6.90
7.71
8.38
7.98
6.09
3.14
0.29
-1.18
-0.68
1.32
3.53
4.60
4.01
2.37
1.15
1.72
4.57
9.01
13.53
16.68
17.72
16.84
14.84
12.54
10.43
8.61
7.10
5.99
5.52
5.80
6.60
7.44
7.74
7.18
5.73
3.61
0.93
-2.29
-6.07
-10.15
-13.97
-16.81
-18.18
-18.17
-17.40
-16.76
-17.12
-18.97
-22.38
-26.99
-32.05
-36.54
-39.33
-39.58
-37.11
-32.52
-27.02
-21.90
-18.00
-15.48
-13.86
-12.29
-9.92
-6.22
-1.20
4.56
9.93
13.65
14.81
13.37
10.21
6.85
4.67
4.35
5.54
7.24
8.48
8.93
9.03
9.64
11.38
14.18
17.26
19.60
20.48
19.93
18.63
17.50
17.06
17.16
17.02
15.78
13.04
9.15
5.02
1.56
-0.77
-2.10
-2.91
-3.55
-3.94
-3.55
-1.84
1.32
5.36
8.99
10.73
9.35
4.48
-3.24
-12.24
-20.44
-25.90
-27.40
-24.86
-19.27
-12.30
-5.61
-0.28
3.41
5.94
8.04
10.17
12.29
13.84
14.09
12.54
9.25
4.92
0.60
-2.73
-4.65
-5.44
-5.86
-6.65
-8.04
-9.51
-10.07
-8.82
-5.56
-1.00
3.49
6.59
7.61
6.84
5.32
4.24
4.35
5.59
7.23
8.29
8.10
6.65
4.57
2.80
2.08
2.53
3.66
4.61
4.61
3.36
1.11
-1.57
-4.09
-6.04
-7.16
-7.26
-6.16
-3.99
-1.40
0.37
-0.13
-3.85
-10.57
-18.87
-26.49
-31.28
-31.98
-28.55
-22.10
-14.25
-6.66
-0.57
3.41
5.36
5.94
6.14
6.83
8.29
10.16
11.59
11.81
10.55
8.24
5.74
3.88
3.05
3.12
3.67
4.25
4.65
4.96
5.50
6.64
8.67
11.73
15.50
19.29
22.15
23.20
22.10
19.19
15.45
11.95
9.63
9.02
10.34
13.69
18.84
24.87
29.82
30.87
25.33
12.18
-6.93
-27.76
-45.10
-54.83
-55.53
-48.57
-37.04
-24.18
-12.35
-2.93
3.23
5.45
3.42
-2.27
-9.86
-16.80
-20.67
-20.28
-16.01
-9.53
-2.93
2.08
4.64
4.82
3.38
1.44
0.11
-0.02
0.88
1.89
1.78
-0.29
-4.42
-9.86
-15.47
-20.30
-24.02
-26.81
-29.00
-30.62
-31.26
-30.31
-27.44
-22.91
-17.51
-12.22
-7.72
-4.24
-1.65
0.27
1.69
2.77
3.74
4.94
6.65
8.81
11.04
12.75
13.67
14.03
14.50
15.72
17.87
20.49
22.72
23.82
23.45
21.69
18.87
15.31
11.36
7.52
4.50
3.04
3.53
5.69
8.57
10.91
11.77
10.93
8.91
6.68
5.05
4.36
4.44
4.79
4.92
4.50
3.47
1.93
0.09
-1.68
-3.04
-3.71
-3.68
-3.21
-2.66
-2.27
-2.01
-1.65
-0.97
-0.01
0.83
1.03
0.26
-1.41
-3.53
-5.48
-6.79
-7.30
-7.13
-6.44
-5.28
-3.47
-0.72
3.20
8.22
13.81
18.99
22.60
23.66
21.81
17.47
11.73
5.89
0.99
-2.44
-4.44
-5.40
-5.89
-6.64
-8.35
-11.64
-16.64
-22.58
-27.81
-30.26
-28.40
-22.09
-12.83
-3.12
4.69
9.36
11.18
11.42
11.47
12.08
13.20
14.19
14.20
12.54
8.93
3.66
-2.39
-7.89
-11.58
-12.77
-11.77
-9.69
-7.76
-6.57
-5.77
-4.43
-1.87
1.76
5.44
7.96
8.71
8.03
6.89
6.27
6.53
7.25
7.66
7.17
5.81
4.19
3.15
3.29
4.60
6.53
8.20
8.80
8.01
6.08
3.71
1.80
1.07
1.77
3.63
5.86
7.44
7.46
5.40
1.34
-3.96
-9.15
-12.62
-13.04
-9.86
-3.73
3.61
9.94
13.39
13.20
9.97
5.35
1.22
-1.11
-1.45
-0.60
0.11
-0.45
-2.71
-6.31
-10.40
-14.02
-16.61
-18.15
-19.07
-19.91
-20.90
-21.82
-22.07
-21.08
-18.75
-15.63
-12.74
-11.05
-11.03
-12.41
-14.31
-15.70
-15.92
-14.80
-12.68
-10.20
-8.00
-6.61
-6.21
-6.66
-7.45
-7.93
-7.45
-5.73
-2.84
0.74
4.38
7.45
9.52
10.44
10.30
9.40
8.18
7.27
7.34
8.94
12.15
16.38
20.43
22.97
23.16
21.17
18.12
15.53
14.62
15.68
18.03
20.46
21.92
22.00
20.93
19.25
17.40
15.52
13.50
11.14
8.33
5.08
1.69
-1.17
-2.44
-1.05
3.58
10.84
18.75
24.40
25.03
19.17
7.44
-7.71
-22.86
-34.91
-42.16
-44.58
-43.59
-41.26
-39.43
-39.06
-40.10
-41.69
-42.81
-42.89
-42.04
-40.93
-40.39
-40.87
-42.41
-44.69
-47.35
-50.10
-52.60
-54.53
-55.71
-56.78
-59.40
-66.18
-79.20
-98.43
-120.62
-139.79
-149.11
-143.47
-121.52
-86.09
-43.01
0.84
39.54
69.33
88.95
99.20
102.54
102.10
101.06
101.43
103.13
103.82
99.91
88.56
69.57
46.23
24.14
9.11
4.95
12.19
28.49
49.96
72.79
94.08
112.16
126.07
135.27
139.26
137.60
130.08
116.98
99.54
80.33
62.86
50.52
44.99
45.24
47.71
48.12
43.98
36.45
30.30
31.81
45.64
72.12
106.46
140.29
164.87
174.43
167.89
148.26
120.51
88.75
54.56
17.22
-24.87
-72.56
-125.29
-181.34
-238.50
-294.33
-346.08
-390.54
-424.31
-444.61
-450.05
-440.88
-418.54
-384.96
-342.27
-293.13
-241.05
-190.48
-146.16
-111.89
-89.46
-78.09
-74.63
-74.58
-73.24
-66.76
-52.89
-31.40
-3.58
28.69
64.00
102.06
143.34
187.86
233.98
277.92
314.58
339.59
351.16
351.15
344.39
336.79
332.94
334.43
339.57
344.64
345.83
340.84
329.60
313.62
294.79
274.19
251.69
226.32
197.13
164.00
127.67
89.30
49.75
9.29
-32.01
-73.37
-112.74
-146.84
-172.21
-186.70
-190.48
-186.07
-177.25
-167.42
-158.43
-150.29
-141.88
-132.13
-120.92
-109.25
-98.69
-90.56
-85.36
-82.63
-81.31
-80.32
-79.05
-77.47
-75.92
-74.59
-73.17
-70.77
-66.45
-59.71
-51.00
-41.58
-32.94
-26.21
-21.70
-18.94
-17.14
-15.62
-14.08
-12.52
-11.18
-10.22
-9.75
-9.70
-9.86
-9.95
-9.84
-9.66
-9.89
-11.07
-13.35
-16.26
-18.80
-20.11
-20.05
-19.47
-19.71
-21.69
-25.24
-29.01
-31.19
-30.45
-26.60
-20.70
-14.40
-9.24
-6.04
-4.76
-4.70
-5.01
-5.04
-4.58
-3.82
-3.05
-2.38
-1.79
-1.18
-0.65
-0.57
-1.24
-2.63
-4.23
-5.27
-5.22
-4.08
-2.38
-0.70
0.70
1.99
3.50
5.27
6.96
8.12
8.52
8.42
8.24
8.17
7.98
7.27
5.89
4.29
3.25
3.39
4.74
6.67
8.20
8.66
7.87
6.19
4.26
2.74
2.09
2.52
3.85
5.47
6.40
5.61
2.35
-3.35
-10.48
-17.26
-21.68
-22.28
-18.82
-12.52
-5.52
0.03
2.99
3.69
3.63
4.48
7.16
11.37
15.91
19.36
20.80
19.94
17.02
12.57
7.29
2.05
-2.14
-4.42
-4.48
-2.68
0.12
3.08
5.68
7.85
9.74
11.43
12.77
13.54
13.54
12.77
11.40
9.64
7.67
5.68
3.85
2.43
1.71
1.88
2.84
4.18
5.18
5.16
3.77
1.10
-2.34
-5.92
-9.16
-11.91
-14.26
-16.40
-18.54
-20.74
-22.97
-25.03
-26.60
-27.19
-26.36
-23.78
-19.49
-13.89
-7.66
-1.60
3.56
7.37
9.84
11.41
12.86
14.82
17.46
20.28
22.29
22.68
21.17
18.25
14.73
11.37
8.47
6.00
3.92
2.47
2.07
3.04
5.32
8.39
11.46
13.81
15.00
14.97
13.91
12.28
10.56
9.18
8.33
7.98
7.93
7.97
7.98
7.85
7.35
5.98
3.09
-1.93
-9.17
-18.08
-27.51
-35.98
-42.02
-44.48
-42.70
-36.77
-27.76
-17.74
-9.33
-4.75
-4.81
-8.52
-13.42
-16.85
-17.10
-14.03
-8.82
-3.12
1.79
5.37
7.66
8.94
9.44
9.41
9.14
9.02
9.23
9.52
9.36
8.10
5.54
2.08
-1.46
-4.26
-5.95
-6.77
-7.28
-7.98
-8.91
-9.56
-9.17
-7.28
-4.11
-0.53
2.37
3.79
3.69
2.63
1.40
0.62
0.61
1.49
3.36
6.21
9.78
13.41
16.19
17.28
16.38
13.84
10.55
7.63
6.02
6.17
7.87
10.23
11.93
11.81
9.59
6.24
3.70
3.74
6.83
11.53
15.02
14.65
9.52
1.19
-7.10
-11.83
-10.94
-4.75
4.36
12.71
16.25
11.27
-5.01
-33.37
-71.54
-113.42
-149.81
-170.85
-169.61
-145.12
-103.11
-54.16
-9.47
23.15
41.51
48.53
49.60
49.46
50.44
52.37
53.90
53.99
52.73
51.19
50.70
52.05
54.85
57.77
59.13
57.61
52.81
45.50
37.00
28.59
20.86
13.66
6.56
-0.49
-6.89
-11.62
-13.93
-13.97
-12.75
-11.61
-11.32
-11.71
-11.81
-10.60
-7.58
-3.06
2.14
7.10
11.03
13.41
14.03
13.05
11.16
9.35
8.58
9.21
10.81
12.50
13.46
13.47
12.82
11.85
10.43
7.93
3.76
-2.01
-8.32
-13.52
-16.30
-16.29
-14.10
-10.82
-7.31
-3.90
-0.51
2.97
6.39
9.41
11.67
13.01
13.52
13.39
12.83
11.91
10.68
9.02
6.74
3.67
-0.15
-4.33
-8.14
-10.72
-11.53
-10.68
-8.93
-7.50
-7.52
-9.64
-13.77
-19.03
-24.01
-27.09
-27.00
-23.30
-16.74
-9.06
-2.30
2.17
4.16
4.63
4.96
6.08
8.01
10.01
11.17
10.97
9.58
7.65
5.90
4.80
4.39
4.34
4.16
3.49
2.36
1.30
1.23
2.87
6.20
10.19
13.14
13.56
11.00
6.27
0.99
-3.39
-6.34
-8.25
-10.03
-12.44
-15.76
-19.88
-24.42
-28.65
-31.37
-30.87
-25.52
-14.57
1.07
18.80
35.17
47.16
53.16
53.35
49.08
42.01
33.40
23.75
12.94
0.68
-13.22
-28.63
-44.75
-59.98
-72.01
-78.41
-77.71
-70.24
-58.29
-45.23
-34.07
-26.15
-20.83
-16.37
-11.28
-5.45
-0.20
2.66
2.10
-1.36
-5.79
-8.84
-8.82
-5.36
0.69
7.95
15.10
21.40
26.86
31.98
37.31
43.06
48.88
53.79
56.77
57.19
55.31
52.21
49.10
46.71
44.79
42.38
38.46
32.77
25.99
19.36
13.89
9.82
6.57
3.35
-0.25
-3.98
-7.23
-9.58
-11.08
-12.28
-13.70
-15.56
-17.72
-19.97
-22.27
-24.72
-27.22
-29.19
-29.66
-27.88
-23.88
-18.70
-13.90
-10.80
-9.72
-9.93
-10.14
-9.28
-7.03
-3.83
-0.51
2.17
3.72
3.97
3.02
1.12
-1.33
-3.89
-6.21
-8.18
-9.88
-11.34
-12.34
-12.33
-10.78
-7.54
-3.13
1.46
5.14
7.22
7.59
6.55
4.49
1.68
-1.61
-5.04
-7.97
-9.70
-9.70
-7.73
-3.90
1.44
7.69
14.02
19.45
22.96
24.03
22.79
20.05
16.88
14.08
11.91
10.18
8.62
7.07
5.38
3.17
-0.24
-5.53
-12.64
-20.44
-26.87
-29.88
-28.46
-23.22
-16.06
-9.25
-4.42
-2.05
-1.65
-2.32
-3.15
-3.53
-3.12
-1.90
-0.22
1.21
1.60
0.49
-1.83
-4.45
-6.35
-6.98
-6.67
-6.19
-6.10
-6.15
-5.42
-2.97
1.36
6.61
11.24
13.91
14.20
12.68
10.35
8.06
6.16
4.66
3.51
2.77
2.56
2.82
3.28
3.59
3.69
3.84
4.45
5.67
7.13
8.02
7.61
5.67
2.73
-0.17
-2.02
-2.27
-1.11
0.72
2.25
2.54
1.01
-2.57
-7.93
-14.31
-20.40
-24.67
-25.82
-23.40
-18.13
-11.63
-5.73
-1.68
0.34
1.03
1.44
2.28
3.68
5.34
6.86
7.97
8.64
8.84
8.50
7.59
6.25
4.86
3.87
3.47
3.42
3.25
2.66
1.81
1.40
2.22
4.56
7.86
10.87
12.23
11.25
8.34
4.74
1.83
0.38
0.13
0.06
-0.82
-2.77
-5.16
-6.97
-7.62
-7.46
-7.59
-8.98
-11.78
-15.03
-17.28
-17.49
-15.76
-13.13
-10.92
-9.97
-10.32
-11.54
-13.19
-15.08
-17.08
-18.75
-19.30
-17.95
-14.53
-9.82
-5.28
-2.26
-1.31
-1.88
-2.76
-2.74
-1.29
1.35
4.39
6.91
8.19
7.88
5.96
2.74
-1.20
-5.13
-8.32
-10.10
-10.12
-8.30
-4.84
-0.20
5.03
10.23
14.90
18.72
21.57
23.45
24.38
24.47
24.01
23.43
23.26
23.72
24.56
24.96
24.01
21.17
16.74
11.78
7.56
4.89
3.69
3.19
2.52
1.35
0.14
-0.15
1.27
4.53
9.02
13.74
17.89
21.13
23.45
24.82
24.97
23.49
20.24
15.64
10.74
6.64
3.99
2.54
1.35
-0.60
-3.90
-8.27
-12.84
-16.53
-18.60
-18.78
-17.33
-14.83
-12.03
-9.68
-8.33
-8.21
-9.14
-10.70
-12.37
-13.79
-14.82
-15.38
-15.33
-14.28
-11.78
-7.56
-1.87
4.46
10.35
14.91
17.97
20.16
22.55
26.09
30.86
35.68
38.45
37.16
31.06
21.35
11.01
3.97
3.45
10.80
24.61
41.07
55.04
61.40
56.10
36.54
2.09
-45.09
-99.89
-154.96
-202.67
-237.57
-258.11
-266.49
-266.83
-262.32
-253.28
-237.93
-214.45
-182.97
-145.48
-104.45
-61.47
-17.04
28.38
73.52
114.72
145.93
160.59
155.19
131.20
95.39
58.15
31.10
25.09
46.15
92.34
153.30
213.35
256.24
269.70
249.14
198.78
132.17
67.00
18.64
-4.71
-2.65
19.29
52.62
89.60
115.59
120.03
103.98
77.96
51.04
26.36
4.02
-15.38
-29.67
-37.81
-38.79
-33.46
-24.98
-17.76
-14.34
-13.94
-13.12
-6.44
8.02
30.22
56.59
79.72
90.57
83.03
57.14
16.83
-25.14
-57.40
-73.44
-73.64
-63.85
-51.87
-42.94
-37.95
-34.70
-30.24
-23.93
-16.55
-9.83
-5.16
-3.92
-5.83
-8.99
-11.80
-13.06
-13.74
-15.10
-17.44
-19.48
-20.18
-18.14
-12.61
-4.54
2.97
6.26
3.55
-4.16
-13.75
-23.57
-31.98
-37.49
-39.07
-37.45
-34.31
-31.45
-30.78
-34.59
-48.04
-74.85
-115.92
-163.87
-211.07
-249.15
-270.35
-269.78
-233.28
-164.50
-83.30
-12.71
35.27
61.26
73.03
78.61
82.46
85.32
83.78
76.26
64.92
54.18
46.99
44.27
45.18
47.90
50.71
50.71
46.92
40.77
35.01
31.48
30.97
33.49
38.65
45.80
53.46
60.04
65.11
69.36
73.40
77.95
83.61
90.74
99.47
109.27
120.15
132.46
145.89
157.97
163.99
158.62
138.68
105.62
65.58
27.48
-1.10
-16.95
-22.24
-22.38
-22.61
-25.28
-29.60
-33.64
-34.48
-32.28
-29.34
-28.26
-29.91
-32.72
-33.73
-30.48
-22.91
-13.68
-7.13
-6.73
-13.27
-24.41
-35.94
-43.85
-46.14
-43.45
-38.26
-33.61
-31.33
-31.50
-32.99
-34.47
-35.40
-36.19
-37.71
-40.47
-44.35
-48.51
-51.86
-53.51
-53.07
-50.59
-46.39
-40.93
-34.77
-28.73
-23.80
-20.88
-20.56
-22.77
-26.82
-31.63
-36.14
-39.70
-42.38
-44.79
-47.74
-51.75
-56.64
-61.48
-64.73
-64.87
-60.97
-52.98
-41.86
-29.14
-16.59
-5.58
3.29
10.33
16.57
23.22
31.16
40.48
50.62
60.76
70.35
79.31
87.85
95.93
102.92
107.56
108.40
104.47
95.78
83.42
69.11
54.62
41.22
29.44
19.16
9.99
1.68
-5.80
-12.23
-17.50
-21.89
-26.03
-30.70
-36.29
-42.44
-47.94
-51.31
-51.51
-48.62
-43.87
-39.02
-35.42
-33.33
-31.85
-29.66
-25.90
-20.77
-15.41
-11.13
-8.57
-7.29
-5.96
-3.19
1.63
8.09
14.98
21.05
25.57
28.54
30.43
31.73
32.69
33.17
32.85
31.50
29.11
26.02
22.88
20.43
19.24
19.52
21.05
23.25
25.31
26.29
25.48
22.68
18.27
13.03
7.78
2.98
-1.34
-5.50
-10.03
-15.00
-19.80
-23.23
-24.28
-22.73
-19.54
-16.53
-15.71
-19.12
-27.33
-38.94
-50.74
-59.07
-61.33
-56.80
-46.72
-33.64
-21.83
-14.78
-13.81
-17.74
-23.91
-29.48
-32.27
-30.92
-25.37
-19.23
-17.32
-23.73
-40.01
-65.37
-96.74
-129.22
-156.56
-172.55
-175.86
-168.60
-155.58
-142.55
-135.86
-140.30
-157.60
-185.34
-200.52
-185.16
-135.97
-67.76
-0.62
52.09
87.66
109.94
125.03
137.53
146.57
149.46
143.85
130.41
110.23
86.48
61.52
36.73
12.87
-11.05
-34.12
-53.47
-58.75
-46.99
-20.67
13.38
47.80
77.67
100.03
116.06
126.60
132.21
132.91
129.97
125.07
119.41
112.84
99.88
80.72
58.62
38.44
22.50
9.93
-2.32
-16.55
-31.39
-42.46
-44.52
-36.45
-21.87
-7.98
-0.69
-1.33
-6.07
-10.20
-9.53
-2.68
7.03
13.63
11.28
-2.99
-28.05
-58.79
-87.57
-106.20
-108.67
-94.24
-67.63
-37.22
-11.28
5.03
10.87
8.69
2.24
-5.37
-12.82
-19.84
-25.92
-29.82
-29.95
-25.52
-17.29
-7.49
1.04
6.11
7.32
6.34
5.88
8.28
14.17
22.20
29.76
34.24
34.21
29.99
23.33
16.54
11.48
8.92
8.39
8.77
8.97
8.60
8.07
8.26
9.62
11.74
13.49
13.87
12.79
11.25
10.69
11.96
14.73
17.71
19.48
19.34
17.63
15.47
14.03
14.03
15.50
17.89
20.36
22.12
22.65
21.93
20.40
18.81
17.77
17.49
17.67
17.75
17.21
15.94
14.11
12.06
10.08
8.29
6.54
4.51
1.82
-1.80
-6.09
-10.23
-13.10
-13.84
-12.44
-9.88
-7.72
-7.16
-8.43
-10.65
-12.34
-12.26
-9.98
-5.89
-0.84
4.31
9.02
13.09
16.51
19.28
21.35
22.61
22.94
22.34
20.94
19.12
17.36
16.17
15.90
16.54
17.88
19.39
20.54
20.90
20.35
19.06
17.47
15.99
14.89
14.12
13.45
12.73
12.05
11.81
12.38
13.76
15.43
16.50
16.30
14.72
12.47
10.62
10.09
11.14
13.18
15.08
15.72
14.60
12.04
9.15
7.21
7.24
9.51
13.49
17.96
21.41
22.50
20.37
15.20
8.35
2.42
0.81
6.50
20.56
41.00
62.95
80.34
88.35
85.30
73.20
56.62
40.73
29.59
25.20
27.61
35.34
45.98
56.58
64.26
66.96
64.14
56.91
47.36
37.55
28.60
20.58
13.08
5.98
-0.23
-4.94
-7.74
-8.97
-9.71
-11.37
-14.97
-20.74
-28.07
-36.02
-43.99
-52.01
-60.70
-70.59
-81.42
-91.74
-99.30
-101.93
-98.49
-89.38
-76.21
-61.20
-46.40
-33.46
-23.61
-17.76
-16.39
-19.20
-24.99
-31.73
-37.20
-39.54
-37.82
-32.31
-24.32
-15.83
-8.93
-5.17
-5.10
-8.02
-12.18
-15.39
-15.96
-13.40
-8.90
-5.24
-5.85
-13.32
-27.80
-46.33
-63.54
-73.80
-73.87
-64.45
-49.88
-35.91
-26.99
-24.34
-26.14
-29.13
-30.77
-30.50
-29.50
-29.50
-31.49
-35.14
-39.13
-41.78
-41.67
-38.02
-31.13
-22.61
-15.51
-13.63
-20.20
-36.34
-59.92
-85.72
-106.94
-117.27
-112.95
-93.80
-63.05
-26.40
9.59
39.00
57.80
64.63
60.70
49.14
33.82
18.36
5.54
-2.86
-5.84
-3.21
4.32
15.10
26.66
36.32
41.79
41.96
37.10
28.86
19.78
12.79
10.50
14.49
24.73
39.57
56.30
72.17
85.37
95.31
102.16
106.05
106.56
102.84
94.36
81.66
66.52
51.46
38.82
29.73
23.93
20.15
16.98
13.62
10.08
6.90
4.59
3.33
2.80
2.51
1.99
1.04
-0.25
-1.55
-2.47
-2.78
-2.50
-1.96
-1.65
-1.99
-3.07
-4.65
-6.28
-7.62
-8.64
-9.50
-10.31
-10.93
-10.95
-9.89
-7.62
-4.40
-0.89
2.15
4.20
5.11
5.14
4.78
4.56
4.77
5.33
5.85
5.82
5.01
3.58
2.08
1.19
1.26
2.21
3.50
4.47
4.62
3.89
2.59
1.24
0.30
-0.02
0.16
0.50
0.60
0.17
-0.80
-2.05
-3.21
-4.00
-4.35
-4.46
-4.66
-5.23
-6.26
-7.60
-8.87
-9.65
-9.59
-8.53
-6.49
-3.74
-0.66
2.31
4.75
6.28
6.66
5.80
3.86
1.20
-1.63
-4.02
-5.48
-5.80
-5.06
-3.65
-2.02
-0.58
0.51
1.30
1.92
2.45
2.77
2.62
1.80
0.38
-1.29
-2.67
-3.39
-3.45
-3.32
-3.60
-4.71
-6.58
-8.61
-10.03
-10.30
-9.51
-8.30
-7.60
-8.15
-10.27
-13.83
-18.37
-23.22
-27.44
-29.82
-29.09
-24.27
-15.32
-3.39
9.39
20.55
28.20
31.63
31.34
28.58
24.70
20.71
17.05
13.82
10.95
8.41
6.32
4.85
4.12
4.01
4.03
3.50
1.91
-0.72
-3.68
-5.89
-6.52
-5.64
-4.16
-3.34
-3.88
-5.46
-6.92
-6.93
-4.84
-1.02
3.35
6.97
9.02
9.40
8.61
7.44
6.69
7.12
9.26
13.09
17.77
21.84
23.72
22.51
18.59
13.73
10.81
12.82
21.55
36.74
56.06
76.00
93.18
105.79
114.48
122.46
133.89
150.93
171.80
190.82
200.71
195.46
172.68
133.84
83.44
27.00
-30.68
-85.14
-130.79
-161.11
-171.47
-162.93
-143.59
-125.20
-117.21
-122.29
-135.03
-144.63
-140.71
-119.05
-82.48
-42.87
-14.75
-3.70
-3.79
-5.41
-2.88
3.57
9.87
11.66
7.46
-0.57
-7.68
-9.79
-5.52
3.86
16.15
29.86
42.99
54.35
63.39
69.64
71.83
68.29
58.41
43.40
25.24
5.64
-14.81
-36.51
-59.94
-85.02
-110.98
-136.92
-159.10
-175.57
-185.90
-190.13
-187.74
-176.93
-155.51
-122.28
-77.82
-24.28
35.06
97.30
160.08
220.80
275.40
318.08
342.42
343.82
321.48
278.48
221.04
156.75
92.82
35.02
-12.46
-46.72
-65.63
-68.11
-55.23
-30.82
-1.32
25.42
42.46
46.30
38.14
23.34
8.72
-0.55
-2.81
0.22
5.10
8.76
9.84
8.51
5.60
1.95
-1.72
-4.46
-5.28
-3.48
0.68
5.89
10.04
11.20
8.31
1.53
-8.10
-19.32
-31.10
-42.79
-54.01
-64.28
-72.61
-77.67
-78.45
-74.93
-68.42
-61.11
-55.09
-51.40
-49.57
-48.06
-45.32
-40.78
-35.29
-30.64
-28.70
-30.63
-36.55
-45.66
-56.66
-67.77
-76.81
-81.27
-78.86
-68.50
-50.99
-29.16
-7.10
11.28
23.69
29.82
31.22
30.07
27.96
25.33
21.87
17.34
12.21
7.65
4.64
3.48
3.66
4.07
3.78
2.72
1.80
2.43
5.53
10.37
15.34
18.74
19.55
17.59
13.39
7.85
1.68
-4.88
-13.56
-25.40
-39.93
-55.54
-70.55
-83.82
-94.50
-101.80
-105.21
-107.75
-111.87
-118.23
-126.49
-136.64
-149.11
-163.81
-179.41
-193.97
-210.42
-229.89
-250.03
-266.53
-276.60
-280.47
-280.56
-279.90
-281.57
-293.88
-320.13
-355.93
-391.78
-418.81
-432.07
-430.49
-415.42
-351.96
-233.05
-82.85
60.56
173.08
251.00
301.15
331.78
350.18
362.41
365.89
360.51
351.47
347.04
353.72
374.28
403.83
436.54
465.43
479.00
470.59
441.49
399.30
352.93
308.95
270.44
238.06
210.52
183.09
153.36
122.53
93.61
68.36
45.94
23.87
0.23
-25.52
-53.47
-81.41
-105.87
-124.19
-136.58
-145.99
-156.08
-168.48
-181.78
-192.58
-196.48
-190.57
-175.04
-153.20
-129.85
-108.99
-92.19
-79.04
-68.35
-59.34
-52.19
-47.55
-45.64
-45.45
-44.97
-42.11
-35.91
-27.24
-18.27
-11.21
-7.08
-5.12
-3.17
1.46
10.85
25.92
46.13
69.74
94.23
116.85
135.24
147.67
153.39
152.62
146.52
136.85
125.61
114.80
106.05
100.29
97.60
97.41
98.94
101.84
106.37
112.96
121.34
130.19
137.69
142.72
146.16
150.82
160.22
176.37
198.02
220.51
237.24
242.49
233.91
213.49
186.54
159.39
136.82
120.50
108.86
98.35
85.20
67.00
43.37
15.74
-13.60
-43.01
-72.06
-101.40
-132.01
-164.71
-199.91
-237.86
-279.35
-325.58
-377.20
-432.16
-484.52
-526.01
-549.87
-554.68
-545.32
-530.27
-516.57
-506.44
-496.00
-477.85
-445.90
-399.54
-344.13
-287.47
-235.54
-189.77
-148.81
-110.31
-72.09
-32.46
9.71
55.23
104.87
158.27
212.88
261.54
294.60
304.65
289.68
253.02
201.41
142.88
84.38
39.71
19.54
24.50
45.53
71.89
96.49
115.66
127.70
131.77
128.16
114.80
91.36
60.12
26.25
-3.91
-24.72
-32.05
-24.60
-3.77
31.06
70.82
105.46
131.49
152.03
169.77
185.63
195.18
195.22
184.34
164.50
141.79
123.39
113.18
109.72
107.67
100.26
83.57
54.89
18.59
-14.87
-36.02
-42.80
-40.05
-34.58
-31.48
-31.43
-32.55
-32.23
-28.93
-23.21
-17.43
-14.23
-14.90
-19.54
-25.97
-31.48
-33.72
-31.92
-27.23
-22.27
-20.23
-22.36
-29.47
-40.86
-55.52
-71.98
-88.28
-101.54
-108.21
-104.88
-87.15
-58.76
-26.19
3.28
24.48
35.71
38.49
36.01
31.25
25.96
20.17
14.48
9.78
7.20
7.28
9.29
11.47
11.97
10.01
5.60
0.83
-2.09
-1.79
1.92
8.26
15.88
23.38
29.08
31.25
29.56
24.55
18.24
13.64
13.57
19.08
29.01
40.50
50.51
58.26
64.84
73.02
85.29
101.58
118.22
128.86
127.07
107.46
73.41
32.74
-5.20
-32.93
-48.01
-52.99
-53.02
-52.88
-55.20
-58.74
-61.87
-64.03
-66.03
-69.19
-74.05
-79.43
-82.85
-81.67
-74.46
-62.87
-51.01
-43.83
-44.92
-54.26
-67.31
-76.34
-73.82
-56.23
-26.42
7.76
37.53
57.34
65.73
64.44
56.23
43.59
26.47
6.31
-13.35
-27.07
-30.64
-25.29
-17.40
-14.87
-21.52
-34.28
-44.76
-44.19
-27.53
4.14
43.32
78.88
99.56
101.84
91.53
78.10
68.03
64.56
71.18
86.27
107.11
130.25
152.01
168.70
177.41
171.61
145.47
104.07
59.54
24.06
3.12
-4.26
-2.40
4.29
12.69
22.16
33.22
44.86
53.86
57.03
54.40
48.04
41.74
37.98
38.16
42.61
49.74
54.50
52.07
41.91
27.30
12.69
0.95
-6.88
-11.90
-18.25
-29.53
-50.66
-81.60
-117.32
-151.20
-178.66
-197.63
-208.57
-214.15
-223.51
-244.99
-280.93
-328.31
-382.60
-440.55
-499.12
-553.63
-563.36
-504.52
-386.07
-242.75
-109.04
-3.53
69.67
115.83
144.28
163.80
174.29
172.98
160.01
140.25
121.46
109.92
109.11
119.01
137.04
154.40
163.48
162.28
154.65
147.89
147.50
156.27
174.24
199.95
228.35
254.55
275.40
282.02
271.58
243.84
202.20
153.45
106.71
68.51
41.60
24.91
15.09
9.53
6.15
3.78
1.69
-1.13
-6.99
-18.17
-35.39
-57.32
-80.38
-101.61
-115.09
-121.49
-123.47
-124.08
-125.44
-128.11
-131.27
-132.86
-131.37
-126.44
-119.54
-112.39
-106.84
-104.56
-106.61
-112.86
-120.89
-126.31
-123.66
-109.03
-81.33
-43.84
-3.47
31.81
56.03
67.45
68.50
63.88
57.84
52.96
49.84
47.82
46.21
44.61
43.23
42.28
41.83
41.73
42.01
43.27
46.91
54.87
68.43
87.07
107.45
123.87
130.07
122.19
100.98
71.53
42.64
21.47
10.85
8.68
9.63
9.01
4.57
-2.90
-10.94
-17.31
-21.66
-24.96
-28.91
-34.68
-42.26
-50.66
-57.84
-62.32
-63.53
-62.25
-59.46
-56.60
-55.22
-56.90
-63.18
-74.29
-88.85
-103.31
-112.25
-108.99
-89.54
-54.77
-10.79
33.30
69.90
95.30
110.29
119.29
129.04
144.54
167.90
198.43
233.46
270.16
304.59
330.97
337.20
319.82
283.21
237.17
194.74
159.67
132.80
112.88
95.93
79.11
62.27
44.76
26.66
5.73
-20.98
-53.97
-91.53
-133.14
-176.21
-216.11
-249.62
-276.36
-299.04
-321.97
-348.55
-380.97
-423.04
-473.51
-524.73
-565.83
-587.07
-583.61
-557.02
-513.83
-441.04
-343.00
-235.87
-137.95
-59.81
-2.97
35.37
58.29
68.89
70.54
63.72
51.09
37.02
25.30
17.38
12.28
7.69
2.55
-3.20
-11.48
-22.33
-34.05
-44.70
-53.58
-60.99
-67.86
-74.73
-81.44
-88.82
-96.27
-101.82
-102.81
-100.53
-95.92
-90.13
-84.03
-78.08
-73.21
-69.62
-66.85
-64.36
-61.90
-59.12
-55.96
-52.33
-48.03
-43.08
-37.34
-30.56
-22.61
-13.69
-3.90
6.43
16.90
27.22
37.17
46.62
55.39
63.21
69.68
74.61
77.85
79.53
80.07
80.15
80.56
81.92
84.46
87.97
92.02
96.16
100.20
104.40
109.47
116.20
125.15
136.33
149.33
163.39
177.62
191.43
204.79
218.22
232.61
249.03
268.42
291.51
318.01
346.20
372.70
393.15
403.48
401.26
386.64
362.26
332.69
302.27
273.77
247.98
224.44
202.62
182.68
165.36
151.30
141.56
135.75
132.12
128.35
122.85
115.56
107.74
100.97
96.21
95.83
100.59
109.39
119.80
129.50
137.50
144.19
150.66
157.84
170.03
189.50
215.32
243.56
269.39
289.67
303.83
313.52
321.16
334.03
356.25
386.58
418.72
444.66
458.79
459.54
449.24
399.36
298.40
153.90
-8.72
-160.38
-282.16
-368.32
-421.98
-449.68
-458.94
-451.17
-428.33
-394.34
-355.42
-317.79
-285.10
-258.66
-237.64
-220.94
-203.37
-181.69
-155.95
-129.37
-106.28
-89.94
-83.40
-84.46
-90.70
-96.96
-99.77
-98.59
-95.48
-93.36
-94.03
-100.29
-112.33
-128.53
-145.01
-159.46
-172.49
-187.01
-206.28
-231.94
-267.70
-313.48
-365.46
-417.14
-463.21
-501.38
-532.16
-557.72
-580.77
-609.44
-647.93
-693.96
-738.99
-771.96
-783.67
-769.56
-730.94
-639.33
-492.99
-314.60
-139.55
5.36
111.34
182.15
225.54
248.44
257.09
251.58
234.68
212.09
190.55
174.07
163.16
156.06
150.66
147.33
143.32
138.42
134.22
132.77
134.74
138.48
142.77
147.36
156.24
168.52
184.94
205.92
230.79
257.76
283.26
305.87
325.16
344.84
367.89
397.46
435.54
482.65
537.51
595.20
650.14
674.57
646.12
556.67
420.38
266.74
125.19
21.53
-49.19
-97.85
-135.41
-166.90
-194.19
-218.26
-241.01
-266.14
-296.86
-334.58
-374.20
-408.52
-429.46
-432.96
-420.51
-396.82
-366.93
-333.46
-297.27
-256.55
-211.41
-163.66
-115.52
-73.70
-44.30
-29.24
-25.86
-30.62
-39.94
-51.98
-65.13
-76.95
-86.28
-91.08
-89.68
-81.49
-67.48
-48.75
-26.55
-1.46
24.55
50.27
76.17
102.98
131.12
160.46
191.07
223.28
257.31
292.53
326.76
356.89
378.26
386.07
377.68
354.23
320.73
284.07
250.43
223.29
203.62
189.16
175.98
160.37
140.01
114.35
83.77
49.33
8.47
-36.03
-78.00
-110.57
-129.42
-134.12
-127.07
-112.35
-94.19
-76.18
-60.20
-47.59
-39.46
-35.45
-34.63
-35.60
-37.75
-41.18
-46.50
-54.02
-64.50
-78.76
-97.35
-121.16
-148.25
-178.12
-210.60
-244.64
-278.06
-308.56
-334.33
-354.07
-367.07
-372.44
-369.30
-356.51
-332.58
-296.84
-250.70
-197.55
-141.66
-87.50
-38.50
3.01
35.98
61.40
81.42
96.76
106.48
109.27
104.51
93.35
81.23
69.97
60.54
53.82
51.09
52.57
60.00
75.38
100.11
133.72
172.72
211.55
243.25
261.21
261.68
245.60
218.12
186.53
157.28
133.39
114.65
98.61
82.45
64.79
46.41
29.21
14.87
3.86
-4.79
-12.33
-19.55
-26.39
-32.05
-35.53
-36.46
-35.50
-34.00
-33.49
-34.66
-37.03
-39.26
-39.88
-37.99
-33.49
-26.76
-18.18
-8.06
3.21
14.71
24.82
31.81
34.83
34.55
33.02
32.73
35.35
41.01
48.44
55.64
60.91
63.32
62.80
59.77
54.75
48.15
40.20
30.93
20.18
7.74
-6.49
-22.25
-38.85
-55.09
-69.43
-80.36
-87.04
-89.74
-89.96
-90.07
-92.33
-97.73
-105.45
-113.08
-117.61
-116.64
-109.32
-96.58
-80.89
-65.66
-54.51
-50.36
-54.54
-66.20
-82.31
-98.46
-110.20
-114.47
-110.50
-99.75
-85.11
-69.89
-56.86
-47.54
-41.92
-38.42
-34.38
-27.05
-14.71
2.39
22.08
41.12
56.61
67.01
72.51
74.37
74.05
72.45
69.73
65.75
60.57
54.87
49.76
46.22
44.54
44.10
43.66
41.93
38.28
33.07
27.44
22.77
20.00
19.25
19.86
20.91
21.66
21.91
22.00
22.52
24.02
26.81
30.80
35.49
40.04
43.48
44.97
44.20
41.49
37.68
33.78
30.56
28.23
26.50
24.85
22.89
20.54
18.10
16.01
14.51
13.53
12.68
11.52
9.88
8.02
6.50
5.89
6.43
7.88
9.66
11.17
12.15
12.66
12.89
12.90
12.41
11.00
8.38
4.72
0.57
-3.33
-6.44
-8.54
-9.74
-10.30
-10.54
-10.70
-11.05
-11.78
-13.08
-15.01
-17.48
-20.37
-23.67
-27.55
-32.27
-37.97
-44.50
-51.21
-57.02
-60.45
-60.02
-54.76
-44.70
-31.21
-16.65
-3.60
6.33
13.19
18.67
25.03
33.72
44.46
55.32
63.80
68.27
68.66
66.28
62.81
59.23
55.51
50.90
44.69
36.88
28.14
19.49
11.65
4.79
-1.29
-6.79
-11.53
-14.94
-16.43
-15.78
-13.51
-10.65
-8.41
-7.60
-8.22
-9.56
-10.52
-10.09
-7.79
-3.75
1.39
6.80
11.78
16.05
19.99
24.53
30.82
39.54
50.37
61.86
71.91
78.80
81.99
82.36
81.49
80.61
79.71
77.72
73.60
67.56
61.54
58.16
58.77
62.21
64.94
62.88
53.87
38.79
20.67
2.32
-15.86
-36.15
-61.42
-92.22
-125.32
-154.77
-175.39
-185.95
-189.78
-192.18
-196.15
-199.75
-197.48
-184.95
-163.47
-141.27
-129.62
-136.30
-160.26
-191.38
-215.48
-221.59
-206.84
-176.32
-138.84
-101.47
-66.83
-34.20
-2.76
25.93
48.19
60.59
62.57
57.03
48.82
41.82
37.00
32.60
25.85
15.43
2.97
-7.38
-10.73
-3.61
14.62
41.52
72.66
103.13
128.99
147.79
158.59
161.41
156.98
146.66
132.58
117.46
104.16
94.78
90.04
88.93
89.26
88.61
85.36
79.35
71.76
64.56
59.58
57.69
58.55
60.76
62.56
62.55
60.29
56.57
53.21
52.52
56.58
66.34
81.20
98.96
116.27
129.61
136.09
134.18
123.90
106.74
85.21
62.23
40.43
21.74
7.08
-3.57
-10.85
-15.64
-18.94
-21.77
-25.11
-29.68
-35.73
-42.89
-50.60
-58.75
-68.25
-80.85
-98.12
-120.14
-144.87
-168.58
-187.08
-197.14
-197.11
-186.77
-166.91
-138.96
-105.15
-68.66
-33.31
-2.70
20.82
36.92
46.84
52.66
56.24
58.73
60.66
62.32
63.99
65.76
67.48
68.70
68.88
67.78
65.61
63.03
60.77
59.26
58.39
57.69
56.65
55.00
52.88
50.60
48.29
45.83
42.83
38.91
34.01
28.49
22.88
17.50
12.10
5.97
-1.91
-12.38
-26.00
-42.97
-63.02
-85.32
-108.13
-128.84
-144.35
-152.09
-150.93
-141.86
-127.72
-112.24
-98.67
-88.72
-82.26
-77.82
-73.56
-68.18
-61.37
-53.67
-45.97
-38.97
-32.77
-27.02
-21.23
-15.22
-9.31
-4.27
-0.89
0.63
0.88
1.17
2.80
6.47
11.84
17.81
23.10
27.06
29.90
32.50
35.69
39.71
44.03
47.78
50.44
52.23
54.02
56.74
60.66
65.20
69.11
71.34
71.69
71.03
71.06
73.55
79.49
88.59
99.17
108.66
114.56
115.57
112.39
107.85
105.89
109.90
120.59
135.09
147.34
150.22
138.32
109.83
67.14
16.01
-35.90
-80.92
-113.12
-129.73
-132.18
-126.09
-119.92
-122.12
-137.65
-165.43
-198.25
-225.55
-237.86
-230.65
-205.66
-169.29
-129.18
-91.38
-58.94
-32.65
-12.70
-0.05
3.49
-3.58
-20.90
-45.05
-70.27
-90.49
-101.82
-104.25
-101.75
-100.52
-105.98
-120.29
-141.47
-164.28
-182.55
-191.65
-189.96
-178.95
-162.21
-144.22
-129.19
-120.21
-118.58
-123.46
-132.01
-140.23
-144.17
-141.39
-131.50
-115.77
-96.20
-74.74
-53.15
-33.51
-18.69
-12.07
-16.35
-31.87
-55.32
-79.98
-97.58
-101.52
-89.43
-63.95
-31.52
0.63
27.56
47.94
63.36
76.25
87.91
97.80
104.52
107.44
107.93
109.10
114.37
125.69
142.67
163.09
184.45
205.36
225.86
246.47
266.72
284.20
295.06
295.68
284.64
263.72
237.29
210.27
186.00
165.01
145.51
125.16
102.86
79.55
57.66
39.67
26.83
18.75
13.93
10.67
7.78
4.68
1.06
-3.43
-9.10
-15.92
-23.23
-29.76
-34.22
-35.65
-33.78
-28.96
-21.87
-13.44
-4.80
2.62
7.29
8.06
4.77
-1.45
-8.36
-13.47
-15.01
-12.64
-7.44
-1.33
3.78
6.68
7.13
5.61
2.98
0.05
-2.60
-4.59
-5.70
-5.82
-4.98
-3.44
-1.67
-0.19
0.57
0.51
-0.12
-0.84
-1.18
-0.90
-0.02
1.30
2.85
4.43
5.82
6.67
6.61
5.44
3.25
0.47
-2.32
-4.62
-6.20
-7.15
-7.70
-8.13
-8.60
-9.16
-9.71
-10.07
-10.01
-9.32
-7.95
-6.11
-4.16
-2.57
-1.71
-1.66
-2.22
-3.03
-3.73
-4.06
-4.05
-3.91
-3.93
-4.25
-4.79
-5.17
-4.97
-3.93
-2.11
0.11
2.31
4.22
5.87
7.43
8.90
9.96
10.04
8.69
5.89
2.22
-1.39
-4.08
-5.43
-5.69
-5.49
-5.60
-6.57
-8.54
-11.22
-14.10
-16.64
-18.50
-19.57
-19.88
-19.55
-18.68
-17.42
-16.14
-15.53
-16.44
-19.48
-24.58
-30.79
-36.60
-40.52
-41.75
-40.47
-37.50
-33.80
-29.94
-25.94
-21.54
-16.58
-11.20
-5.68
-0.24
5.13
10.62
16.37
22.36
28.48
34.60
40.68
46.61
52.05
56.33
58.63
58.37
55.53
50.85
45.54
40.80
37.41
35.50
34.63
34.07
33.20
31.67
29.48
26.95
24.56
22.79
21.84
21.52
21.35
20.76
19.43
17.55
15.80
15.02
15.75
17.88
20.61
22.88
23.90
23.59
22.57
21.72
21.55
22.01
22.56
22.88
23.18
24.02
25.72
27.73
28.53
26.43
20.57
11.67
1.81
-6.49
-11.58
-13.34
-13.03
-12.45
-13.01
-15.25
-19.03
-23.87
-29.30
-34.87
-40.09
-44.20
-46.28
-45.58
-41.79
-35.28
-27.00
-18.11
-9.76
-2.79
2.41
5.94
8.30
10.05
11.74
13.77
16.54
20.18
24.56
29.50
34.91
40.88
47.52
54.89
62.96
71.88
81.45
91.08
100.09
107.81
113.83
118.02
120.54
121.62
121.65
120.05
115.43
106.36
92.07
73.05
50.52
26.07
-1.44
-30.34
-56.86
-76.47
-85.89
-84.50
-73.83
-56.93
-36.96
-16.44
3.50
22.03
37.81
50.10
58.09
61.48
60.25
55.11
47.33
38.44
29.06
18.56
5.26
-13.43
-36.48
-63.13
-92.04
-121.51
-149.81
-175.95
-199.94
-222.59
-245.41
-270.20
-299.13
-333.47
-372.34
-412.03
-446.35
-467.94
-470.37
-450.38
-408.99
-351.92
-287.73
-225.55
-172.89
-133.90
-108.59
-93.28
-81.78
-67.28
-44.57
-11.23
32.01
81.69
132.85
180.17
218.86
245.28
257.47
255.36
240.87
217.42
188.89
158.62
128.74
100.06
72.85
48.03
27.89
15.96
15.63
28.13
51.04
78.35
102.35
116.69
118.92
111.28
99.10
87.91
80.69
76.76
72.75
64.94
51.78
34.99
19.11
9.50
10.08
21.72
41.88
65.52
86.99
102.20
109.96
111.93
111.09
109.84
108.47
105.33
98.13
85.66
69.02
51.56
37.46
29.48
27.45
28.31
27.93
22.73
10.45
-9.62
-36.78
-68.50
-100.06
-124.51
-134.21
-123.28
-91.44
-46.18
-1.25
28.21
31.48
6.06
-42.06
-101.25
-157.62
-199.26
-218.93
-214.48
-187.84
-143.67
-88.50
-29.78
20.65
52.52
62.12
52.73
30.92
3.06
-25.85
-52.32
-74.25
-91.05
-102.45
-108.96
-111.99
-113.08
-113.48
-113.38
-112.11
-108.88
-103.26
-94.43
-82.09
-66.87
-50.11
-33.23
-16.89
-0.67
16.95
35.07
54.32
75.45
98.77
124.21
151.63
180.86
211.08
240.13
264.35
280.13
284.71
277.44
260.24
236.87
211.38
186.54
163.18
140.64
118.49
97.04
77.41
60.86
47.74
37.09
26.97
15.50
1.90
-12.85
-26.60
-37.15
-43.38
-45.85
-46.50
-47.62
-50.64
-55.50
-60.69
-64.21
-64.65
-61.80
-56.72
-51.25
-47.28
-46.05
-47.78
-51.60
-55.93
-59.04
-59.79
-58.01
-54.56
-50.80
-47.83
-45.98
-44.65
-42.78
-39.56
-34.89
-29.36
-23.92
-19.25
-15.45
-12.12
-8.65
-4.71
-0.39
3.87
7.61
10.58
12.92
14.97
17.00
18.94
20.37
20.68
19.48
16.89
13.56
10.47
8.46
7.87
8.49
9.75
11.14
12.50
14.06
16.20
19.12
22.64
26.24
29.27
31.24
32.09
32.17
32.15
32.75
34.41
36.88
39.10
39.36
35.84
27.45
14.27
-2.32
-20.22
-37.41
-52.61
-65.43
-76.10
-84.95
-92.06
-97.18
-100.09
-100.76
-99.48
-96.59
-92.28
-86.44
-78.82
-69.31
-58.10
-45.71
-32.88
-20.44
-9.12
0.46
7.87
12.93
15.74
16.70
16.48
15.79
15.14
14.77
14.69
14.80
15.04
15.45
16.01
16.66
17.18
17.40
17.20
16.63
15.79
14.75
13.59
12.39
11.37
10.82
10.96
11.75
12.88
13.86
14.26
13.89
12.85
11.37
9.66
7.71
5.39
2.59
-0.59
-3.82
-6.67
-8.83
-10.20
-10.92
-11.23
-11.24
-10.89
-9.98
-8.36
-6.12
-3.60
-1.25
0.58
1.79
2.50
2.90
3.13
3.22
3.18
3.05
2.95
3.05
3.43
4.06
4.76
5.31
5.53
5.35
4.77
3.87
2.84
1.89
1.29
1.22
1.76
2.85
4.28
5.82
7.23
8.30
8.90
8.95
8.45
7.47
6.14
4.57
2.86
1.08
-0.67
-2.29
-3.59
-4.39
-4.63
-4.37
-3.89
-3.51
-3.48
-3.94
-4.85
-6.10
-7.55
-9.17
-10.89
-12.64
-14.21
-15.31
-15.73
-15.40
-14.49
-13.33
-12.29
-11.68
-11.62
-12.02
-12.62
-13.13
-13.30
-13.04
-12.43
-11.56
-10.50
-9.30
-7.98
-6.69
-5.66
-5.26
-5.71
-6.99
-8.76
-10.58
-12.02
-12.90
-13.33
-13.49
-13.56
-13.65
-13.86
-14.35
-15.31
-16.82
-18.59
-19.76
-19.19
-15.95
-9.84
-1.68
6.98
14.64
20.56
25.08
29.43
34.99
42.57
52.05
62.46
72.55
81.30
88.12
92.79
95.25
95.47
93.55
89.93
85.36
80.79
77.03
74.46
72.94
71.88
70.62
68.65
65.75
61.93
57.23
51.56
44.80
37.07
28.91
21.44
16.06
13.97
15.56
20.13
25.95
30.71
32.27
29.42
22.12
11.37
-1.35
-14.68
-27.75
-40.16
-51.72
-62.15
-70.85
-76.96
-79.54
-77.92
-72.01
-62.44
-50.59
-38.35
-27.77
-20.51
-17.24
-17.35
-19.17
-20.54
-19.69
-15.79
-9.11
-0.88
7.18
13.37
16.45
15.81
11.42
3.55
-7.38
-20.95
-36.66
-53.76
-71.09
-87.15
-100.35
-109.45
-113.97
-114.46
-112.17
-108.39
-103.79
-98.11
-90.47
-80.16
-67.41
-53.74
-41.46
-32.67
-28.20
-27.15
-27.28
-26.13
-22.10
-14.96
-5.68
4.12
12.99
19.96
24.64
27.11
27.69
26.92
25.36
23.48
21.48
19.44
17.45
15.77
14.84
14.97
16.17
17.95
19.58
20.38
20.18
19.31
18.39
17.95
18.11
18.55
18.71
18.07
16.40
13.79
10.56
7.18
4.09
1.60
-0.30
-1.94
-3.86
-6.46
-9.73
-13.21
-16.13
-17.85
-18.07
-17.03
-15.19
-13.03
-10.82
-8.66
-6.56
-4.55
-2.75
-1.21
0.10
1.39
2.93
4.94
7.45
10.26
12.93
14.91
15.76
15.38
14.25
13.18
12.95
13.85
15.42
16.69
16.80
15.52
13.42
11.54
10.85
11.55
13.05
14.27
14.28
12.77
10.18
7.29
4.79
2.97
1.79
1.18
1.19
1.98
3.57
5.66
7.58
8.59
8.14
6.18
3.15
-0.23
-3.31
-5.77
-7.69
-9.44
-11.38
-13.59
-15.86
-17.62
-18.33
-17.70
-15.83
-13.26
-10.68
-8.64
-7.27
-6.36
-5.54
-4.58
-3.56
-2.78
-2.56
-2.96
-3.70
-4.23
-4.12
-3.22
-1.88
-0.57
0.34
0.84
1.23
1.85
2.83
4.07
5.72
8.49
13.64
22.39
35.07
50.54
66.26
79.22
87.03
88.79
85.15
77.76
68.43
58.45
48.51
38.89
29.82
21.61
14.54
8.71
3.72
-0.93
-5.65
-10.34
-14.40
-17.05
-17.86
-17.30
-16.69
-17.73
-21.57
-28.24
-36.32
-43.63
-47.96
-48.01
-43.89
-37.22
-31.07
-29.23
-35.13
-50.52
-74.04
-100.60
-122.16
-130.25
-119.33
-89.25
-45.72
1.57
42.50
69.85
81.02
77.73
64.16
44.77
22.95
0.70
-20.80
-40.54
-57.32
-70.04
-78.02
-81.35
-80.73
-77.24
-71.92
-65.51
-58.46
-50.79
-42.43
-33.41
-23.86
-14.06
-4.36
4.99
13.97
22.84
31.97
41.45
50.80
58.80
63.94
65.08
62.08
56.00
48.62
41.70
36.23
32.28
29.38
26.99
24.79
22.61
20.35
17.80
14.85
11.65
8.67
6.52
5.65
6.10
7.52
9.36
11.10
12.45
13.35
13.86
14.02
13.83
13.34
12.64
11.87
11.16
10.48
9.73
8.74
7.42
5.84
4.29
3.16
2.73
3.01
3.69
4.33
4.53
4.25
3.83
3.79
4.56
6.18
8.31
10.35
11.73
12.15
11.65
10.55
9.20
7.84
6.54
5.27
4.04
2.95
2.10
1.61
1.44
1.43
1.36
1.04
0.38
-0.58
-1.75
-2.95
-4.04
-5.01
-5.90
-6.76
-7.59
-8.34
-8.84
-9.00
-8.76
-8.12
-7.13
-5.77
-4.09
-2.22
-0.45
0.86
1.48
1.45
1.10
0.84
0.98
1.48
2.06
2.36
2.22
1.74
1.27
1.15
1.56
2.42
3.44
4.28
4.68
4.58
4.15
3.69
3.53
3.79
4.35
4.89
5.01
4.54
3.54
2.28
1.05
0.03
-0.80
-1.53
-2.30
-3.11
-3.86
-4.40
-4.63
-4.53
-4.22
-3.84
-3.57
-3.57
-4.00
-4.94
-6.42
-8.25
-10.16
-11.82
-13.01
-13.68
-13.89
-13.79
-13.46
-12.94
-12.20
-11.25
-10.07
-8.67
-6.96
-4.85
-2.31
0.47
3.13
5.21
6.36
6.57
6.11
5.42
4.83
4.46
4.21
3.92
3.56
3.23
3.13
3.37
3.98
4.83
5.74
6.56
7.19
7.58
7.73
7.69
7.56
7.45
7.41
7.38
7.22
6.72
5.78
4.49
3.02
1.61
0.39
-0.64
-1.55
-2.42
-3.24
-3.95
-4.47
-4.84
-5.20
-5.69
-6.41
-7.34
-8.33
-9.23
-9.95
-10.52
-11.00
-11.40
-11.66
-11.68
-11.32
-10.49
-9.16
-7.37
-5.22
-2.82
-0.26
2.31
4.70
6.65
7.96
8.57
8.61
8.45
8.56
9.20
10.34
11.59
12.41
12.47
11.88
11.15
10.93
11.61
13.10
14.90
16.51
17.68
18.54
19.43
20.50
21.56
22.18
21.99
21.03
19.87
19.24
19.70
21.32
23.60
25.83
27.43
28.30
28.82
29.74
31.76
35.28
40.13
45.68
51.01
55.30
58.18
60.00
61.78
64.74
69.80
77.00
85.60
94.27
101.75
107.39
111.43
114.84
119.02
125.31
134.54
146.57
159.86
171.54
177.84
175.32
162.02
138.22
106.26
69.59
31.53
-5.30
-39.32
-69.93
-97.21
-121.94
-145.44
-169.11
-193.77
-218.64
-241.30
-258.72
-268.99
-272.27
-270.90
-268.31
-267.42
-269.99
-276.04
-284.91
-296.38
-310.66
-327.22
-343.40
-354.45
-355.20
-343.21
-319.75
-289.35
-257.58
-228.16
-201.38
-174.71
-145.18
-111.54
-75.52
-39.78
-5.77
26.83
59.60
93.97
130.08
166.84
204.45
239.36
266.74
283.34
288.63
284.49
273.67
258.75
241.72
223.95
207.57
193.68
184.47
181.91
186.27
195.35
204.94
210.08
206.84
193.34
168.89
136.69
101.51
67.93
39.30
17.44
2.78
-5.52
-9.56
-12.21
-15.93
-22.58
-32.90
-46.10
-60.18
-72.76
-81.81
-86.36
-86.54
-82.89
-76.49
-68.60
-60.44
-52.91
-46.41
-40.96
-36.34
-32.34
-28.73
-25.54
-22.95
-21.02
-19.56
-18.18
-16.56
-14.64
-12.68
-10.91
-9.45
-8.25
-7.11
-5.84
-4.45
-3.02
-1.69
-0.46
0.81
2.26
3.96
5.90
8.06
10.44
13.06
15.87
18.65
21.01
22.64
23.41
23.53
23.38
23.25
23.17
22.89
22.05
20.45
18.14
15.41
12.68
10.25
8.23
6.47
4.67
2.43
-0.44
-3.86
-7.38
-10.33
-12.14
-12.56
-11.76
-10.22
-8.50
-7.00
-5.94
-5.47
-5.82
-7.13
-9.35
-12.04
-14.44
-15.73
-15.40
-13.44
-10.34
-6.84
-3.61
-1.07
0.69
1.75
2.33
2.70
3.15
3.96
5.23
6.83
8.36
9.29
9.26
8.22
6.50
4.54
2.67
0.93
-0.83
-2.77
-4.83
-6.65
-7.79
-7.85
-6.73
-4.57
-1.61
1.95
6.04
10.58
15.44
20.44
25.37
30.07
34.45
38.44
41.96
44.97
47.57
50.00
52.60
55.73
59.55
63.94
68.51
72.62
75.62
77.07
76.97
75.78
74.26
73.11
72.46
71.71
69.54
64.31
54.66
39.93
20.57
-1.89
-25.03
-46.13
-62.85
-73.87
-79.20
-80.08
-78.44
-76.14
-74.46
-73.92
-74.48
-75.90
-77.94
-80.21
-82.13
-82.81
-81.32
-77.17
-70.61
-62.69
-54.84
-48.29
-43.57
-40.23
-37.17
-33.11
-27.44
-20.46
-13.34
-7.60
-4.49
-4.70
-8.24
-14.70
-23.41
-33.47
-43.68
-52.62
-58.90
-61.56
-60.47
-56.33
-50.44
-44.15
-38.42
-33.61
-29.52
-25.75
-21.92
-17.87
-13.65
-9.42
-5.36
-1.68
1.37
3.41
4.16
3.61
2.19
0.77
0.20
0.92
2.62
4.32
4.94
3.85
1.25
-1.95
-4.68
-6.27
-6.69
-6.46
-6.24
-6.47
-7.18
-8.13
-8.93
-9.29
-9.16
-8.68
-8.14
-7.92
-8.38
-9.76
-12.15
-15.44
-19.30
-23.29
-27.13
-30.83
-34.69
-39.11
-44.26
-49.83
-55.01
-58.79
-60.20
-58.54
-53.31
-44.18
-31.32
-15.66
0.88
15.68
26.25
31.36
31.47
28.32
23.75
18.70
13.04
6.31
-1.24
-8.20
-12.34
-11.79
-6.03
3.73
15.20
26.00
34.62
40.72
44.97
48.45
52.01
56.07
60.52
64.88
68.68
71.86
74.96
78.98
84.45
90.76
95.98
97.56
93.55
83.75
69.90
55.05
42.11
32.71
26.92
24.08
23.90
26.97
34.26
45.89
60.02
72.97
80.43
79.31
69.06
51.60
30.39
8.93
-10.27
-26.04
-38.07
-46.32
-50.65
-50.77
-46.60
-38.53
-27.62
-15.33
-3.21
7.44
16.00
22.58
27.79
32.29
36.20
38.82
38.77
34.58
25.35
11.03
-7.57
-29.20
-52.47
-76.09
-98.93
-119.95
-138.13
-152.40
-161.68
-165.03
-161.75
-151.65
-135.18
-113.54
-88.53
-62.10
-35.72
-10.02
15.31
40.92
67.31
94.13
120.12
143.28
161.20
171.58
172.71
163.94
146.17
121.91
94.88
69.17
48.11
33.45
25.14
21.76
21.27
21.75
21.96
21.35
19.79
17.24
13.43
7.99
0.75
-7.96
-17.24
-25.84
-32.66
-37.13
-39.37
-40.00
-39.65
-38.74
-37.32
-35.32
-32.81
-30.07
-27.55
-25.54
-24.09
-22.97
-21.90
-20.65
-19.17
-17.53
-15.83
-14.09
-12.29
-10.40
-8.50
-6.88
-6.02
-6.38
-8.18
-11.13
-14.42
-16.98
-17.96
-17.10
-14.80
-11.92
-9.35
-7.72
-7.22
-7.83
-9.34
-11.61
-14.37
-17.24
-19.59
-20.72
-20.05
-17.41
-13.05
-7.60
-1.82
3.67
8.52
12.64
16.12
19.00
21.20
22.45
22.47
21.14
18.67
15.57
12.51
10.06
8.47
7.63
7.18
6.72
6.00
5.10
4.42
4.63
6.36
9.91
14.97
20.59
25.44
28.27
28.32
25.58
20.66
14.46
7.77
1.20
-4.82
-9.81
-13.24
-14.73
-14.25
-12.32
-9.79
-7.57
-6.23
-5.89
-6.28
-6.93
-7.46
-7.64
-7.48
-7.07
-6.51
-5.84
-5.05
-4.01
-2.55
-0.51
2.16
5.26
8.36
10.90
12.42
12.70
11.81
10.04
7.74
5.19
2.55
-0.02
-2.34
-4.21
-5.42
-5.93
-5.87
-5.54
-5.25
-5.25
-5.61
-6.27
-7.07
-7.82
-8.30
-8.32
-7.74
-6.50
-4.72
-2.66
-0.66
0.96
2.00
2.45
2.40
2.08
1.73
1.60
1.86
2.64
3.89
5.41
6.91
8.07
8.68
8.74
8.43
8.02
7.72
7.59
7.51
7.28
6.69
5.65
4.25
2.76
1.44
0.49
-0.05
-0.25
-0.28
-0.25
-0.20
-0.13
-0.07
-0.10
-0.35
-0.95
-1.91
-3.08
-4.20
-5.05
-5.51
-5.72
-5.89
-6.26
-6.89
-7.70
-8.51
-9.17
-9.64
-10.01
-10.39
-10.77
-11.02
-10.99
-10.65
-10.15
-9.82
-9.94
-10.57
-11.50
-12.41
-12.99
-13.13
-12.79
-12.01
-10.78
-9.10
-7.11
-5.21
-3.91
-3.69
-4.67
-6.53
-8.62
-10.15
-10.50
-9.32
-6.62
-2.70
1.94
6.67
10.82
13.88
15.71
16.54
16.86
17.12
17.57
18.07
18.23
17.67
16.17
13.91
11.33
8.94
7.07
5.71
4.63
3.52
2.19
0.73
-0.65
-1.64
-2.09
-2.06
-1.82
-1.73
-2.05
-2.80
-3.73
-4.52
-4.86
-4.65
-4.03
-3.24
-2.53
-1.98
-1.51
-0.94
-0.19
0.68
1.51
2.14
2.62
3.16
4.04
5.39
7.09
8.80
10.13
10.93
11.35
11.81
12.77
14.46
16.70
19.01
20.82
21.79
21.95
21.59
21.07
20.65
20.37
20.10
19.70
19.16
18.58
18.15
17.96
17.96
17.95
17.66
16.87
15.51
13.66
11.50
9.23
7.03
5.01
3.14
1.30
-0.69
-2.95
-5.50
-8.18
-10.61
-12.38
-13.16
-12.96
-12.14
-11.37
-11.32
-12.43
-14.73
-17.80
-20.93
-23.38
-24.62
-24.55
-23.42
-21.71
-19.88
-18.17
-16.60
-15.02
-13.35
-11.66
-10.22
-9.35
-9.36
-10.44
-12.65
-15.82
-19.57
-23.29
-26.31
-28.08
-28.40
-27.48
-25.84
-24.04
-22.43
-21.12
-20.07
-19.16
-18.35
-17.58
-16.70
-15.52
-13.85
-11.76
-9.53
-7.61
-6.42
-6.10
-6.46
-7.04
-7.31
-6.88
-5.71
-3.97
-1.94
0.17
2.41
4.90
7.73
10.83
13.99
17.08
20.33
24.29
29.52
36.04
43.04
49.14
53.13
54.63
54.16
52.58
50.24
46.62
40.71
31.90
20.76
9.01
-1.30
-8.75
-13.24
-15.63
-17.00
-17.90
-18.19
-17.47
-15.60
-13.00
-10.28
-7.96
-6.26
-5.09
-4.27
-3.66
-3.14
-2.55
-1.68
-0.36
1.37
3.29
5.10
6.55
7.60
8.31
8.83
9.31
9.84
10.53
11.50
12.84
14.45
16.08
17.37
18.04
17.98
17.39
16.69
16.42
17.07
18.85
21.48
24.09
25.28
23.56
17.88
8.18
-4.47
-18.08
-30.30
-39.29
-44.32
-45.98
-45.85
-45.68
-46.61
-48.75
-51.24
-52.84
-52.56
-50.15
-46.01
-40.96
-35.78
-30.92
-26.52
-22.52
-18.90
-15.65
-12.74
-10.10
-7.63
-5.29
-3.17
-1.44
-0.35
-0.12
-0.91
-2.57
-4.59
-6.11
-6.16
-4.09
-0.01
5.15
10.02
13.37
14.71
14.39
13.37
12.56
12.41
12.86
13.64
14.70
16.34
19.10
23.37
29.10
35.74
42.48
48.48
53.24
56.62
58.79
59.92
59.97
58.48
54.66
47.80
37.66
24.86
10.85
-2.54
-13.70
-21.80
-26.97
-29.94
-31.57
-32.37
-32.41
-31.64
-30.17
-28.46
-27.17
-26.77
-27.30
-28.34
-29.24
-29.50
-29.06
-28.22
-27.37
-26.65
-25.72
-24.04
-21.11
-16.87
-11.79
-6.67
-2.25
1.03
3.16
4.47
5.40
6.34
7.51
8.92
10.39
11.65
12.40
12.42
11.66
10.27
8.58
6.91
5.50
4.45
3.76
3.43
3.43
3.75
4.23
4.63
4.59
3.88
2.53
0.89
-0.47
-0.96
-0.32
1.30
3.43
5.47
7.02
8.02
8.65
9.21
9.90
10.70
11.43
11.81
11.64
10.86
9.61
8.11
6.68
5.58
4.99
4.98
5.43
6.06
6.41
6.07
4.84
2.87
0.60
-1.40
-2.79
-3.64
-4.37
-5.52
-7.39
-9.82
-12.24
-13.89
-14.25
-13.24
-11.26
-8.97
-6.98
-5.68
-5.19
-5.38
-6.04
-6.96
-7.96
-8.89
-9.63
-10.00
-9.83
-9.04
-7.64
-5.87
-4.17
-3.01
-2.76
-3.45
-4.80
-6.25
-7.20
-7.26
-6.32
-4.52
-2.17
0.42
2.98
5.30
7.18
8.50
9.19
9.28
8.87
8.12
7.24
6.39
5.70
5.23
4.91
4.66
4.38
4.03
3.67
3.46
3.51
3.89
4.56
5.41
6.31
7.14
7.83
8.33
8.67
8.94
9.31
9.94
10.93
12.21
13.51
14.52
14.86
14.27
12.70
10.35
7.57
4.78
2.28
0.20
-1.58
-3.42
-5.70
-8.68
-12.24
-15.88
-18.89
-20.68
-21.03
-20.27
-19.07
-18.12
-17.85
-18.19
-18.73
-18.93
-18.38
-16.93
-14.71
-12.00
-9.07
-6.20
-3.66
-1.69
-0.53
-0.24
-0.67
-1.52
-2.42
-3.10
-3.39
-3.26
-2.73
-1.92
-0.97
-0.13
0.33
0.18
-0.60
-1.81
-3.02
-3.79
-3.93
-3.54
-3.07
-2.96
-3.49
-4.67
-6.28
-8.04
-9.80
-11.53
-13.26
-15.00
-16.64
-18.02
-18.87
-19.01
-18.37
-17.08
-15.38
-13.57
-11.92
-10.52
-9.24
-7.74
-5.47
-1.89
3.37
10.29
18.33
26.51
33.65
38.65
40.88
40.39
37.82
34.16
30.34
26.93
24.06
21.58
19.39
17.66
16.79
17.15
18.86
21.54
24.43
26.65
27.66
27.54
26.97
27.05
28.89
33.22
40.22
49.48
59.89
69.64
76.35
77.53
71.36
57.71
38.68
18.46
2.17
-5.79
-3.23
9.02
27.56
47.73
65.17
77.16
82.93
83.25
79.37
72.16
61.67
47.36
28.87
6.59
-18.00
-42.71
-65.40
-84.57
-99.54
-110.26
-116.80
-119.15
-117.37
-111.99
-104.21
-95.80
-88.44
-83.13
-79.86
-77.80
-75.81
-73.07
-69.32
-64.84
-60.00
-55.00
-49.67
-43.81
-37.40
-30.89
-25.04
-20.54
-17.61
-15.82
-14.36
-12.41
-9.46
-5.53
-0.90
4.09
9.21
14.33
19.15
23.10
25.35
25.13
22.22
17.15
11.18
5.84
2.32
1.03
1.46
2.51
3.02
2.13
-0.45
-4.54
-9.47
-14.05
-16.52
-14.84
-7.42
5.95
23.41
41.29
55.27
62.00
60.45
52.04
39.83
26.96
15.50
6.07
-1.67
-8.16
-13.39
-16.89
-18.22
-17.40
-15.16
-12.57
-10.58
-9.59
-9.37
-9.39
-9.25
-8.98
-9.01
-9.95
-12.14
-15.43
-19.22
-22.77
-25.54
-27.39
-28.57
-29.48
-30.53
-31.92
-33.67
-35.65
-37.72
-39.84
-42.11
-44.78
-48.10
-52.12
-56.43
-60.17
-62.18
-61.37
-57.19
-49.85
-40.46
-30.62
-21.91
-15.31
-10.69
-6.83
-1.69
6.96
20.78
40.31
64.63
91.47
117.64
139.75
154.98
161.82
160.35
152.10
139.47
125.01
110.69
97.66
86.23
76.14
66.89
57.88
48.41
37.85
25.78
12.37
-1.47
-14.23
-24.39
-31.02
-34.25
-35.16
-35.24
-35.68
-36.86
-38.37
-39.40
-39.34
-38.14
-36.28
-34.40
-32.95
-31.99
-31.34
-30.71
-29.87
-28.69
-27.01
-24.66
-21.53
-17.64
-13.29
-8.91
-4.88
-1.45
1.36
3.65
5.46
6.74
7.41
7.50
7.18
6.74
6.42
6.31
6.31
6.24
5.90
5.23
4.23
2.95
1.44
-0.24
-2.01
-3.63
-4.83
-5.29
-4.93
-3.89
-2.60
-1.58
-1.23
-1.70
-2.78
-4.04
-4.96
-5.19
-4.58
-3.20
-1.28
0.94
3.15
5.03
6.31
6.83
6.60
5.87
5.04
4.47
4.34
4.64
5.20
5.86
6.49
7.06
7.53
7.88
8.09
8.13
7.98
7.65
7.10
6.30
5.28
4.13
3.04
2.21
1.79
1.78
2.07
2.47
2.73
2.70
2.25
1.37
0.20
-1.01
-1.98
-2.48
-2.49
-2.16
-1.74
-1.50
-1.52
-1.79
-2.21
-2.71
-3.29
-4.00
-4.82
-5.63
-6.27
-6.56
-6.45
-5.99
-5.29
-4.50
-3.73
-3.07
-2.58
-2.27
-2.09
-1.94
-1.67
-1.18
-0.41
0.55
1.55
2.44
3.09
3.48
3.69
3.84
4.08
4.45
4.93
5.35
5.50
5.25
4.65
3.90
3.34
3.21
3.51
4.06
4.54
4.67
4.26
3.29
1.82
0.05
-1.75
-3.29
-4.30
-4.71
-4.61
-4.27
-3.98
-3.91
-4.07
-4.38
-4.81
-5.43
-6.35
-7.57
-8.89
-10.03
-10.71
-10.85
-10.60
-10.16
-9.66
-9.07
-8.23
-7.05
-5.55
-3.92
-2.40
-1.13
-0.15
0.62
1.28
1.86
2.35
2.74
3.04
3.35
3.75
4.24
4.73
5.05
5.02
4.61
3.98
3.36
2.99
3.03
3.45
4.14
4.90
5.51
5.80
5.61
4.85
3.61
2.14
0.82
0.07
0.09
0.80
1.83
2.70
3.02
2.68
1.84
0.82
-0.04
-0.59
-0.85
-0.97
-1.11
-1.33
-1.54
-1.60
-1.46
-1.17
-0.97
-1.07
-1.56
-2.34
-3.13
-3.71
-4.00
-4.11
-4.25
-4.58
-5.08
-5.48
-5.43
-4.63
-3.03
-0.84
1.50
3.56
5.04
5.87
6.20
6.26
6.26
6.25
6.20
6.03
5.64
4.99
3.91
2.25
-0.08
-3.00
-6.18
-9.06
-11.12
-12.08
-11.96
-11.04
-9.64
-8.01
-6.24
-4.39
-2.56
-0.94
0.20
0.77
0.84
0.66
0.57
0.77
1.27
1.88
2.33
2.41
2.10
1.52
0.88
0.33
-0.17
-0.74
-1.55
-2.63
-3.88
-5.04
-5.81
-6.04
-5.74
-5.05
-4.16
-3.19
-2.18
-1.07
0.20
1.57
2.90
4.04
4.88
5.48
6.00
6.57
7.28
8.06
8.78
9.32
9.67
9.91
10.20
10.63
11.29
12.21
13.39
14.86
16.59
18.56
20.67
22.76
24.69
26.41
28.00
29.65
31.64
34.22
37.53
41.50
45.85
50.17
54.13
57.62
60.82
64.13
68.00
72.67
78.03
83.58
88.70
92.93
96.14
98.62
100.78
102.93
105.00
106.45
106.30
103.56
97.32
86.80
71.33
50.42
24.06
-7.03
-41.38
-77.31
-113.08
-147.54
-180.51
-212.69
-244.80
-276.59
-306.31
-331.07
-348.29
-356.23
-354.65
-344.77
-328.57
-307.96
-284.09
-257.41
-228.08
-197.00
-165.04
-132.79
-100.52
-68.10
-35.20
-1.43
33.50
72.46
113.85
152.93
184.04
203.39
210.60
207.85
198.34
185.06
170.35
155.36
141.35
130.88
125.74
127.45
136.27
150.38
165.59
176.38
177.38
166.14
144.01
115.42
85.99
59.69
39.22
24.95
15.58
9.07
4.09
0.01
-3.69
-7.82
-13.50
-21.37
-31.12
-41.28
-49.86
-54.99
-55.87
-53.18
-48.66
-44.32
-41.61
-41.01
-41.97
-43.28
-43.54
-41.72
-37.53
-31.46
-24.55
-17.96
-12.61
-8.87
-6.50
-4.89
-3.46
-1.90
-0.23
1.31
2.47
3.17
3.50
3.65
3.82
4.09
4.44
4.74
4.87
4.67
4.04
2.96
1.46
-0.35
-2.31
-4.26
-6.04
-7.46
-8.36
-8.54
-7.91
-6.50
-4.58
-2.51
-0.64
0.86
2.07
3.31
4.93
7.14
9.94
13.09
16.23
19.06
21.38
23.24
24.75
26.07
27.29
28.33
29.11
29.58
29.91
30.42
31.45
33.19
35.52
38.06
40.33
41.96
42.79
42.69
41.54
39.10
35.14
29.61
22.69
14.53
4.99
-6.73
-21.87
-41.53
-65.83
-93.40
-121.37
-146.14
-164.41
-174.06
-174.48
-166.34
-151.02
-130.18
-105.53
-78.85
-51.94
-26.57
-4.13
14.57
29.44
40.95
49.86
56.92
62.71
67.54
71.48
74.46
76.30
76.90
76.39
75.28
74.36
74.46
76.02
78.91
82.45
85.70
87.87
88.43
87.21
84.15
79.22
72.36
63.60
53.14
41.32
28.49
14.76
0.06
-15.64
-31.93
-47.82
-61.86
-72.61
-79.30
-82.16
-82.37
-81.58
-81.13
-81.49
-82.01
-81.33
-78.07
-71.56
-62.24
-51.48
-40.96
-32.03
-25.40
-21.13
-19.04
-18.97
-20.83
-24.38
-28.91
-33.19
-35.82
-35.86
-33.23
-28.75
-23.76
-19.49
-16.59
-15.05
-14.43
-14.23
-14.16
-14.14
-14.29
-14.73
-15.59
-16.91
-18.72
-20.95
-23.41
-25.79
-27.81
-29.39
-30.67
-32.00
-33.79
-36.33
-39.66
-43.53
-47.38
-50.46
-51.93
-51.09
-47.57
-41.52
-33.68
-25.24
-17.47
-11.30
-6.92
-3.79
-0.89
2.89
8.37
15.89
25.27
35.90
46.80
56.77
64.53
69.00
69.60
66.50
60.66
53.61
46.94
41.90
39.08
38.42
39.47
41.57
44.06
46.38
48.08
48.81
48.39
46.74
44.02
40.45
36.31
31.89
27.45
23.35
19.98
17.67
16.62
16.71
17.55
18.57
19.25
19.22
18.30
16.55
14.06
11.01
7.62
4.26
1.38
-0.56
-1.21
-0.55
1.11
3.22
5.10
6.26
6.49
5.92
4.89
3.77
2.80
2.00
1.21
0.24
-1.02
-2.54
-4.22
-5.91
-7.50
-8.85
-9.80
-10.19
-9.91
-9.00
-7.68
-6.28
-5.16
-4.53
-4.42
-4.66
-5.01
-5.20
-5.09
-4.65
-3.92
-2.94
-1.76
-0.40
1.09
2.55
3.76
4.48
4.55
4.04
3.22
2.48
2.10
2.13
2.35
2.41
2.11
1.47
0.70
0.08
-0.27
-0.48
-0.82
-1.51
-2.57
-3.79
-4.79
-5.29
-5.23
-4.78
-4.27
-4.03
-4.24
-4.92
-5.92
-7.05
-8.12
-9.04
-9.73
-10.21
-10.49
-10.62
-10.65
-10.60
-10.48
-10.26
-9.89
-9.37
-8.72
-8.03
-7.39
-6.84
-6.36
-5.88
-5.31
-4.62
-3.81
-2.86
-1.69
-0.20
1.65
3.75
5.85
7.65
9.08
10.39
12.14
14.83
18.68
23.41
28.45
33.20
37.26
40.59
43.35
45.75
48.00
50.24
52.58
55.02
57.40
59.23
59.80
58.22
53.67
45.59
33.86
18.86
1.41
-17.24
-35.73
-52.82
-67.68
-80.07
-90.15
-98.25
-104.39
-108.30
-109.53
-107.93
-103.99
-98.82
-93.69
-89.32
-85.40
-80.58
-73.25
-62.50
-48.84
-34.16
-21.00
-11.37
-6.04
-4.34
-4.77
-5.83
-6.62
-6.97
-7.06
-7.00
-6.55
-5.24
-2.63
1.57
7.54
15.61
26.39
40.52
58.17
78.63
100.11
120.21
136.63
147.93
153.79
154.84
152.06
146.36
138.33
128.37
116.79
103.84
89.67
74.31
57.99
41.37
25.69
12.50
3.08
-2.16
-3.90
-3.55
-2.62
-2.19
-2.74
-4.40
-7.29
-11.71
-17.89
-25.68
-34.28
-42.36
-48.52
-51.82
-52.02
-49.52
-45.13
-39.77
-34.28
-29.31
-25.38
-22.75
-21.34
-20.70
-20.17
-19.02
-16.82
-13.62
-9.94
-6.56
-4.19
-3.03
-2.79
-2.82
-2.39
-0.94
1.79
5.57
9.52
12.19
11.82
7.22
-1.52
-12.47
-22.39
-28.27
-28.94
-26.07
-23.41
-24.84
-32.10
-43.73
-55.91
-64.68
-68.16
-67.39
-65.40
-65.15
-67.71
-71.86
-74.87
-74.20
-68.63
-58.60
-45.52
-30.84
-15.45
0.27
16.07
31.24
44.56
54.65
60.47
61.93
59.93
55.97
51.61
47.79
44.70
41.84
38.53
34.27
29.09
23.46
18.01
13.34
9.77
7.40
6.03
5.31
4.76
3.93
2.54
0.55
-1.79
-4.08
-5.94
-7.14
-7.67
-7.68
-7.39
-7.05
-6.91
-7.14
-7.83
-8.85
-9.91
-10.62
-10.63
-9.80
-8.30
-6.57
-5.11
-4.26
-4.04
-4.21
-4.40
-4.34
-3.95
-3.35
-2.67
-1.97
-1.24
-0.48
0.24
0.73
0.79
0.36
-0.39
-1.14
-1.53
-1.35
-0.70
0.13
0.72
0.80
0.30
-0.59
-1.52
-2.14
-2.16
-1.45
0.00
2.11
4.71
7.58
10.49
13.26
15.79
18.14
20.54
23.23
26.38
30.02
33.99
38.08
42.15
46.26
50.71
55.89
62.02
69.02
76.56
84.11
91.33
98.43
106.00
114.35
122.70
129.12
131.27
127.93
119.92
110.06
101.96
98.21
99.30
103.57
108.58
112.45
114.60
114.41
110.22
99.06
78.10
46.80
8.03
-31.50
-63.35
-79.96
-79.35
-65.86
-48.56
-37.10
-38.14
-54.51
-84.68
-124.35
-167.07
-208.99
-248.45
-284.73
-315.22
-335.38
-341.86
-333.52
-312.28
-279.96
-241.43
-201.58
-163.51
-126.41
-87.87
-48.97
-14.62
7.86
15.06
4.08
-24.89
-68.70
-120.50
-159.41
-167.77
-138.32
-98.65
-63.05
-38.36
-19.22
-4.90
3.58
2.77
-13.44
-49.68
-105.48
-170.23
-230.87
-274.48
-293.26
-285.40
-256.74
-218.39
-181.14
-150.75
-124.40
-97.35
-65.08
-26.51
16.92
60.68
99.95
131.76
156.08
176.10
190.17
194.73
186.38
172.69
157.73
143.92
129.97
117.04
107.69
103.64
106.11
115.57
132.23
154.60
181.05
209.20
236.00
257.48
269.45
269.59
258.13
237.79
211.56
182.87
154.47
128.41
105.64
86.66
72.11
62.41
57.35
55.14
53.81
51.64
47.83
42.15
34.90
26.85
18.77
11.22
4.11
-2.67
-9.13
-14.98
-19.83
-23.34
-25.41
-26.25
-26.37
-26.48
-27.01
-28.04
-29.22
-30.07
-30.14
-29.21
-27.32
-24.79
-22.15
-20.05
-19.11
-19.70
-21.74
-24.67
-27.53
-29.30
-29.27
-27.35
-24.13
-20.66
-17.87
-16.26
-15.65
-15.45
-15.05
-14.26
-13.37
-12.88
-13.09
-13.80
-14.40
-14.20
-12.82
-10.44
-7.59
-4.92
-2.83
-1.38
-0.39
0.41
1.20
2.03
2.84
3.48
3.78
3.62
3.01
2.19
1.54
1.43
2.03
3.16
4.29
4.78
4.19
2.54
0.32
-1.76
-3.08
-3.37
-2.82
-1.91
-1.13
-0.86
-1.17
-1.89
-2.76
-3.53
-4.06
-4.40
-4.70
-5.08
-5.55
-6.01
-6.17
-5.81
-4.74
-2.92
-0.52
2.20
4.84
7.07
8.66
9.58
10.07
10.69
12.16
15.03
19.38
24.72
30.20
34.98
38.66
41.41
44.13
47.74
52.66
58.58
64.74
70.56
76.23
82.62
90.36
99.40
108.33
114.91
117.22
114.42
107.01
96.08
82.38
65.58
45.04
22.17
1.29
-11.80
-13.21
-3.21
14.32
34.45
51.45
64.98
76.34
86.46
94.69
98.78
95.98
84.20
64.83
40.40
14.49
-9.98
-31.58
-50.53
-68.49
-87.71
-110.42
-138.61
-173.56
-214.02
-255.60
-290.33
-308.60
-302.95
-272.07
-222.69
-167.84
-122.18
-95.80
-91.21
-103.94
-126.42
-152.06
-177.11
-199.58
-217.35
-227.43
-227.06
-216.14
-198.20
-178.79
-162.26
-149.09
-135.63
-116.60
-88.52
-52.11
-11.94
25.90
56.12
75.75
83.92
81.05
68.37
47.78
21.73
-7.37
-37.78
-68.58
-99.29
-128.81
-155.12
-175.99
-190.44
-199.80
-207.36
-216.31
-227.40
-237.88
-242.40
-235.76
-215.81
-184.66
-147.68
-110.90
-78.44
-51.36
-28.29
-7.26
12.82
31.45
46.88
57.44
62.45
62.86
60.95
59.45
60.61
65.37
73.12
82.02
89.97
95.40
98.05
98.99
100.20
103.82
111.54
124.37
142.57
165.56
191.65
217.83
239.86
253.18
254.44
242.91
221.11
194.12
168.07
148.10
136.94
134.55
139.00
147.94
159.98
174.99
193.26
214.11
234.95
251.46
259.15
255.35
240.75
219.15
195.70
174.33
156.13
139.36
121.03
99.12
74.12
48.91
27.44
13.01
6.88
7.88
12.99
18.56
21.49
20.10
14.20
4.75
-6.76
-18.80
-29.95
-38.97
-44.76
-46.40
-43.45
-36.17
-25.62
-13.48
-1.63
8.24
14.98
18.05
17.49
13.64
7.17
-0.98
-9.67
-17.68
-24.05
-28.33
-30.82
-32.39
-33.93
-35.78
-37.39
-37.58
-35.29
-30.34
-23.75
-17.38
-13.02
-11.51
-12.37
-14.19
-15.42
-15.23
-13.86
-12.27
-11.47
-11.74
-12.35
-11.85
-8.92
-3.16
4.51
12.00
16.94
17.63
13.78
6.59
-1.91
-9.73
-15.78
-20.21
-24.07
-28.58
-34.40
-41.09
-47.34
-51.52
-52.43
-49.88
-44.71
-38.40
-32.33
-27.17
-22.67
-17.96
-12.20
-5.26
2.03
8.21
11.93
12.83
11.88
11.12
12.76
18.15
27.11
38.08
48.79
57.16
61.75
61.85
57.59
50.02
41.49
35.31
34.75
41.30
53.20
65.26
70.73
64.36
45.05
16.74
-13.18
-37.26
-51.25
-55.68
-55.13
-55.70
-62.20
-76.26
-96.12
-117.77
-136.83
-150.51
-158.39
-162.37
-165.32
-169.66
-176.28
-184.42
-192.65
-199.83
-205.43
-208.79
-208.22
-201.06
-185.06
-160.01
-128.70
-96.14
-67.07
-43.72
-25.02
-8.02
9.78
28.78
47.78
65.89
84.31
106.29
134.99
170.68
209.36
243.88
267.20
275.44
269.29
252.93
231.69
209.48
187.86
166.64
145.47
125.08
107.40
94.52
87.28
84.47
83.17
80.14
73.27
62.41
49.04
35.04
21.44
8.01
-6.06
-21.13
-36.48
-50.53
-62.09
-71.46
-80.49
-91.29
-104.45
-117.84
-127.17
-127.97
-118.05
-98.90
-75.25
-53.00
-36.70
-27.95
-25.41
-26.10
-27.08
-26.53
-23.93
-19.58
-13.88
-6.92
1.25
10.24
18.94
25.64
28.54
26.47
19.41
8.50
-4.36
-17.16
-28.23
-36.61
-42.09
-45.12
-46.59
-47.41
-48.14
-48.64
-48.12
-45.55
-40.35
-33.00
-25.05
-18.49
-14.87
-14.53
-16.54
-19.31
-21.31
-21.66
-20.19
-17.15
-12.86
-7.62
-1.84
3.84
8.58
11.58
12.39
11.10
8.38
5.25
2.81
1.89
2.89
5.66
9.59
13.73
17.14
19.25
20.04
20.11
20.28
21.24
23.20
25.86
28.59
30.68
31.47
30.35
26.69
19.88
9.50
-4.48
-21.44
-39.93
-57.83
-72.76
-82.74
-86.77
-85.08
-79.02
-70.59
-61.78
-53.94
-47.58
-42.39
-37.76
-33.22
-28.67
-24.33
-20.36
-16.52
-12.10
-6.28
1.40
10.55
19.90
27.73
32.59
33.91
32.29
29.17
26.15
24.40
24.30
25.46
27.11
28.46
28.93
28.26
26.50
23.89
20.88
18.05
15.86
14.51
13.78
13.08
11.63
8.75
4.09
-2.32
-10.13
-18.66
-26.87
-33.37
-36.65
-35.60
-30.16
-21.53
-11.75
-2.84
4.22
9.69
14.65
20.03
25.88
31.18
34.51
34.84
32.12
27.29
21.87
17.48
15.30
15.96
19.39
24.82
30.82
35.73
38.14
37.37
33.79
28.55
23.16
18.93
16.56
15.97
16.49
17.03
16.32
13.32
7.59
-0.43
-9.40
-17.41
-22.55
-23.68
-20.96
-16.02
-11.44
-9.89
-13.00
-20.62
-30.89
-40.92
-48.12
-51.37
-51.47
-50.74
-51.92
-57.00
-66.35
-78.73
-91.64
-101.84
-105.99
-101.41
-86.99
-63.79
-35.04
-5.25
21.14
41.06
53.37
58.54
57.85
52.74
44.65
35.18
26.22
19.51
16.00
15.34
15.92
15.61
12.57
5.99
-3.73
-15.05
-25.50
-32.12
-32.13
-23.91
-7.81
13.56
35.88
54.51
66.02
69.27
65.32
56.57
45.60
34.30
23.59
13.74
4.82
-3.04
-9.55
-14.47
-17.69
-19.24
-19.14
-17.34
-13.84
-8.90
-3.18
2.19
5.87
6.69
4.17
-1.14
-7.55
-12.68
-14.08
-10.19
-0.86
12.57
27.78
42.28
54.24
62.82
68.09
70.58
70.80
69.00
65.27
59.79
53.02
45.73
38.70
32.40
26.91
21.89
16.95
11.90
6.91
2.47
-0.89
-2.82
-3.36
-2.98
-2.31
-1.96
-2.18
-2.88
-3.66
-4.07
-3.89
-3.21
-2.35
-1.66
-1.33
-1.31
-1.39
-1.39
-1.25
-1.07
-1.00
-1.17
-1.57
-2.13
-2.72
-3.28
-3.75
-4.12
-4.45
-4.79
-5.23
-5.81
-6.52
-7.23
-7.77
-7.95
-7.69
-7.09
-6.35
-5.75
-5.46
-5.53
-5.91
-6.50
-7.22
-7.98
-8.60
-8.80
-8.20
-6.46
-3.57
0.16
4.14
7.76
10.65
12.79
14.31
15.25
15.39
14.35
11.81
7.89
3.24
-1.10
-4.16
-5.46
-5.26
-4.38
-3.80
-4.14
-5.41
-7.05
-8.24
-8.35
-7.24
-5.28
-3.15
-1.46
-0.42
0.29
1.42
3.85
8.29
14.93
23.41
32.85
42.04
49.77
55.07
57.74
58.73
60.52
66.84
81.61
107.31
143.40
185.78
227.55
261.28
281.51
286.71
279.46
264.98
248.78
234.41
222.52
211.43
198.68
182.66
163.42
142.28
120.71
99.34
77.67
54.72
30.25
5.52
-16.86
-34.30
-45.66
-52.22
-57.33
-65.06
-78.57
-99.39
-127.16
-160.07
-194.99
-227.64
-253.02
-266.48
-265.52
-251.45
-229.56
-207.43
-191.76
-185.23
-185.38
-186.51
-183.43
-174.83
-164.27
-157.84
-160.33
-172.08
-188.63
-203.31
-211.08
-211.13
-206.86
-203.60
-205.34
-212.68
-223.33
-234.15
-243.56
-252.71
-264.26
-279.99
-298.37
-314.18
-320.57
-312.72
-290.88
-261.15
-232.87
-214.21
-208.31
-212.06
-218.05
-218.55
-209.02
-188.99
-160.87
-127.30
-89.45
-47.03
0.29
51.46
103.56
152.40
194.28
227.20
251.33
268.77
282.85
297.17
314.81
337.14
362.86
387.72
405.37
409.37
395.54
363.57
317.12
262.51
206.67
155.28
112.14
79.16
56.86
44.50
40.16
40.85
43.17
44.33
43.04
39.77
36.08
33.62
33.57
36.16
40.91
46.83
52.67
56.96
58.35
55.85
49.32
39.61
28.38
17.59
8.86
3.07
0.26
-0.03
1.42
3.90
6.77
9.40
11.17
11.59
10.46
8.04
5.06
2.45
0.90
0.43
0.16
-1.39
-5.50
-12.54
-21.62
-30.88
-38.45
-43.21
-45.35
-45.94
-46.20
-46.76
-47.32
-46.96
-44.90
-41.02
-36.06
-31.20
-27.46
-25.16
-23.84
-22.54
-20.27
-16.49
-11.32
-5.48
0.08
4.70
8.30
11.38
14.63
18.46
22.72
26.73
29.72
31.24
31.34
30.56
29.56
28.67
27.75
26.28
23.77
20.14
15.91
12.08
9.71
9.43
11.17
14.11
17.12
19.21
20.05
19.98
19.81
20.36
22.09
25.02
28.88
33.27
37.84
42.34
46.57
50.37
53.66
56.37
58.43
59.65
59.71
58.24
55.07
50.30
44.37
38.03
32.14
27.75
25.88
27.38
32.49
40.53
49.84
58.35
64.45
67.89
69.93
72.83
78.69
88.40
101.37
116.05
131.00
145.50
159.42
172.35
182.68
187.42
183.11
167.18
139.36
102.08
59.77
17.40
-21.11
-53.86
-81.05
-104.36
-126.08
-148.37
-172.96
-201.20
-234.16
-272.33
-314.63
-357.66
-395.60
-421.88
-431.90
-425.26
-406.02
-380.72
-354.99
-330.88
-306.67
-279.09
-246.57
-211.32
-178.17
-151.35
-131.09
-112.86
-89.48
-55.42
-9.78
43.04
94.74
136.53
161.69
166.59
150.92
117.81
73.96
29.82
-3.14
-17.38
-12.70
2.81
16.01
14.90
-5.37
-40.47
-78.58
-106.51
-116.46
-107.99
-86.34
-58.66
-30.44
-1.90
25.13
48.30
69.15
88.33
106.30
124.09
142.84
162.52
180.59
191.81
191.08
176.17
149.04
116.42
87.27
68.99
64.62
72.37
87.34
104.95
122.65
139.41
155.00
168.89
179.80
186.26
187.56
184.12
177.65
170.26
162.99
155.58
146.82
135.09
119.17
98.91
75.26
50.15
25.80
3.78
-15.29
-31.66
-46.10
-59.42
-71.90
-83.09
-91.75
-96.30
-95.55
-89.29
-78.63
-65.79
-53.43
-43.71
-37.68
-35.12
-34.97
-36.11
-37.80
-39.82
-42.13
-44.57
-46.69
-47.91
-48.01
-47.35
-46.91
-47.80
-50.77
-55.70
-61.62
-66.99
-70.36
-70.89
-68.64
-64.54
-59.85
-55.67
-52.38
-49.66
-46.72
-42.89
-38.11
-32.94
-28.31
-25.00
-23.25
-22.78
-23.12
-23.97
-25.37
-27.59
-30.77
-34.62
-38.51
-41.68
-43.58
-43.91
-42.40
-38.39
-30.83
-18.62
-1.40
19.86
42.80
64.34
81.76
93.61
99.97
101.99
101.10
98.24
93.74
87.61
80.01
71.49
62.75
54.34
46.28
38.20
29.69
20.67
11.62
3.44
-2.99
-7.12
-9.06
-9.42
-9.13
-9.05
-9.66
-10.98
-12.65
-14.20
-15.40
-16.42
-17.83
-20.37
-24.50
-30.20
-36.81
-43.32
-48.79
-52.78
-55.54
-57.86
-60.62
-64.35
-68.92
-73.53
-77.13
-78.91
-78.73
-77.16
-75.28
-74.32
-75.36
-79.15
-85.85
-94.66
-103.47
-109.05
-107.87
-97.53
-77.90
-51.38
-21.91
6.72
32.35
54.92
75.64
95.62
114.69
131.36
143.55
149.76
149.74
144.40
135.25
123.71
110.87
97.49
84.26
71.92
61.26
52.89
47.10
43.64
41.76
40.41
38.53
35.41
30.89
25.36
19.63
14.57
10.80
8.45
7.12
6.12
4.84
3.05
1.09
-0.37
-0.68
0.39
2.48
4.74
6.27
6.44
5.18
2.91
0.26
-2.16
-3.98
-5.15
-5.86
-6.40
-7.05
-7.99
-9.19
-10.45
-11.48
-12.05
-12.13
-11.92
-11.67
-11.64
-11.89
-12.39
-13.04
-13.74
-14.48
-15.24
-15.86
-16.03
-15.33
-13.48
-10.54
-7.04
-3.82
-1.70
-1.09
-1.72
-2.79
-3.31
-2.53
-0.30
3.01
6.72
10.21
13.22
15.80
18.22
20.75
23.53
26.60
30.02
33.88
38.27
43.20
48.42
53.65
58.65
63.40
67.98
72.57
77.26
82.02
86.80
91.51
96.25
101.28
106.95
113.39
120.47
127.79
134.60
139.97
142.58
141.12
134.46
121.92
103.37
79.26
50.61
18.70
-15.11
-49.96
-84.79
-118.18
-148.38
-173.68
-193.02
-206.38
-214.98
-220.61
-225.59
-230.28
-232.55
-228.54
-214.58
-189.01
-153.10
-111.16
-69.28
-35.44
-15.80
-13.68
-29.31
-60.53
-103.53
-153.39
-205.25
-254.56
-299.23
-336.48
-362.44
-372.54
-363.49
-334.92
-289.89
-234.91
-165.78
-86.73
-7.04
62.90
116.94
154.62
178.15
194.09
207.62
222.73
240.31
260.64
281.49
298.71
306.53
299.46
275.51
237.31
192.09
147.55
110.46
84.09
67.60
56.97
47.67
37.41
26.41
16.64
8.68
1.55
-6.83
-18.13
-32.31
-47.17
-59.42
-66.80
-69.30
-69.46
-70.09
-72.11
-73.68
-71.24
-61.77
-44.55
-21.95
1.92
23.04
39.25
50.89
60.11
69.27
79.77
91.43
102.78
112.05
117.98
120.16
118.94
114.92
108.68
100.88
92.46
84.79
79.35
77.10
77.80
79.65
79.59
74.18
60.77
38.44
8.49
-25.87
-60.45
-91.27
-115.70
-133.06
-144.63
-152.76
-159.90
-167.58
-175.84
-183.30
-187.54
-185.88
-176.31
-158.26
-133.06
-103.70
-74.06
-47.83
-27.44
-13.63
-5.46
-0.95
2.18
5.68
10.48
16.59
23.42
30.23
36.41
41.63
45.75
48.77
50.67
51.58
51.89
52.47
54.41
58.57
65.00
72.55
79.15
82.58
81.43
75.80
67.30
58.23
50.55
45.00
40.86
36.53
30.48
22.17
12.40
2.91
-4.45
-8.50
-9.21
-7.56
-4.97
-2.70
-1.51
-1.57
-2.59
-3.93
-4.78
-4.59
-3.81
-4.59
-10.73
-26.59
-55.12
-96.01
-144.81
-193.57
-233.07
-255.74
-258.32
-242.89
-216.00
-185.96
-159.65
-140.13
-126.13
-113.57
-98.05
-77.12
-51.00
-21.46
10.00
43.11
78.45
115.82
152.81
184.96
207.64
218.33
218.04
210.80
201.67
194.58
190.92
189.49
187.42
181.51
169.31
149.72
123.40
92.47
60.03
29.07
1.38
-23.06
-45.91
-69.61
-96.03
-125.15
-154.90
-181.62
-201.41
-211.69
-211.93
-203.79
-190.34
-175.07
-161.17
-151.08
-146.03
-145.63
-147.49
-147.22
-139.54
-120.21
-88.09
-46.23
-1.19
39.31
69.26
86.45
92.79
92.90
92.09
94.52
102.30
115.38
132.04
149.30
163.67
172.06
172.60
165.28
152.09
136.23
120.90
108.04
97.66
88.12
77.26
63.64
47.48
30.54
15.17
2.94
-6.19
-13.86
-22.25
-32.76
-45.08
-57.13
-65.90
-68.59
-63.54
-50.63
-31.08
-7.07
18.84
44.00
66.04
83.17
94.26
98.87
97.21
90.11
78.92
65.56
52.24
40.95
32.91
28.08
25.33
23.09
20.20
16.35
12.13
8.55
6.44
6.14
7.48
9.94
12.85
15.63
17.77
18.92
18.90
17.75
15.67
13.02
10.29
7.97
6.48
6.07
6.71
8.12
9.84
11.45
12.74
13.75
14.61
15.39
15.88
15.58
13.87
10.35
5.05
-1.40
-7.86
-13.02
-15.87
-16.13
-14.46
-12.23
-11.00
-11.99
-15.72
-21.96
-29.90
-38.40
-46.26
-52.44
-56.21
-57.38
-56.37
-54.06
-51.45
-49.25
-47.62
-46.22
-44.52
-42.11
-38.94
-35.18
-31.13
-27.07
-23.32
-20.23
-18.19
-17.39
-17.60
-18.12
-18.04
-16.52
-13.25
-8.51
-3.06
2.15
6.37
9.16
10.44
10.42
9.45
7.93
6.26
4.81
3.80
3.27
3.06
2.84
2.23
0.97
-0.97
-3.36
-5.78
-7.78
-9.07
-9.60
-9.55
-9.19
-8.75
-8.33
-7.95
-7.63
-7.40
-7.40
-7.76
-8.50
-9.55
-10.69
-11.63
-12.16
-12.12
-11.55
-10.61
-9.57
-8.62
-7.73
-6.70
-5.15
-2.91
-0.10
2.76
4.94
5.82
5.14
3.16
0.49
-2.03
-3.72
-4.20
-3.52
-2.06
-0.38
0.96
1.64
1.62
1.12
0.40
-0.32
-1.00
-1.64
-2.23
-2.67
-2.72
-2.25
-1.26
0.05
1.36
2.45
3.23
3.79
4.27
4.81
5.39
5.98
6.49
6.88
7.07
7.00
6.58
5.70
4.36
2.64
0.79
-0.70
-1.16
0.05
3.27
8.32
14.42
20.36
24.90
27.22
27.21
25.45
22.92
20.44
18.36
16.47
14.21
11.03
6.73
1.55
-4.01
-9.33
-13.96
-17.62
-20.28
-22.03
-22.98
-23.21
-22.77
-21.80
-20.52
-19.23
-18.18
-17.46
-16.90
-16.16
-14.95
-13.22
-11.27
-9.57
-8.50
-8.07
-7.89
-7.35
-5.99
-3.84
-1.37
0.70
1.89
2.11
1.77
1.42
1.46
1.95
2.63
3.20
3.55
3.81
4.27
5.11
6.22
7.26
7.86
7.86
7.41
6.90
6.75
7.10
7.82
8.52
8.77
8.38
7.36
5.98
4.58
3.40
2.50
1.80
1.23
0.77
0.40
0.04
-0.58
-1.82
-3.98
-7.02
-10.41
-13.33
-14.94
-14.79
-13.03
-10.31
-7.53
-5.36
-4.05
-3.42
-3.03
-2.53
-1.76
-0.84
0.05
0.77
1.35
1.90
2.51
3.07
3.37
3.19
2.55
1.76
1.27
1.45
2.36
3.73
5.07
5.98
6.27
6.02
5.50
4.92
4.39
3.89
3.34
2.77
2.33
2.22
2.57
3.30
4.15
4.80
5.00
4.73
4.12
3.42
2.76
2.18
1.58
0.90
0.16
-0.51
-0.94
-0.97
-0.63
-0.06
0.48
0.76
0.57
-0.09
-1.08
-2.16
-2.99
-3.32
-3.01
-2.02
-0.42
1.61
3.89
6.15
8.10
9.50
10.24
10.41
10.25
10.07
10.17
10.69
11.56
12.48
13.02
12.75
11.45
9.20
6.45
3.77
1.70
0.47
-0.00
-0.03
0.07
0.18
0.38
0.88
1.76
2.99
4.42
5.87
7.22
8.36
9.17
9.46
9.09
7.99
6.31
4.36
2.50
1.02
0.02
-0.57
-0.90
-1.15
-1.47
-1.97
-2.79
-4.08
-5.89
-8.13
-10.52
-12.62
-14.03
-14.51
-14.13
-13.13
-11.90
-10.73
-9.89
-9.61
-10.13
-11.64
-14.14
-17.29
-20.40
-22.66
-23.34
-22.17
-19.31
-15.28
-10.75
-6.34
-2.57
0.18
1.55
1.43
0.02
-2.09
-3.94
-4.63
-3.65
-1.12
2.27
5.57
8.04
9.33
9.62
9.36
9.05
8.96
9.16
9.51
9.89
10.15
10.24
10.13
9.88
9.56
9.18
8.59
7.48
5.55
2.76
-0.63
-4.01
-6.77
-8.58
-9.57
-10.22
-11.09
-12.45
-14.09
-15.43
-15.83
-14.88
-12.70
-9.85
-7.06
-5.02
-4.08
-4.20
-4.98
-5.93
-6.68
-7.06
-7.17
-7.27
-7.59
-8.27
-9.34
-10.78
-12.67
-15.03
-17.80
-20.68
-23.07
-24.26
-23.62
-20.83
-16.00
-9.67
-2.62
4.31
10.41
15.17
18.30
19.64
19.18
17.02
13.55
9.43
5.50
2.62
1.41
1.97
3.85
6.36
8.85
10.96
12.68
14.07
15.03
15.34
14.80
13.48
11.81
10.37
9.62
9.65
10.20
10.84
11.19
11.11
10.59
9.62
8.16
6.20
3.87
1.56
-0.24
-1.24
-1.43
-1.15
-0.92
-1.13
-1.93
-3.24
-4.81
-6.28
-7.16
-6.86
-4.84
-0.88
4.52
10.06
13.99
14.71
11.64
5.53
-1.71
-7.93
-11.77
-13.28
-13.63
-14.29
-15.98
-18.27
-19.93
-19.84
-17.71
-14.25
-10.66
-7.81
-5.74
-3.81
-1.41
1.47
4.07
5.26
4.34
1.60
-1.72
-3.93
-3.65
-0.39
5.20
11.62
17.07
20.18
20.41
18.12
14.21
9.57
4.80
0.04
-4.74
-9.50
-14.00
-17.85
-20.76
-22.59
-23.47
-23.83
-24.29
-25.47
-27.64
-30.56
-33.73
-36.43
-38.02
-38.14
-36.95
-35.17
-33.70
-33.24
-33.97
-35.54
-36.89
-36.33
-32.28
-24.05
-12.68
-0.67
9.12
14.28
13.66
7.54
-2.31
-13.36
-22.63
-27.14
-23.90
-10.13
15.42
51.08
90.16
123.14
141.76
143.41
130.67
108.82
83.52
58.81
37.10
20.04
10.42
9.45
17.02
30.34
43.85
50.89
45.35
24.36
-11.67
-55.02
-94.80
-122.35
-135.28
-138.76
-137.68
-134.62
-128.90
-118.45
-101.90
-80.22
-56.20
-32.54
-11.21
7.97
25.35
41.54
56.26
68.60
77.72
83.55
86.90
89.32
93.19
99.92
111.20
128.25
148.18
166.69
178.83
180.68
171.95
161.44
155.08
156.80
167.47
184.57
200.89
209.20
203.76
182.30
146.74
101.69
53.98
9.92
-26.47
-53.77
-72.49
-84.03
-89.53
-89.51
-84.90
-76.55
-65.88
-54.97
-45.74
-39.10
-34.63
-30.74
-25.51
-18.28
-9.75
-2.05
2.11
0.83
-5.91
-16.36
-27.99
-38.98
-49.29
-60.03
-72.50
-86.98
-102.36
-116.56
-127.70
-134.81
-137.98
-137.78
-134.45
-127.77
-117.44
-103.66
-87.49
-70.59
-54.53
-40.42
-28.91
-20.58
-16.26
-16.68
-21.80
-30.21
-39.29
-45.97
-48.03
-45.05
-38.65
-31.66
-26.80
-25.31
-26.54
-28.52
-29.26
-27.86
-24.74
-20.91
-17.05
-13.18
-9.34
-6.62
-7.36
-14.07
-27.81
-46.85
-66.81
-82.17
-88.31
-83.01
-66.69
-41.59
-10.59
23.36
57.65
90.11
119.66
146.74
172.76
198.83
224.13
245.20
256.97
254.98
237.13
204.05
157.98
101.68
38.32
-27.63
-89.33
-138.22
-166.37
-169.82
-150.82
-117.22
-79.20
-45.19
-19.29
-1.46
10.43
18.23
22.54
23.40
21.57
19.09
18.45
21.24
27.17
34.60
41.57
47.13
51.72
56.42
62.00
68.09
73.17
75.20
72.31
63.44
48.93
30.51
10.98
-6.76
-21.02
-32.56
-44.54
-61.00
-84.21
-112.61
-141.07
-163.50
-176.54
-181.73
-184.65
-191.08
-202.85
-215.92
-222.25
-214.38
-190.01
-153.59
-114.27
-81.24
-59.34
-47.47
-40.28
-31.99
-19.84
-5.10
8.49
17.56
21.63
23.37
26.54
33.24
42.18
49.29
50.21
43.17
30.20
16.07
5.57
1.01
1.34
3.40
4.08
2.14
-1.46
-4.60
-5.21
-2.06
5.15
16.23
30.58
47.02
63.65
78.05
87.94
92.06
90.54
84.72
76.38
66.84
56.64
45.63
33.48
20.23
6.60
-6.12
-16.50
-23.48
-26.67
-26.35
-23.21
-17.97
-11.22
-3.48
4.49
11.52
16.36
18.13
16.75
13.06
8.31
3.64
-0.36
-3.51
-5.74
-6.77
-6.15
-3.70
0.25
4.85
9.11
12.33
14.27
15.04
14.78
13.47
10.92
6.92
1.46
-5.25
-12.81
-20.69
-28.30
-34.93
-39.79
-42.08
-41.21
-37.08
-30.28
-22.06
-14.09
-7.95
-4.70
-4.50
-6.59
-9.54
-11.83
-12.38
-10.88
-7.78
-4.02
-0.54
2.11
3.85
5.01
6.02
7.27
8.96
11.11
13.51
15.86
17.80
18.99
19.20
18.47
17.06
15.38
13.81
12.58
11.84
11.67
12.15
13.32
15.02
16.78
17.97
17.97
16.55
13.99
10.95
8.25
6.49
5.93
6.47
7.77
9.43
11.09
12.42
13.12
13.02
12.11
10.63
8.95
7.45
6.26
5.26
4.08
2.39
0.12
-2.42
-4.62
-5.81
-5.54
-3.80
-1.03
2.02
4.55
5.96
6.05
5.06
3.57
2.30
1.83
2.40
3.80
5.56
7.14
8.18
8.65
8.72
8.67
8.65
8.65
8.62
8.64
8.96
9.97
11.91
14.77
18.21
21.65
24.41
26.02
26.29
25.60
24.80
24.98
27.13
31.91
39.52
49.46
60.42
70.26
76.36
76.47
69.88
57.98
44.01
31.81
24.41
23.12
27.50
35.83
45.62
53.86
57.33
53.19
40.15
19.69
-3.66
-23.59
-34.57
-33.81
-22.09
-2.64
20.87
46.04
72.32
100.13
129.27
157.87
182.91
201.60
212.93
218.35
221.00
223.80
227.83
231.35
230.10
219.99
199.30
169.71
135.37
100.94
70.23
45.83
29.57
21.32
20.31
24.86
32.22
38.76
40.75
35.81
23.91
6.99
-15.48
-44.35
-79.82
-119.99
-160.70
-197.20
-225.70
-244.76
-255.54
-266.44
-286.12
-320.25
-369.15
-428.57
-492.45
-554.27
-607.25
-644.63
-667.99
-681.92
-692.92
-706.76
-727.24
-756.46
-793.93
-835.97
-835.64
-759.31
-598.51
-379.20
-145.42
66.52
239.52
372.63
472.57
547.21
596.01
616.55
610.82
585.00
548.64
510.11
474.64
444.40
419.60
394.39
363.88
325.11
282.86
249.26
233.13
237.55
259.40
292.09
321.13
341.32
350.88
350.84
343.40
328.59
304.66
270.55
227.50
177.21
123.03
67.96
15.42
-31.57
-75.36
-119.26
-164.85
-210.41
-252.60
-287.41
-312.90
-328.73
-336.34
-343.67
-358.63
-385.73
-424.67
-472.57
-526.35
-584.15
-643.67
-669.72
-636.50
-537.52
-390.93
-227.71
-75.86
47.48
136.42
194.27
229.67
247.46
250.89
242.48
225.71
204.94
184.51
167.97
157.88
155.00
154.59
151.39
141.92
126.34
107.29
87.95
71.20
59.35
53.63
51.86
51.34
49.79
47.12
44.33
42.35
42.10
44.55
50.23
58.45
68.89
82.03
98.92
119.51
141.15
156.46
158.81
143.39
109.37
61.28
8.21
-38.96
-70.70
-83.13
-76.40
-54.49
-24.44
5.70
28.83
40.70
40.35
29.78
12.79
-6.31
-23.94
-38.12
-47.83
-52.60
-51.99
-46.12
-35.93
-22.99
-8.71
6.10
21.39
38.17
55.67
74.00
93.28
113.72
136.08
162.18
194.05
232.28
274.22
313.27
340.85
348.77
332.74
294.25
239.90
177.99
115.14
54.78
-1.82
-52.79
-94.86
-124.38
-140.27
-145.35
-146.33
-150.87
-163.65
-184.47
-209.35
-234.47
-259.27
-286.56
-318.45
-353.39
-385.00
-404.08
-402.86
-378.54
-334.77
-279.74
-222.67
-169.22
-121.59
-80.18
-45.13
-16.70
5.62
23.48
39.86
58.23
83.90
121.42
172.98
237.03
307.90
376.84
434.43
474.31
484.48
463.12
419.51
368.56
320.12
273.04
219.59
154.87
82.81
14.54
-36.46
-63.18
-68.45
-61.98
-53.76
-48.72
-46.07
-42.45
-35.74
-25.49
-13.83
-4.34
0.17
-1.22
-6.64
-12.83
-16.97
-18.55
-18.31
-18.13
-19.99
-24.54
-30.47
-34.53
-33.30
-24.97
-10.86
5.72
20.44
29.52
31.46
27.26
20.09
13.08
10.00
10.75
12.26
9.60
-2.89
-28.92
-69.11
-119.41
-171.42
-214.11
-237.23
-234.28
-205.13
-156.83
-100.25
-47.99
-9.80
10.02
12.78
3.17
-13.32
-32.69
-54.10
-77.26
-103.51
-133.24
-164.57
-193.35
-214.45
-223.81
-219.95
-205.56
-183.52
-158.03
-131.51
-103.16
-70.07
-29.34
19.50
78.51
131.80
171.71
191.21
188.38
167.72
138.50
110.94
91.75
81.22
73.09
60.91
39.01
6.11
-35.10
-80.10
-124.81
-166.32
-202.27
-230.72
-247.99
-252.47
-245.07
-229.33
-210.19
-192.14
-178.00
-168.94
-165.37
-165.97
-169.34
-173.13
-174.09
-168.84
-155.10
-133.02
-105.90
-79.56
-60.56
-54.28
-62.29
-80.97
-102.18
-116.55
-117.36
-103.37
-78.82
-50.63
-24.87
-3.91
13.75
31.52
51.88
75.00
98.72
120.49
138.05
149.83
155.09
154.35
149.58
144.13
141.64
144.47
153.84
168.43
185.57
202.88
219.45
235.90
252.93
270.27
286.61
303.07
321.65
343.84
368.86
392.86
409.64
412.60
397.38
363.89
320.25
277.49
244.91
227.56
225.89
236.94
255.81
276.94
295.51
313.05
332.78
356.56
383.43
410.76
435.91
457.56
476.09
462.73
401.82
295.13
161.24
23.92
-99.46
-201.48
-281.72
-342.69
-384.30
-407.44
-411.55
-396.95
-366.36
-323.57
-273.22
-220.62
-171.99
-135.85
-116.21
-113.67
-125.80
-150.71
-180.95
-206.35
-219.22
-218.38
-208.64
-194.62
-180.27
-165.85
-151.58
-138.52
-129.03
-125.92
-131.45
-145.09
-164.23
-185.84
-208.78
-234.79
-266.26
-304.13
-345.46
-383.03
-407.27
-409.76
-387.02
-342.45
-285.01
-224.73
-169.12
-120.87
-78.44
-38.24
2.84
46.50
93.28
143.17
195.79
249.14
298.37
335.88
353.42
344.97
309.68
252.55
182.37
108.24
36.30
-31.09
-93.73
-150.69
-198.35
-230.78
-242.44
-231.16
-199.81
-155.35
-106.14
-58.94
-17.28
18.53
49.85
78.10
103.94
127.54
149.58
171.66
196.17
225.33
260.10
299.37
339.68
375.80
402.23
414.66
411.13
392.37
361.25
321.76
277.81
232.65
188.67
147.65
110.77
78.45
50.17
24.42
-0.78
-27.10
-55.28
-85.01
-115.24
-145.07
-174.27
-203.20
-232.64
-263.55
-296.86
-333.36
-372.97
-413.69
-450.95
-477.92
-487.19
-473.65
-436.56
-380.10
-311.89
-240.03
-170.32
-105.11
-44.12
13.50
67.35
115.55
155.84
187.15
210.52
228.48
243.30
255.42
262.83
261.76
249.31
226.00
196.89
170.23
154.14
152.84
164.59
182.33
196.68
199.52
186.55
157.95
117.74
72.08
27.54
-10.41
-38.95
-58.28
-71.16
-81.22
-91.11
-101.32
-110.38
-116.33
-118.37
-117.55
-115.90
-115.19
-115.94
-117.70
-119.68
-121.06
-121.20
-119.67
-116.34
-111.48
-106.10
-101.20
-97.46
-95.04
-92.99
-90.10
-85.98
-81.48
-78.04
-77.36
-79.50
-83.50
-88.03
-90.92
-90.17
-85.09
-76.75
-67.55
-61.06
-58.76
-60.19
-63.02
-62.29
-52.44
-30.04
4.59
47.80
93.24
136.38
174.48
198.58
201.41
181.54
144.58
99.42
60.28
27.80
1.07
-19.43
-31.79
-35.20
-28.33
-11.89
11.27
37.97
65.78
96.33
132.21
173.80
217.85
257.85
286.30
298.29
294.09
277.05
252.55
223.92
192.05
157.80
124.78
98.68
84.37
82.26
85.30
82.89
66.02
32.43
-11.99
-56.68
-93.21
-119.64
-139.84
-159.21
-179.33
-196.65
-204.15
-196.28
-172.64
-139.52
-109.24
-89.76
-85.56
-96.48
-117.82
-141.97
-160.81
-166.03
-154.12
-128.34
-97.68
-74.90
-70.59
-89.54
-129.60
-183.22
-240.25
-291.07
-327.83
-344.70
-339.00
-310.04
-260.92
-198.68
-132.90
-72.76
-24.66
9.03
29.73
40.54
47.23
55.02
67.43
85.57
108.71
134.82
161.73
187.85
212.07
236.72
264.38
296.55
332.59
370.55
407.84
442.27
472.18
480.45
456.29
398.53
317.12
227.47
143.10
71.55
15.01
-28.06
-61.02
-84.98
-100.62
-107.36
-107.25
-102.24
-93.79
-82.38
-68.16
-51.17
-29.51
-2.23
29.35
61.07
87.93
103.22
104.12
91.88
70.73
46.91
25.05
6.58
-9.84
-25.84
-41.63
-55.10
-63.47
-65.13
-60.22
-51.21
-42.04
-36.73
-38.06
-47.19
-63.35
-84.84
-109.87
-136.82
-164.52
-191.62
-215.87
-233.75
-241.36
-235.76
-216.82
-187.83
-154.31
-121.91
-94.01
-70.46
-48.13
-23.02
7.44
42.27
76.74
103.82
116.82
112.02
90.14
56.39
19.03
-12.94
-32.06
-33.73
-16.50
18.16
66.10
120.58
172.75
212.86
232.39
226.26
194.49
142.21
77.96
11.32
-49.78
-100.80
-140.88
-172.14
-198.03
-221.75
-245.18
-268.87
-292.14
-313.63
-331.37
-342.66
-344.22
-332.66
-306.03
-265.26
-214.61
-160.68
-109.97
-66.27
-29.29
4.56
39.62
77.89
117.53
153.51
180.10
193.48
193.26
182.45
166.06
149.58
137.90
134.44
140.82
155.79
175.04
192.05
200.90
199.10
189.65
180.09
178.79
190.54
213.49
239.58
257.99
259.76
240.90
202.60
149.66
88.23
24.93
-32.76
-76.47
-98.78
-96.48
-73.50
-41.36
-15.56
-9.44
-28.56
-67.75
-113.48
-149.84
-165.18
-155.67
-125.26
-82.59
-37.15
2.92
32.43
48.50
49.39
33.75
1.27
-46.63
-106.05
-170.25
-231.08
-279.40
-307.50
-311.42
-292.31
-255.40
-208.08
-157.29
-102.92
-47.01
7.27
55.89
95.12
122.63
138.60
146.75
151.79
157.82
166.00
174.97
181.17
180.32
167.74
142.49
107.24
67.16
28.31
-4.51
-27.58
-38.33
-35.48
-19.37
7.78
41.46
75.50
103.85
121.85
127.92
123.41
111.32
94.90
76.80
58.87
42.66
30.06
22.90
22.31
27.65
36.29
44.38
48.44
46.59
38.96
27.10
12.61
-3.89
-23.25
-47.12
-76.74
-111.68
-149.23
-184.52
-211.76
-226.12
-225.33
-210.57
-185.74
-155.48
-123.16
-90.11
-56.31
-22.26
10.04
37.64
58.40
72.48
82.43
91.55
101.78
112.58
121.41
125.31
122.51
112.84
97.34
77.71
56.11
35.26
18.11
6.89
2.01
1.70
2.87
2.84
0.67
-2.96
-6.69
-9.89
-13.15
-17.76
-24.58
-33.41
-42.86
-51.16
-56.98
-59.86
-60.25
-59.00
-56.96
-54.71
-52.52
-50.43
-48.35
-46.12
-43.47
-40.26
-36.51
-32.43
-28.42
-24.93
-22.44
-21.37
-22.09
-24.67
-28.82
-33.72
-38.15
-40.75
-40.45
-36.91
-30.60
-22.75
-14.86
-8.30
-3.85
-1.70
-1.53
-2.68
-4.29
-5.51
-5.76
-5.08
-4.32
-4.93
-8.38
-15.24
-24.56
-33.89
-40.02
-40.26
-33.40
-20.06
-2.40
16.68
34.45
49.13
60.04
67.46
71.47
71.88
68.33
60.76
49.95
37.60
25.88
16.83
11.63
9.34
7.69
4.12
-2.75
-12.45
-22.75
-30.74
-33.97
-31.46
-25.61
-21.29
-24.50
-40.30
-71.00
-115.17
-168.46
-224.93
-271.20
-295.36
-290.33
-257.48
-206.01
-147.78
-91.40
-40.40
5.20
46.45
82.44
110.84
129.26
136.72
133.77
123.00
107.06
88.45
69.92
54.04
43.68
41.35
49.67
67.13
88.66
107.84
119.89
123.42
119.45
110.13
97.23
81.92
65.10
48.82
36.09
30.15
33.09
44.61
61.98
80.64
95.36
101.60
97.21
83.31
64.09
45.23
31.32
23.76
20.10
15.29
4.18
-15.65
-42.12
-69.42
-90.38
-99.92
-97.34
-85.99
-70.92
-56.19
-43.33
-31.62
-19.62
-6.83
5.64
15.77
21.82
23.31
21.28
17.97
15.85
16.67
20.86
27.45
34.59
40.35
43.52
44.07
43.06
42.05
42.51
45.08
49.22
53.31
55.14
52.84
45.76
34.91
22.52
11.36
3.72
0.56
1.14
3.30
4.53
2.63
-3.54
-14.17
-27.81
-41.04
-48.78
-45.44
-26.94
7.16
52.58
101.10
142.65
168.93
176.00
164.97
140.45
108.13
72.59
36.47
3.92
-21.66
-37.73
-43.27
-39.25
-28.71
-16.06
-6.42
-4.08
-11.57
-29.07
-53.50
-78.39
-95.16
-95.61
-75.01
-34.28
20.00
77.61
127.68
162.02
176.94
173.21
154.74
127.14
96.60
68.95
49.06
39.47
39.69
46.07
52.78
53.22
41.44
13.80
-30.04
-86.11
-145.84
-197.01
-226.78
-225.85
-193.00
-137.15
-74.91
-24.27
2.95
5.56
-7.57
-23.30
-31.73
-30.91
-26.72
-28.50
-43.51
-73.26
-113.75
-158.17
-200.33
-236.95
-266.74
-288.17
-297.93
-291.16
-264.06
-217.67
-160.12
-105.08
-66.82
-53.86
-64.79
-89.27
-113.34
-126.69
-127.04
-119.77
-112.98
-111.52
-113.45
-111.59
-97.65
-66.44
-18.24
40.97
101.41
151.96
183.19
190.64
177.01
152.20
129.93
121.67
131.79
156.47
186.79
214.24
235.38
252.12
268.12
283.83
294.38
291.53
268.43
223.96
163.67
97.10
33.91
-19.20
-58.72
-83.41
-92.94
-88.40
-73.42
-54.30
-37.94
-29.88
-32.58
-45.52
-66.32
-92.05
-119.05
-142.44
-156.29
-155.15
-136.26
-101.07
-54.37
-2.32
49.64
97.13
135.83
160.14
163.68
142.38
97.70
37.46
-26.77
-84.59
-129.89
-161.62
-181.60
-192.23
-195.70
-195.18
-195.52
-202.00
-216.98
-237.45
-255.75
-263.35
-255.10
-231.72
-199.15
-165.07
-134.81
-109.22
-85.71
-62.11
-38.89
-18.82
-4.26
4.78
10.95
18.92
33.80
60.02
99.57
150.78
208.95
267.35
318.52
355.71
372.62
365.37
338.73
305.70
279.31
265.06
260.55
260.21
259.08
256.75
255.43
257.46
262.75
268.15
269.40
263.39
250.90
234.55
218.03
204.50
195.89
191.86
189.98
187.19
181.39
172.24
160.54
147.76
135.24
123.89
113.59
103.22
91.33
77.02
60.41
42.18
23.49
5.59
-10.50
-24.31
-36.27
-47.42
-59.00
-72.04
-87.16
-104.23
-122.53
-140.85
-158.09
-173.75
-188.28
-202.85
-218.95
-237.77
-259.56
-283.52
-308.23
-332.10
-354.23
-374.70
-394.52
-415.33
-439.10
-467.87
-503.30
-545.63
-592.39
-637.86
-673.69
-691.20
-684.51
-652.89
-601.09
-537.34
-470.07
-405.11
-344.70
-288.42
-235.11
-184.35
-136.70
-92.87
-52.84
-15.59
20.26
55.46
89.45
120.51
146.33
165.23
176.77
181.99
182.88
181.41
178.92
175.53
170.48
162.80
152.04
138.56
123.55
108.75
95.67
85.35
77.90
73.12
70.88
71.38
74.79
81.17
90.65
103.67
121.95
147.79
183.24
228.22
278.65
326.02
359.56
370.39
354.52
314.75
257.92
192.74
127.37
68.48
21.27
-9.98
-22.05
-14.70
9.01
36.71
51.48
39.81
-0.04
-58.25
-121.20
-175.07
-218.18
-251.63
-277.16
-295.35
-305.44
-307.25
-301.99
-292.80
-283.50
-277.83
-277.05
-280.98
-287.60
-293.69
-295.90
-292.01
-281.43
-264.57
-242.52
-215.61
-184.30
-149.03
-110.30
-69.09
-27.17
13.04
49.32
80.06
105.34
125.97
143.25
158.52
172.67
185.85
197.59
207.30
214.65
220.19
224.93
230.07
236.48
244.45
253.67
263.39
272.94
282.14
291.79
303.37
318.41
337.64
360.27
383.62
403.06
413.05
408.49
386.22
346.08
291.08
227.04
161.48
102.47
56.94
29.55
21.81
32.05
56.17
88.96
125.51
161.86
194.69
220.83
237.45
242.91
237.67
224.46
207.22
189.45
172.29
154.49
133.25
106.01
71.66
31.06
-13.23
-57.45
-97.08
-127.71
-146.09
-151.47
-146.36
-136.08
-126.93
-123.74
-128.28
-138.97
-151.93
-162.40
-165.91
-159.45
-142.56
-117.89
-90.95
-68.33
-55.12
-52.56
-57.21
-62.48
-62.27
-53.64
-37.76
-17.94
3.32
25.96
51.59
80.68
109.83
131.68
138.54
127.06
101.16
70.81
46.93
35.86
36.47
41.76
43.65
37.71
24.79
9.00
-6.08
-20.40
-36.85
-58.07
-82.95
-105.67
-117.71
-112.27
-88.10
-49.40
-4.81
36.36
67.75
87.77
98.68
104.37
107.61
109.06
109.43
109.18
109.23
110.86
115.08
121.40
128.21
132.73
132.25
127.78
121.82
117.35
116.76
121.26
130.10
141.89
154.09
163.99
172.44
180.20
186.63
189.08
183.75
166.94
138.38
100.74
42.90
-33.92
-118.45
-194.71
-251.80
-283.87
-300.03
-308.07
-312.82
-317.40
-322.37
-328.84
-338.28
-350.61
-362.49
-368.28
-361.14
-338.03
-301.03
-253.90
-201.49
-147.79
-95.10
-45.33
-2.84
26.01
34.19
18.42
-15.84
-56.43
-89.42
-105.06
-100.65
-80.15
-49.53
-13.27
27.18
72.68
122.39
171.56
212.26
237.05
242.32
230.58
209.30
188.38
176.88
179.91
197.01
222.23
246.55
260.91
259.58
241.40
209.61
169.84
127.80
87.82
52.52
23.59
2.04
-11.92
-19.40
-23.37
-27.96
-37.58
-54.90
-79.62
-108.60
-136.99
-160.55
-177.85
-191.36
-205.75
-225.14
-249.92
-276.07
-297.15
-307.58
-305.10
-291.16
-268.84
-240.30
-205.69
-164.11
-115.85
-63.73
-12.56
32.74
69.06
95.73
114.26
127.29
137.95
149.61
165.60
188.40
218.18
252.38
286.38
315.26
335.42
345.23
344.63
334.06
313.89
284.43
246.87
203.66
158.29
114.42
74.95
41.38
13.66
-9.40
-29.70
-49.19
-69.62
-92.57
-119.75
-152.82
-192.46
-236.96
-281.63
-319.82
-345.55
-356.41
-355.00
-347.67
-341.21
-339.43
-341.73
-344.30
-343.11
-336.36
-325.29
-312.47
-299.54
-286.11
-270.68
-252.65
-233.80
-217.67
-206.95
-201.09
-195.92
-185.93
-167.62
-141.76
-113.28
-88.54
-72.26
-65.69
-66.94
-72.82
-80.73
-89.33
-97.93
-105.37
-109.55
-108.08
-99.28
-82.81
-59.73
-31.89
-1.46
29.39
58.44
83.78
104.19
119.38
129.92
137.08
142.77
149.65
161.05
180.57
210.78
251.39
297.94
342.00
372.90
381.19
361.88
316.50
252.77
182.01
115.57
61.64
23.90
2.00
-6.73
-5.78
1.54
12.26
23.70
33.52
39.94
42.10
40.13
35.30
29.46
24.53
21.74
21.13
21.46
20.72
16.93
9.07
-2.30
-15.16
-26.93
-35.43
-39.84
-40.57
-38.75
-35.41
-31.21
-26.54
-21.53
-16.28
-10.66
-4.54
1.94
7.89
11.64
11.37
6.18
-3.02
-13.44
-21.44
-24.07
-20.41
-11.99
-1.86
6.89
12.46
14.62
14.29
12.74
10.82
8.76
6.28
2.98
-1.27
-6.29
-11.63
-16.64
-20.46
-22.05
-20.33
-14.62
-5.22
6.25
17.11
24.54
26.65
23.07
14.93
4.15
-7.39
-18.37
-28.04
-35.97
-41.61
-44.34
-43.61
-39.13
-31.08
-20.13
-7.38
5.55
16.73
24.51
28.16
28.46
27.65
28.35
32.35
39.73
48.96
57.90
65.05
70.16
74.01
77.60
81.36
85.01
87.94
89.82
90.93
92.07
93.95
96.67
99.60
101.57
101.35
97.94
90.67
79.41
64.81
48.19
31.16
14.93
-0.25
-15.26
-31.77
-51.52
-75.53
-103.75
-135.20
-168.14
-200.45
-229.82
-254.12
-271.77
-281.94
-284.60
-279.91
-267.74
-247.33
-217.87
-179.35
-133.31
-82.96
-32.25
15.41
58.33
96.62
131.53
164.07
193.98
219.48
237.91
246.70
244.42
231.31
209.31
181.67
152.15
124.17
100.17
81.23
67.08
56.61
48.58
42.16
37.34
34.60
34.22
35.59
37.25
37.49
35.28
30.89
25.91
22.43
21.80
23.94
27.41
30.18
30.67
28.50
24.40
19.59
14.96
10.65
6.27
1.43
-3.78
-8.68
-12.22
-13.55
-12.59
-9.94
-6.64
-3.33
0.28
5.51
14.32
28.40
48.36
73.17
100.36
126.63
148.69
164.02
171.27
170.44
162.87
150.96
137.68
125.80
116.82
110.31
103.84
93.84
76.85
50.88
16.28
-24.22
-66.22
-104.83
-135.88
-156.73
-166.87
-167.86
-162.90
-155.99
-150.73
-149.17
-151.21
-154.71
-156.50
-153.79
-145.42
-132.46
-117.79
-104.92
-96.45
-93.21
-93.81
-95.33
-94.29
-87.78
-74.26
-54.04
-29.21
-2.99
21.11
40.49
53.98
61.95
65.56
65.86
63.05
56.60
45.65
29.55
8.14
-18.35
-49.33
-83.67
-119.12
-151.92
-177.06
-189.57
-186.57
-168.78
-140.58
-108.40
-78.13
-53.23
-34.02
-18.79
-5.64
6.16
16.18
23.88
29.82
35.89
44.25
55.91
69.49
81.83
89.52
90.79
86.24
78.29
69.80
62.76
57.92
54.95
53.09
51.71
50.42
48.92
46.94
44.23
40.70
36.57
32.45
29.40
28.81
32.00
39.53
50.79
63.78
75.89
85.01
90.37
92.71
93.44
93.54
92.97
91.05
87.30
82.26
77.40
74.21
73.19
73.32
72.41
68.18
59.16
45.28
27.51
7.13
-14.83
-37.41
-59.32
-78.35
-91.68
-96.87
-93.27
-82.96
-70.08
-58.97
-51.75
-46.86
-39.54
-24.09
3.41
43.59
94.16
151.22
210.57
267.90
318.30
355.99
375.31
372.67
348.49
307.67
258.14
208.18
163.86
127.82
99.82
78.02
60.11
43.88
27.21
8.14
-14.72
-41.67
-71.70
-102.93
-133.42
-162.02
-188.89
-215.47
-243.98
-276.61
-314.77
-358.20
-404.03
-446.65
-478.53
-492.20
-482.90
-450.50
-399.91
-339.50
-278.26
-222.77
-175.60
-135.72
-100.52
-68.10
-38.62
-13.95
3.57
12.72
14.18
10.38
4.34
-1.81
-7.59
-14.06
-22.38
-32.52
-42.49
-49.03
-49.45
-43.28
-32.89
-22.74
-17.27
-18.83
-26.65
-37.20
-46.03
-49.82
-47.67
-41.07
-32.84
-25.75
-21.52
-20.43
-21.36
-22.04
-19.60
-10.86
7.05
35.59
73.93
118.45
163.19
201.43
227.67
239.20
236.61
223.03
202.87
180.64
160.03
143.30
130.77
120.80
110.25
96.00
76.44
52.52
27.50
5.70
-9.48
-16.63
-16.49
-10.94
-1.90
9.17
21.22
33.12
43.77
52.65
60.54
69.43
81.36
96.94
114.00
127.80
132.53
123.82
100.87
67.01
28.46
-7.95
-36.98
-56.08
-65.17
-65.48
-58.53
-45.99
-29.89
-13.03
1.29
10.41
13.30
11.25
7.42
5.62
8.98
18.95
35.32
56.26
78.67
98.24
109.88
108.71
91.83
59.83
17.39
-27.72
-67.30
-95.47
-110.43
-114.50
-112.56
-109.62
-108.97
-111.40
-115.56
-119.23
-120.42
-118.20
-112.70
-104.90
-96.05
-87.22
-79.14
-72.30
-67.16
-64.11
-62.96
-62.59
-61.01
-56.16
-47.11
-34.87
-22.26
-12.81
-8.87
-10.11
-13.39
-14.12
-8.70
3.78
21.29
40.25
57.76
72.74
85.62
97.23
107.55
115.54
120.12
121.20
119.86
117.71
115.66
113.74
112.00
111.78
116.12
128.35
150.15
179.92
212.82
242.52
263.26
271.06
264.25
243.30
211.05
172.98
136.58
109.40
96.11
96.18
103.65
109.56
106.07
89.65
61.95
28.23
-5.67
-35.83
-61.21
-83.07
-103.85
-125.98
-151.56
-182.47
-220.13
-264.81
-314.50
-364.39
-407.30
-435.91
-446.08
-439.43
-423.81
-410.13
-407.20
-417.05
-433.41
-444.31
-437.63
-406.80
-353.68
-287.61
-221.40
-166.42
-129.29
-110.73
-106.48
-109.53
-112.39
-108.63
-93.96
-66.78
-28.23
18.07
66.76
111.58
146.61
167.77
174.04
167.81
154.07
138.44
125.09
115.86
110.62
108.50
109.23
113.26
121.01
131.82
143.76
154.30
161.64
165.48
166.86
167.28
167.62
167.65
166.55
163.79
159.50
154.32
148.99
143.80
138.76
133.87
129.50
126.47
125.88
128.55
134.75
144.14
155.89
168.92
182.14
194.54
205.23
213.35
217.94
217.94
212.49
201.07
183.57
160.32
131.78
98.88
63.05
26.28
-9.00
-39.87
-63.00
-74.65
-71.37
-51.77
-18.31
21.81
57.75
78.09
74.80
46.35
-1.31
-56.39
-104.91
-134.76
-139.08
-118.17
-79.32
-34.64
2.61
22.68
22.79
7.50
-13.91
-32.51
-43.82
-48.98
-52.98
-60.90
-74.72
-92.51
-109.91
-122.91
-130.02
-133.15
-136.23
-142.86
-154.31
-168.70
-181.82
-189.27
-188.77
-181.15
-169.34
-156.20
-143.17
-130.31
-117.80
-106.71
-99.03
-96.73
-100.75
-110.77
-126.17
-147.50
-177.10
-218.58
-273.20
-337.45
-402.88
-458.56
-494.71
-505.91
-492.43
-459.25
-414.63
-365.79
-317.08
-269.90
-224.29
-180.20
-138.48
-100.32
-66.36
-37.14
-10.80
16.19
47.02
82.70
121.64
160.46
195.66
233.14
272.48
308.97
336.67
352.39
356.50
351.05
338.15
319.48
296.70
270.33
242.04
214.33
189.70
169.51
153.60
140.69
129.14
117.60
104.38
89.06
72.50
56.29
41.87
29.98
20.63
13.36
7.65
2.51
-2.51
-6.99
-9.81
-9.83
-6.54
-0.25
7.84
16.34
23.54
28.14
30.00
30.35
31.19
34.39
40.85
50.12
61.27
72.66
82.42
89.70
95.20
101.05
110.24
125.98
151.14
184.34
222.29
258.27
283.49
289.77
272.66
233.14
177.34
109.16
37.95
-25.99
-76.19
-111.68
-135.07
-149.27
-155.63
-155.68
-150.47
-141.56
-132.34
-127.32
-130.41
-143.67
-166.65
-195.54
-225.00
-248.45
-259.04
-252.21
-227.39
-188.22
-141.37
-94.27
-52.83
-19.86
5.59
27.13
48.42
71.40
95.83
119.97
141.56
158.23
167.61
167.69
157.31
136.60
107.94
76.04
46.92
26.19
16.88
18.78
29.40
44.93
61.81
77.77
91.94
104.35
115.71
126.11
135.45
143.69
150.13
153.90
154.68
153.07
150.53
149.71
151.96
157.66
166.13
174.32
177.82
172.43
155.40
126.31
88.11
43.77
-3.30
-49.63
-94.22
-137.99
-182.66
-229.80
