1720554842.00
64.000000
-0.00
-0.00
-0.00
-0.00
-0.00
-0.00
-0.00
-0.00
-0.00
-0.00
0.00
0.01
0.01
-0.00
-0.03
-0.05
-0.05
0.00
0.13
0.36
0.66
1.01
1.37
1.72
2.06
2.40
2.79
3.24
3.80
4.42
5.06
5.66
6.20
6.68
7.15
7.68
8.31
9.14
10.09
11.04
11.88
12.56
13.14
13.76
14.65
15.96
17.91
20.32
22.90
25.38
27.58
29.57
31.68
34.32
37.81
42.54
48.15
54.10
59.83
64.97
69.58
74.14
79.34
85.71
93.76
103.00
112.62
121.73
129.77
136.75
143.30
150.75
157.77
166.64
177.95
191.79
206.97
220.57
228.25
225.36
208.53
176.87
132.76
80.05
23.07
-34.94
-92.44
-149.16
-205.23
-260.37
-313.74
-363.87
-409.83
-450.91
-486.50
-515.74
-537.23
-549.22
-549.96
-538.37
-514.21
-478.67
-433.88
-382.45
-327.02
-269.84
-212.63
-156.66
-102.95
-52.37
-5.90
35.58
71.43
101.35
125.50
144.38
158.69
169.15
176.37
180.75
182.57
182.07
179.51
175.23
169.65
163.18
156.15
148.81
141.30
133.69
126.02
118.33
110.69
103.16
95.80
88.68
81.83
75.24
68.95
62.95
57.25
51.87
46.81
42.07
37.64
33.54
29.73
26.22
22.99
20.05
17.39
14.99
12.85
10.96
9.31
7.88
6.65
5.62
4.75
4.03
3.46
3.00
2.64
2.38
2.19
2.08
2.03
2.03
2.07
2.16
2.29
2.46
2.66
2.89
3.16
3.47
3.81
4.19
4.61
5.06
5.56
6.10
6.68
7.30
7.97
8.69
9.45
10.27
11.13
12.05
13.01
14.03
15.10
16.23
17.44
18.71
20.06
21.45
22.86
24.24
25.51
26.56
27.27
27.50
27.12
26.03
24.16
21.49
18.08
13.99
9.39
4.50
-0.47
-5.28
-9.69
-13.52
-16.62
-18.92
-20.39
-21.05
-20.98
-20.32
-19.17
-17.66
-15.92
-14.03
-12.05
-10.03
-7.95
-5.87
-3.79
-1.70
0.40
2.54
4.73
7.01
9.41
11.98
14.67
17.44
20.27
23.18
26.17
29.26
32.50
35.95
39.73
43.69
47.77
51.95
56.24
60.66
65.26
70.10
75.29
80.97
86.86
92.81
98.74
104.61
110.46
116.34
122.37
128.65
135.34
142.00
148.31
153.96
158.65
162.02
163.59
162.64
157.94
151.70
144.47
136.49
127.91
118.86
109.57
100.31
91.37
83.01
75.41
68.06
60.58
52.67
44.27
35.56
26.95
18.87
11.62
5.28
-0.83
-7.41
-15.03
-23.86
-33.59
-43.55
-53.01
-61.50
-69.09
-76.62
-85.16
-95.53
-108.01
-122.11
-136.91
-151.30
-164.62
-176.81
-188.57
-200.97
-215.27
-232.70
-254.11
-279.42
-306.97
-333.18
-353.10
-361.77
-356.07
-335.97
-304.78
-267.95
-230.94
-197.58
-169.24
-145.37
-124.69
-106.29
-90.03
-76.13
-64.61
-54.86
-45.79
-36.36
-26.09
-15.35
-5.21
3.09
8.71
11.60
12.44
12.28
12.05
12.10
12.13
11.42
9.30
5.53
0.42
-5.31
-10.88
-15.79
-20.11
-24.29
-29.03
-34.90
-42.09
-50.33
-58.89
-66.72
-72.63
-75.46
-74.27
-68.52
-58.21
-43.89
-26.55
-7.46
12.16
31.22
48.87
64.48
77.51
87.58
94.48
98.29
99.34
98.24
95.66
92.25
88.51
84.84
81.49
78.59
76.05
73.55
70.68
67.20
63.27
59.48
56.61
55.12
54.74
54.47
52.86
48.77
41.84
32.64
22.38
12.29
3.15
-4.90
-12.10
-18.83
-25.39
-32.01
-38.99
-46.69
-55.54
-65.73
-76.95
-88.29
-98.39
-105.68
-108.79
-106.87
-99.76
-87.96
-72.49
-54.57
-35.44
-16.14
2.45
19.63
34.83
47.64
57.84
65.42
70.58
73.57
74.71
74.30
72.74
70.50
68.11
65.96
64.20
62.67
60.99
58.78
55.92
52.56
49.05
45.75
42.77
40.00
37.12
33.77
29.66
24.62
18.57
11.51
3.59
-4.83
-13.23
-21.04
-27.90
-33.88
-39.45
-45.34
-52.16
-60.19
-69.23
-78.74
-87.98
-96.16
-102.45
-105.91
-105.59
-100.70
-90.87
-76.39
-58.22
-37.80
-16.72
3.65
22.30
38.62
52.19
62.70
69.96
73.94
75.04
74.00
71.81
69.32
67.01
64.87
62.53
59.59
55.90
51.68
47.41
43.53
40.19
37.15
33.91
29.88
24.71
18.44
11.40
4.09
-3.08
-9.97
-16.64
-23.20
-29.72
-36.12
-42.33
-48.38
-54.33
-59.98
-64.69
-67.49
-67.55
-64.76
-59.95
-54.56
-49.85
-46.00
-41.82
-35.21
-24.31
-8.62
10.47
30.14
47.23
59.52
66.48
69.18
69.62
69.71
70.46
71.76
72.68
72.15
69.56
65.10
59.57
54.02
49.29
45.72
43.21
41.44
40.07
38.93
37.96
37.09
36.09
34.54
31.89
27.73
21.89
14.54
6.14
-2.76
-11.55
-19.73
-26.86
-32.76
-37.57
-41.82
-46.33
-51.91
-58.99
-67.43
-76.68
-86.04
-95.01
-103.41
-111.09
-117.51
-121.60
-121.81
-116.70
-105.49
-88.48
-66.96
-42.88
-18.26
5.19
26.26
44.32
59.15
70.79
79.46
85.49
89.22
90.99
91.05
89.55
86.64
82.51
77.56
72.38
67.70
64.12
61.98
61.12
60.97
60.77
59.83
57.70
54.23
49.53
43.81
37.29
30.16
22.66
14.98
7.35
-0.10
-7.39
-14.61
-21.92
-29.39
-36.94
-44.39
-51.58
-58.62
-65.87
-73.87
-82.89
-92.49
-101.31
-107.37
-108.65
-103.87
-92.87
-76.59
-56.66
-34.90
-12.98
7.55
25.22
38.77
47.41
51.14
50.71
47.16
41.27
33.31
23.33
11.71
-0.47
-11.65
-20.55
-26.81
-31.08
-34.45
-37.63
-40.45
-42.06
-41.46
-38.08
-31.87
-22.97
-11.66
1.47
15.13
27.34
36.16
40.67
41.66
41.16
41.13
42.03
42.20
38.78
29.47
14.02
-5.25
-24.43
-39.73
-48.84
-51.35
-48.22
-40.78
-30.06
-16.64
-0.81
17.07
36.40
56.39
76.21
94.90
111.26
123.74
130.57
130.25
122.30
107.75
89.08
69.65
52.66
40.21
32.97
30.45
31.52
34.79
38.75
41.59
41.42
36.82
27.80
16.19
5.28
-1.74
-3.45
-0.72
3.93
8.24
11.25
13.40
15.65
18.25
20.21
19.87
15.97
7.84
-4.12
-19.80
-39.41
-62.23
-85.55
-105.09
-116.85
-119.56
-116.84
-114.59
-119.32
-135.00
-160.81
-192.24
-224.19
-253.88
-281.13
-307.64
-331.68
-348.67
-352.32
-336.02
-295.34
-229.98
-143.90
-43.27
65.24
179.55
294.79
396.70
466.33
489.92
465.70
402.66
326.78
248.42
175.47
113.99
68.03
40.25
31.38
41.66
68.86
107.86
152.29
194.44
226.76
244.29
246.09
234.61
213.51
194.11
180.04
173.61
177.92
191.76
209.93
221.72
218.56
196.03
155.85
104.36
50.20
0.53
-45.08
-91.01
-140.86
-192.96
-240.87
-276.83
-296.96
-302.20
-282.50
-235.40
-165.00
-81.42
2.47
73.79
122.22
142.68
138.80
119.11
93.61
69.86
50.62
34.57
18.24
-1.21
-24.86
-52.43
-76.62
-97.10
-116.61
-138.90
-166.85
-201.63
-242.71
-288.07
-334.01
-375.13
-406.44
-422.18
-417.61
-391.67
-348.32
-295.99
-244.26
-200.19
-166.01
-140.68
-120.97
-104.18
-89.50
-77.39
-67.85
-58.99
-47.55
-30.86
-9.59
12.73
31.19
42.21
45.47
43.78
41.10
40.21
41.34
42.58
41.88
38.59
33.80
29.17
25.61
22.63
18.95
13.67
7.00
0.20
-5.44
-9.53
-12.83
-16.41
-20.60
-24.23
-24.78
-19.45
-6.48
13.87
39.18
65.66
89.46
107.82
119.74
125.76
127.19
125.36
121.09
114.93
107.53
99.85
93.07
87.95
84.44
81.71
78.60
74.26
68.55
61.96
55.28
49.26
44.58
41.83
41.47
43.47
46.91
49.97
50.50
46.84
38.75
27.39
14.74
2.39
-9.18
-20.74
-33.38
-47.50
-61.96
-74.25
-81.37
-81.16
-73.16
-58.73
-40.45
-20.96
-2.13
15.25
31.17
45.76
58.81
69.65
77.47
81.89
83.26
82.55
80.90
79.10
77.23
74.74
70.92
65.42
58.61
51.50
45.29
40.81
38.28
37.24
36.92
36.57
35.67
33.91
31.11
27.05
21.49
14.24
5.23
-5.40
-17.19
-29.44
-41.28
-52.07
-61.71
-70.87
-80.79
-92.71
-107.06
-122.83
-137.65
-148.39
-152.29
-147.95
-135.74
-117.49
-95.61
-72.29
-48.98
-26.56
-5.68
12.92
28.32
39.72
46.88
50.28
50.99
50.32
49.27
48.26
47.18
45.71
43.76
41.84
40.91
41.91
45.17
49.85
54.09
55.62
52.92
46.04
36.70
27.56
20.78
17.15
15.61
13.90
9.82
2.41
-7.70
-18.99
-30.25
-41.44
-53.47
-67.46
-83.59
-100.71
-116.66
-129.29
-137.30
-140.52
-139.31
-133.42
-122.17
-104.99
-82.44
-56.67
-30.90
-8.31
8.98
20.64
29.34
38.63
51.54
69.11
90.03
111.16
128.41
137.87
136.90
127.86
115.19
103.92
97.02
94.57
94.72
94.83
92.53
86.22
79.69
76.97
81.09
91.51
105.13
118.90
131.84
145.01
160.42
185.56
225.79
283.65
356.35
438.22
524.85
615.47
712.37
781.60
794.75
735.79
612.62
448.58
268.67
92.66
-64.61
-192.41
-285.52
-335.43
-349.74
-337.95
-311.64
-281.79
-255.71
-236.50
-224.85
-220.77
-219.83
-220.25
-217.74
-210.23
-198.43
-184.36
-170.50
-159.30
-152.66
-149.01
-146.02
-139.73
-127.69
-109.41
-85.71
-58.50
-30.77
-6.29
11.70
21.09
23.27
21.54
19.83
21.20
26.78
35.57
45.45
52.90
55.50
53.44
48.83
43.77
39.67
37.21
37.09
40.38
44.76
47.35
46.12
41.10
32.67
20.98
5.52
-14.34
-38.93
-72.50
-118.67
-178.19
-247.35
-321.62
-397.45
-473.62
-549.78
-597.84
-595.74
-537.17
-437.60
-322.92
-216.47
-130.82
-68.61
-25.18
7.48
32.77
51.77
58.32
56.89
52.97
51.54
55.23
65.18
80.89
97.22
108.68
111.95
107.90
98.26
89.21
82.82
79.16
77.10
72.71
62.14
43.23
17.49
-11.96
-40.82
-65.58
-83.64
-94.28
-99.76
-103.29
-107.12
-110.70
-112.11
-109.11
-101.31
-90.10
-78.16
-68.51
-62.70
-60.23
-58.81
-56.20
-50.96
-43.01
-32.69
-20.36
-6.46
8.45
23.40
37.36
49.52
59.68
68.08
75.15
80.96
84.95
86.36
84.78
80.64
75.15
69.89
66.21
64.81
65.52
67.42
69.09
69.10
66.42
60.91
53.32
44.99
37.15
30.40
24.52
18.85
12.94
6.74
0.56
-5.41
-11.31
-17.48
-24.11
-31.02
-37.98
-45.13
-53.31
-63.73
-77.16
-93.20
-109.95
-124.67
-134.70
-138.30
-134.80
-124.28
-107.18
-84.26
-56.94
-27.62
0.51
24.38
42.17
54.08
62.09
68.78
75.89
83.32
89.24
91.31
88.14
80.29
70.21
61.01
54.90
52.11
50.85
48.37
42.43
32.41
19.47
5.83
-6.43
-16.38
-24.53
-32.44
-41.84
-53.75
-67.88
-82.64
-95.49
-103.87
-106.19
-102.60
-95.13
-87.01
-81.38
-80.19
-83.70
-90.95
-100.49
-111.13
-122.07
-132.80
-143.14
-153.56
-165.62
-181.78
-204.25
-233.43
-266.75
-299.02
-324.31
-338.27
-339.87
-331.39
-316.91
-300.30
-283.93
-268.48
-253.68
-239.18
-225.03
-211.61
-199.25
-187.81
-176.51
-164.13
-149.18
-130.28
-106.43
-77.30
-43.27
-5.28
35.51
78.04
121.69
166.35
212.26
259.96
310.23
364.01
421.86
482.91
543.83
598.43
638.46
655.94
645.77
607.87
547.40
473.05
393.98
317.04
245.43
179.36
118.02
61.80
12.65
-26.78
-54.48
-70.14
-75.32
-72.69
-65.08
-54.81
-43.19
-31.43
-20.97
-13.22
-8.94
-7.85
-8.81
-10.76
-13.47
-16.87
-21.63
-28.34
-36.84
-45.97
-54.13
-60.15
-63.75
-64.87
-60.47
-47.26
-22.72
14.17
62.96
122.50
191.56
269.15
354.24
449.57
553.18
656.53
746.81
812.50
849.02
860.18
855.63
845.96
845.96
861.17
886.51
910.99
924.49
923.44
910.31
889.84
865.49
847.93
840.97
839.99
835.40
817.72
782.45
729.57
661.02
514.77
269.11
-52.64
-392.80
-694.49
-928.62
-1092.05
-1195.34
-1252.17
-1274.16
-1259.24
-1207.05
-1129.82
-1038.94
-947.42
-865.23
-797.59
-744.82
-703.79
-662.05
-611.26
-551.08
-487.46
-429.29
-380.74
-342.99
-314.43
-292.61
-270.82
-245.71
-218.39
-192.28
-171.13
-156.21
-146.71
-140.92
-137.68
-134.33
-129.81
-124.85
-120.76
-118.89
-119.10
-119.96
-119.14
-114.41
-103.51
-85.85
-62.72
-36.59
-10.46
13.41
33.68
50.02
62.64
71.86
77.99
81.27
82.03
80.64
77.61
73.46
68.85
64.45
60.87
58.56
57.66
57.97
58.96
59.99
60.52
60.32
59.37
57.69
55.04
50.91
44.74
36.38
26.29
15.54
5.41
-3.19
-10.00
-15.45
-20.23
-24.93
-29.85
-35.16
-41.13
-48.13
-56.46
-65.89
-75.34
-82.97
-86.62
-84.36
-75.15
-59.08
-37.43
-12.38
13.36
37.10
56.66
70.76
79.31
83.26
84.30
84.23
84.51
85.80
87.93
90.06
91.05
90.01
86.65
81.49
75.57
69.98
65.31
61.52
58.09
54.57
50.92
47.55
44.98
43.43
42.31
40.25
35.27
25.31
8.86
-14.68
-44.92
-80.76
-120.57
-162.09
-202.28
-237.71
-265.44
-284.39
-296.03
-303.88
-311.39
-319.72
-326.34
-325.83
-312.61
-283.95
-241.45
-190.33
-136.92
-86.41
-41.82
-4.49
24.97
46.28
60.10
68.83
76.42
87.17
103.66
125.51
149.50
171.30
187.47
196.78
200.01
198.65
193.68
185.15
172.75
156.84
138.93
121.16
105.36
92.07
80.43
69.09
57.27
45.27
34.16
24.83
17.21
10.18
2.08
-8.50
-22.10
-38.27
-55.69
-72.42
-86.19
-94.63
-95.72
-88.34
-72.73
-50.58
-24.71
1.76
26.17
46.92
63.59
76.57
86.57
94.15
99.56
102.75
103.55
101.89
97.90
91.86
84.32
76.04
67.95
60.99
55.82
52.59
50.95
50.08
49.12
47.34
44.29
39.74
33.69
26.28
17.86
8.96
0.07
-8.62
-17.36
-26.67
-36.89
-47.72
-58.02
-66.29
-71.56
-74.06
-75.42
-78.01
-83.86
-93.59
-106.04
-118.80
-129.06
-134.58
-133.84
-126.00
-110.59
-87.68
-58.29
-24.63
9.90
41.46
67.04
85.31
96.82
103.29
106.45
107.30
106.18
103.12
98.40
92.56
86.21
79.65
72.79
65.25
56.77
47.86
39.30
31.72
25.11
18.90
12.50
5.64
-1.58
-9.03
-15.71
-21.17
-25.63
-30.12
-35.90
-43.56
-52.99
-63.71
-75.42
-85.78
-93.17
-96.83
-97.80
-98.38
-100.67
-105.90
-114.42
-126.06
-136.09
-139.70
-132.18
-111.68
-79.32
-37.28
12.00
66.41
124.27
189.30
264.61
352.83
452.54
559.07
668.15
777.20
886.00
962.22
979.28
924.79
812.93
672.97
530.51
398.62
278.04
165.41
59.46
-25.54
-87.72
-125.28
-140.65
-141.15
-134.07
-127.05
-125.20
-130.62
-141.36
-156.49
-173.86
-193.80
-218.75
-248.75
-284.77
-326.68
-362.51
-379.11
-370.40
-336.87
-285.94
-242.46
-211.07
-191.21
-180.89
-179.05
-176.79
-172.03
-163.76
-152.19
-138.11
-119.93
-98.20
-73.92
-47.91
-21.66
1.52
19.66
31.70
37.43
39.26
38.21
35.14
31.09
26.44
20.26
12.25
2.59
-8.33
-18.98
-29.20
-39.27
-49.50
-60.38
-72.87
-87.33
-103.63
-121.40
-139.93
-159.60
-181.45
-206.51
-235.00
-265.92
-296.28
-321.94
-338.89
-344.39
-338.02
-321.25
-296.66
-267.15
-235.97
-206.63
-182.67
-167.00
-160.75
-162.45
-168.27
-173.26
-173.21
-165.93
-151.42
-130.85
-105.41
-75.70
-42.13
-5.89
30.52
63.66
90.33
108.74
119.17
123.56
124.34
123.33
121.29
118.25
114.28
110.01
106.46
104.46
104.04
104.31
103.97
102.00
98.06
92.34
85.20
76.80
67.21
56.68
46.11
37.14
31.49
30.38
33.78
40.25
47.21
51.38
49.17
36.91
11.55
-28.28
-80.74
-139.95
-196.72
-240.94
-264.81
-265.48
-245.65
-211.89
-171.78
-131.10
-92.66
-56.60
-21.72
13.21
48.66
84.05
117.64
146.78
168.51
180.54
182.16
174.60
160.19
141.13
118.87
94.63
70.71
51.20
40.81
42.32
54.11
69.88
81.27
82.05
71.26
53.25
34.67
20.72
12.75
8.61
4.99
-0.33
-7.77
-17.12
-29.00
-45.31
-68.11
-97.66
-131.28
-163.67
-188.67
-201.51
-200.27
-186.23
-162.90
-134.53
-104.81
-76.05
-49.05
-23.63
0.70
24.15
46.61
67.85
88.03
107.99
129.09
152.47
178.04
203.82
225.99
240.08
242.74
233.24
214.10
190.18
166.90
148.19
135.45
127.48
121.64
115.30
106.77
95.66
82.57
68.53
54.71
42.13
31.64
23.77
18.51
15.04
11.82
6.98
-1.11
-13.11
-28.50
-45.79
-63.32
-79.90
-95.18
-109.26
-122.09
-132.81
-139.64
-140.50
-133.84
-119.37
-98.29
-72.89
-45.78
-19.14
5.66
27.93
47.38
63.69
76.47
85.37
90.35
91.98
91.28
89.46
87.47
85.71
84.09
82.29
80.06
77.39
74.52
71.71
69.11
66.70
64.31
61.72
58.69
54.96
50.29
44.43
37.26
28.79
19.24
9.01
-1.48
-11.78
-21.52
-30.49
-38.66
-46.27
-53.80
-61.86
-71.06
-81.78
-93.95
-106.87
-119.25
-129.35
-135.33
-135.67
-129.44
-116.54
-97.63
-73.86
-46.79
-18.28
9.68
35.08
56.24
72.16
82.73
88.59
90.77
90.26
87.76
83.71
78.46
72.47
66.33
60.64
55.84
52.14
49.58
48.10
47.60
47.83
48.18
47.75
45.56
41.04
34.33
26.35
18.32
11.16
5.00
-0.86
-7.48
-15.65
-25.43
-36.16
-46.87
-56.94
-66.43
-76.10
-86.90
-99.37
-113.11
-126.60
-137.49
-143.24
-141.82
-132.29
-115.08
-91.86
-65.06
-37.27
-10.72
13.03
33.18
49.55
62.35
71.88
78.43
82.21
83.39
82.24
79.23
75.06
70.48
66.11
62.28
59.05
56.32
54.07
52.36
51.28
50.71
50.23
49.08
46.47
41.84
35.12
26.59
16.82
6.49
-3.73
-13.14
-21.16
-27.55
-32.63
-37.27
-42.44
-48.67
-55.67
-62.37
-67.49
-70.18
-70.31
-68.27
-64.36
-58.38
-49.62
-37.41
-21.66
-3.01
17.30
37.92
57.64
75.25
89.38
98.51
101.44
98.02
89.62
78.80
68.41
60.49
55.53
52.55
49.88
46.17
40.99
34.86
28.66
23.00
17.83
12.63
6.74
-0.23
-8.31
-17.26
-26.90
-37.17
-48.07
-59.42
-70.63
-80.80
-89.01
-94.81
-98.61
-101.62
-105.41
-111.22
-119.35
-128.94
-138.18
-144.97
-147.52
-144.78
-136.52
-123.08
-105.16
-83.65
-59.59
-34.23
-8.86
15.37
37.62
57.38
74.32
88.10
98.23
104.27
106.10
104.23
99.71
93.98
88.44
84.05
81.18
79.65
78.87
78.10
76.70
74.32
71.00
67.10
63.14
59.46
56.09
52.60
48.47
43.25
36.87
29.60
21.81
13.67
5.06
-4.27
-14.41
-25.13
-35.97
-46.57
-56.95
-67.34
-77.74
-87.16
-93.49
-93.93
-86.09
-69.28
-45.03
-16.66
11.97
38.00
60.37
79.62
96.86
112.62
126.22
136.17
141.06
140.58
135.75
128.54
120.90
113.91
107.62
101.47
95.07
88.65
83.05
79.16
77.34
77.18
77.77
78.21
78.01
77.13
75.64
73.42
70.08
65.22
58.69
50.81
42.14
33.16
24.01
14.42
3.95
-7.87
-21.48
-37.28
-55.53
-76.00
-97.64
-118.31
-135.10
-145.01
-145.90
-137.27
-120.38
-97.86
-72.99
-49.00
-28.61
-13.87
-6.21
-6.35
-14.16
-28.39
-46.54
-65.02
-80.06
-88.69
-89.98
-85.54
-79.15
-75.31
-77.47
-86.60
-101.07
-118.01
-135.16
-152.09
-169.90
-189.58
-210.38
-229.44
-242.94
-248.33
-245.76
-237.92
-228.45
-219.74
-211.96
-203.57
-192.83
-179.22
-163.75
-148.17
-133.79
-120.84
-108.66
-96.27
-83.06
-69.02
-54.64
-40.59
-27.52
-15.70
-5.06
4.91
15.09
26.48
40.09
56.97
78.15
104.32
135.08
168.18
199.43
223.72
236.89
237.51
227.46
210.99
192.82
176.35
163.09
153.28
146.93
144.26
145.22
148.43
150.86
148.52
138.11
118.52
91.26
59.64
27.34
-2.76
-29.07
-51.28
-69.81
-85.54
-99.34
-111.56
-121.52
-127.38
-126.52
-116.70
-97.16
-69.37
-36.70
-3.44
26.47
50.30
66.65
75.13
75.98
69.99
58.49
43.49
27.48
12.91
1.67
-5.35
-8.23
-7.69
-4.54
0.53
6.95
14.08
21.09
27.15
31.62
34.35
35.58
35.62
34.42
31.48
26.15
18.18
8.12
-2.82
-13.23
-22.18
-29.65
-36.42
-43.62
-52.26
-62.93
-75.79
-90.63
-106.66
-122.42
-135.81
-144.35
-145.84
-138.92
-123.46
-100.54
-72.19
-40.88
-9.20
20.55
46.64
68.14
85.00
97.87
107.71
115.19
120.45
123.05
122.36
118.11
110.66
101.00
90.67
81.30
74.32
70.62
70.25
72.36
75.37
77.35
76.63
72.38
64.77
54.80
43.73
32.60
21.90
11.64
1.55
-8.52
-18.46
-27.98
-36.80
-44.95
-52.93
-61.66
-72.25
-85.67
-102.21
-121.08
-140.13
-155.85
-164.13
-161.36
-145.77
-118.33
-82.72
-44.23
-8.14
21.84
44.37
60.20
71.17
79.12
85.33
90.54
95.23
99.85
104.70
109.55
113.46
115.06
113.15
107.36
98.49
88.25
78.63
71.21
66.79
65.19
65.50
66.35
66.24
63.98
59.00
51.61
42.84
33.96
25.79
18.29
10.55
1.39
-9.90
-23.06
-36.89
-49.80
-60.53
-68.80
-75.37
-81.73
-89.46
-99.56
-112.08
-125.97
-139.35
-149.92
-155.47
-154.39
-145.88
-130.07
-107.89
-80.83
-50.79
-19.86
9.89
36.59
58.81
75.78
87.49
94.69
98.59
100.41
100.97
100.48
98.62
95.07
89.85
83.52
77.00
71.15
66.42
62.68
59.34
55.73
51.36
46.20
40.66
35.45
31.34
28.83
27.95
28.15
28.39
27.43
24.15
17.87
8.57
-3.16
-16.32
-29.81
-42.63
-54.10
-63.90
-72.07
-79.04
-85.58
-92.49
-100.37
-109.17
-117.98
-125.11
-128.40
-125.90
-116.40
-99.87
-77.35
-50.64
-21.81
7.23
34.81
59.44
79.84
95.04
104.61
108.78
108.49
105.06
99.86
93.93
87.75
81.40
74.84
68.18
61.85
56.49
52.66
50.63
50.16
50.59
50.98
50.33
47.88
43.21
36.35
27.73
18.21
8.82
0.52
-6.23
-11.77
-17.18
-23.88
-32.87
-44.19
-56.80
-69.12
-79.85
-88.65
-96.23
-103.70
-111.65
-119.44
-125.24
-126.67
-121.88
-110.20
-92.28
-69.69
-44.33
-17.98
7.77
31.45
51.69
67.33
77.78
83.23
84.67
83.57
81.41
79.15
77.09
74.95
72.33
69.08
65.54
62.35
60.08
58.77
57.84
56.30
53.36
48.79
43.06
36.87
30.62
24.12
16.83
8.44
-0.79
-10.00
-18.27
-25.24
-31.33
-37.50
-44.54
-52.47
-60.56
-67.85
-74.03
-79.84
-86.78
-96.19
-108.12
-120.82
-131.28
-136.30
-133.91
-123.94
-107.90
-88.09
-66.54
-44.49
-22.45
-0.71
20.19
39.29
55.58
68.35
77.54
83.60
87.13
88.64
88.32
86.19
82.37
77.26
71.54
66.05
61.46
58.01
55.55
53.64
51.76
49.56
46.82
43.45
39.40
34.69
29.43
23.91
18.39
13.04
7.68
1.75
-5.55
-14.97
-26.82
-40.71
-55.42
-69.21
-80.39
-87.98
-92.32
-95.02
-98.40
-104.31
-113.18
-123.43
-132.08
-135.90
-132.75
-122.26
-105.70
-85.09
-62.20
-38.21
-13.79
10.22
32.50
51.36
65.39
74.17
78.60
80.49
81.80
83.66
85.89
87.29
86.44
82.63
76.34
69.08
62.51
57.53
53.73
49.71
44.04
36.28
27.45
19.54
14.36
12.47
12.78
13.22
11.94
8.21
2.58
-3.75
-9.99
-16.23
-23.27
-31.82
-41.78
-52.04
-61.12
-68.13
-73.48
-78.80
-86.11
-96.51
-109.32
-122.12
-131.64
-135.14
-131.32
-120.49
-104.01
-83.42
-59.92
-34.50
-8.35
16.82
38.99
56.52
68.83
76.59
81.25
84.17
85.92
86.21
84.44
80.42
74.66
68.30
62.43
57.65
53.94
50.95
48.41
46.34
44.89
43.98
42.96
40.79
36.54
29.99
21.76
13.06
4.95
-2.23
-9.05
-16.54
-25.50
-35.88
-46.77
-56.92
-65.41
-72.29
-78.49
-85.32
-93.62
-103.32
-113.31
-121.97
-127.77
-129.64
-126.91
-119.11
-105.78
-86.73
-62.52
-34.93
-6.86
18.42
38.36
51.98
59.98
64.10
66.12
67.10
67.31
66.63
65.11
63.20
61.50
60.27
59.17
57.36
54.12
49.38
43.95
39.09
35.88
34.51
34.21
33.72
31.94
28.49
23.74
18.37
12.76
6.65
-0.69
-9.87
-20.74
-32.37
-43.47
-53.19
-61.67
-69.88
-78.86
-88.83
-98.68
-106.27
-109.32
-106.35
-97.18
-82.75
-64.43
-43.38
-20.42
3.72
27.88
50.21
68.45
80.64
85.99
85.32
80.83
75.27
70.88
68.61
67.99
67.67
66.30
63.20
58.55
53.09
47.55
42.25
37.22
32.36
27.81
23.80
20.40
17.18
13.24
7.57
-0.37
-10.31
-21.28
-32.07
-41.85
-50.51
-58.63
-67.07
-76.61
-87.59
-99.79
-112.37
-123.82
-132.08
-134.79
-129.89
-116.26
-94.34
-66.15
-34.83
-3.76
24.18
47.12
64.14
75.07
80.30
80.69
77.62
72.81
67.97
64.23
61.82
60.16
58.27
55.55
52.04
48.49
45.81
44.41
43.93
43.32
41.44
37.57
31.81
24.88
17.63
10.49
3.32
-4.50
-13.56
-24.00
-35.40
-47.02
-58.29
-69.29
-80.72
-93.49
-107.94
-123.19
-136.96
-146.11
-147.64
-139.77
-122.59
-97.89
-68.55
-37.66
-7.84
19.01
41.71
59.67
72.82
81.55
86.67
89.11
89.64
88.69
86.50
83.48
80.42
78.46
78.61
81.07
84.89
88.11
88.56
84.75
76.58
65.45
53.59
43.08
35.04
29.27
24.60
19.49
12.71
3.73
-7.27
-19.57
-32.13
-43.99
-54.57
-63.92
-72.75
-82.02
-92.24
-102.84
-112.06
-117.51
-117.18
-110.27
-97.42
-80.21
-60.28
-38.76
-16.21
6.84
29.41
50.02
67.05
79.47
87.15
90.78
91.44
90.15
87.61
84.28
80.59
76.87
73.35
69.93
66.23
61.76
56.24
49.85
43.06
36.41
30.10
23.99
17.76
11.30
4.82
-1.33
-7.06
-12.79
-19.32
-27.53
-37.65
-49.13
-60.80
-71.48
-80.64
-88.69
-96.62
-105.26
-114.63
-123.51
-129.83
-131.36
-126.52
-114.91
-97.38
-75.67
-51.77
-27.51
-4.18
17.39
36.73
53.54
67.63
78.89
87.40
93.38
97.20
99.20
99.67
98.74
96.46
92.99
88.72
84.31
80.54
77.97
76.68
76.03
74.86
71.82
65.99
57.25
46.41
34.88
24.09
15.01
7.81
2.01
-3.29
-9.11
-16.28
-25.36
-36.49
-49.48
-63.76
-78.53
-92.84
-105.70
-116.22
-123.59
-127.06
-125.95
-119.68
-107.90
-90.79
-69.16
-44.50
-18.79
5.96
28.09
46.62
61.15
71.68
78.26
81.00
80.16
76.46
71.06
65.29
60.15
55.96
52.49
49.41
46.80
45.28
45.74
48.81
54.45
61.72
68.88
73.60
73.50
66.77
52.92
33.20
10.40
-11.95
-30.78
-44.54
-53.55
-59.56
-64.70
-70.65
-78.03
-86.50
-95.18
-103.04
-109.05
-112.13
-111.07
-104.61
-91.74
-72.19
-46.79
-17.71
11.86
38.46
59.31
73.14
80.37
82.68
82.05
79.88
76.51
71.46
64.12
54.53
43.80
33.92
26.98
24.33
25.93
30.38
35.52
39.21
40.03
37.52
32.09
24.55
15.83
6.65
-2.41
-10.95
-18.63
-25.21
-30.68
-35.37
-39.89
-45.03
-51.47
-59.53
-68.95
-78.89
-88.03
-94.81
-97.76
-95.74
-88.14
-75.01
-56.98
-35.21
-11.25
13.20
36.42
56.91
73.44
85.19
91.79
93.37
90.60
84.73
77.29
69.76
63.14
57.70
52.98
48.19
42.75
36.64
30.47
25.07
21.00
18.19
16.03
13.70
10.56
6.38
1.24
-4.66
-11.16
-18.12
-25.35
-32.52
-39.31
-45.61
-51.80
-58.64
-66.85
-76.75
-87.86
-99.02
-108.74
-115.65
-118.75
-117.42
-111.31
-100.20
-84.18
-63.78
-40.12
-14.79
10.46
33.94
54.32
70.59
82.14
88.83
91.02
89.44
84.95
78.29
69.89
60.02
49.17
38.26
28.61
21.46
17.44
16.26
16.84
17.80
17.97
16.69
13.67
8.73
1.62
-7.88
-19.47
-32.14
-44.32
-54.45
-61.67
-66.14
-68.83
-70.83
-72.57
-73.53
-72.62
-69.12
-63.40
-57.03
-51.93
-49.12
-47.77
-45.41
-39.16
-27.23
-9.92
10.63
31.74
51.68
70.27
88.38
106.69
124.63
140.42
152.09
158.85
161.65
162.70
164.17
166.94
170.06
171.35
168.51
160.35
147.32
131.33
114.98
100.56
89.19
80.67
73.76
66.96
59.21
50.36
40.85
31.07
20.86
9.27
-5.06
-23.34
-46.23
-74.02
-106.91
-144.83
-186.63
-229.21
-267.52
-295.86
-310.13
-309.73
-297.45
-277.74
-254.23
-228.11
-198.45
-164.19
-126.29
-88.32
-55.38
-31.40
-17.39
-11.39
-10.20
-11.32
-14.02
-18.90
-26.37
-36.37
-47.44
-57.75
-65.98
-71.85
-75.91
-78.95
-81.76
-84.60
-89.03
-96.28
-107.09
-120.74
-134.74
-145.64
-150.59
-148.89
-141.32
-132.57
-126.52
-125.90
-132.04
-145.39
-166.15
-194.12
-227.83
-261.94
-292.57
-313.79
-321.05
-312.66
-289.77
-255.32
-212.28
-162.68
-105.14
-42.07
26.11
99.04
176.62
259.39
348.57
445.84
537.81
640.77
750.84
863.05
968.70
1056.61
1115.79
1138.74
1123.82
1075.42
1004.23
917.02
820.43
717.92
610.81
500.13
387.98
277.56
172.15
75.90
-11.89
-91.06
-161.35
-221.76
-270.86
-307.33
-330.93
-342.90
-344.54
-339.68
-330.56
-318.25
-302.69
-283.39
-260.25
-234.28
-207.59
-182.23
-160.91
-144.78
-133.87
-127.42
-124.74
-125.77
-131.28
-142.81
-162.12
-191.52
-232.55
-284.98
-345.38
-406.64
-459.06
-493.21
-503.54
-490.76
-461.77
-426.83
-395.35
-372.53
-358.22
-348.51
-338.59
-325.09
-306.92
-284.58
-258.78
-229.82
-197.95
-164.22
-131.03
-101.72
-79.62
-66.65
-62.51
-64.73
-69.57
-73.28
-73.13
-67.83
-57.58
-43.59
-27.60
-11.43
3.38
15.67
24.70
30.22
32.63
33.24
34.42
39.24
50.45
69.37
95.12
124.72
154.24
180.29
201.12
216.66
227.70
234.78
237.74
236.01
229.38
218.58
205.09
190.36
175.06
158.74
140.28
118.69
93.77
66.31
37.75
9.59
-17.07
-41.60
-63.71
-83.18
-99.62
-112.39
-120.66
-123.52
-120.29
-110.90
-96.08
-77.45
-57.35
-38.26
-22.28
-10.66
-3.65
-0.59
-0.16
-0.72
-0.82
0.44
3.24
7.15
11.53
15.85
20.15
25.01
31.48
40.83
54.04
71.22
91.18
111.54
129.79
144.54
156.52
168.31
182.76
200.99
221.18
239.02
249.65
249.81
239.16
220.12
196.51
171.98
148.91
128.26
109.78
92.57
75.64
58.49
41.56
26.17
13.94
5.65
0.60
-3.36
-8.76
-17.11
-28.10
-39.85
-49.94
-56.74
-60.08
-61.02
-61.17
-61.65
-62.52
-62.95
-61.83
-58.51
-53.24
-47.27
-42.22
-39.44
-39.35
-41.40
-44.56
-47.82
-50.81
-53.63
-56.81
-60.90
-66.19
-72.74
-80.40
-89.01
-98.33
-107.87
-116.47
-122.43
-123.92
-119.50
-108.66
-92.04
-71.39
-49.10
-27.63
-8.57
7.38
20.25
30.35
37.92
42.77
44.36
41.92
34.82
24.31
12.50
1.65
-6.78
-12.66
-17.07
-21.61
-27.91
-37.14
-47.30
-55.72
-60.45
-61.29
-59.73
-57.69
-56.26
-55.69
-56.11
-54.37
-47.97
-36.06
-19.17
1.69
26.61
57.13
94.83
139.86
195.69
264.85
348.13
444.23
549.80
660.98
775.17
891.04
975.05
997.61
941.17
811.00
632.39
436.15
247.24
82.34
-49.99
-149.01
-215.42
-252.29
-269.12
-274.26
-274.44
-275.45
-281.64
-296.72
-324.20
-358.76
-393.58
-422.39
-440.95
-447.68
-444.46
-434.44
-421.28
-408.70
-397.16
-386.35
-375.64
-368.88
-363.70
-357.97
-349.26
-335.08
-313.73
-283.77
-245.99
-203.25
-159.70
-119.11
-85.12
-59.24
-40.60
-26.57
-13.44
1.41
18.82
37.65
55.92
71.25
82.86
91.95
100.46
109.37
117.54
122.38
121.45
114.37
102.49
88.45
74.72
62.65
52.53
44.19
37.82
33.87
32.62
33.24
34.05
33.27
29.73
23.14
13.94
2.93
-8.91
-20.32
-29.92
-36.63
-40.02
-40.95
-41.36
-43.50
-48.72
-56.87
-66.06
-73.67
-77.66
-77.31
-73.55
-68.30
-63.27
-58.82
-53.61
-45.14
-31.26
-11.74
11.76
35.93
57.04
72.04
79.25
78.07
69.36
54.85
36.98
19.88
7.53
2.14
3.02
7.00
9.49
8.03
2.20
-6.91
-14.95
-17.45
-11.42
3.81
27.01
54.59
84.77
115.67
145.09
175.08
208.85
248.42
292.53
336.44
371.56
393.72
401.42
395.74
385.10
379.82
387.78
411.93
450.62
497.00
548.27
601.42
621.68
581.90
473.59
314.32
137.79
-6.32
-115.27
-196.88
-260.68
-314.97
-363.81
-405.34
-437.67
-461.42
-479.34
-496.81
-512.20
-521.25
-519.78
-501.65
-463.42
-407.25
-340.90
-274.58
-218.93
-176.24
-143.94
-117.62
-91.18
-60.57
-25.85
9.29
39.97
61.55
74.62
81.85
85.41
86.82
86.18
82.65
75.80
66.44
55.71
45.64
37.02
29.14
21.55
15.16
12.15
14.77
23.67
36.85
50.94
62.46
69.27
71.29
69.93
66.84
62.96
58.35
52.69
45.89
38.41
31.25
25.62
22.62
22.89
26.27
31.54
36.60
39.15
37.52
31.43
22.03
11.34
1.16
-7.68
-15.52
-23.39
-32.18
-42.02
-52.36
-62.30
-71.20
-78.88
-85.45
-91.03
-95.53
-98.57
-99.75
-98.79
-95.61
-90.34
-83.27
-74.81
-65.46
-55.55
-45.11
-33.73
-20.78
-5.67
11.73
31.00
51.21
71.04
88.92
103.12
112.11
115.21
113.37
109.42
107.16
109.59
116.96
126.20
132.08
129.86
117.92
98.78
78.04
61.82
54.14
55.42
62.65
70.85
75.03
71.82
60.35
42.17
20.62
-0.28
-17.08
-28.00
-33.31
-35.08
-36.19
-39.38
-46.32
-57.18
-70.60
-84.21
-95.39
-102.26
-104.54
-103.50
-101.17
-99.27
-98.35
-97.83
-96.78
-94.68
-91.67
-88.16
-84.19
-79.15
-72.02
-62.11
-49.56
-35.27
-20.10
-4.27
12.63
30.75
49.04
64.95
75.30
77.77
72.33
61.70
50.49
43.44
43.51
50.70
62.18
73.70
81.41
83.31
79.61
72.05
62.59
52.48
41.99
30.92
19.37
8.05
-2.03
-10.34
-17.54
-25.42
-36.09
-50.92
-69.78
-91.01
-112.10
-130.53
-144.37
-152.45
-154.06
-148.86
-137.00
-119.51
-98.66
-77.84
-60.57
-49.18
-43.71
-41.70
-39.46
-33.95
-24.51
-13.21
-3.57
1.55
1.59
-1.49
-4.54
-5.11
-2.60
1.99
7.30
12.75
18.88
26.40
35.13
43.72
50.28
53.44
53.01
49.58
43.66
35.07
23.12
7.37
-11.56
-32.11
-52.47
-71.51
-89.15
-105.97
-122.46
-138.35
-152.57
-163.57
-169.58
-168.78
-159.44
-140.43
-112.12
-77.19
-40.52
-7.96
15.62
28.04
30.25
25.57
17.98
10.65
5.22
1.91
0.09
-1.24
-3.12
-6.49
-11.97
-19.55
-28.36
-36.75
-42.82
-45.06
-42.94
-37.05
-28.99
-20.84
-14.43
-10.84
-10.14
-11.70
-14.85
-19.39
-25.88
-35.17
-47.79
-63.39
-80.69
-97.87
-113.08
-124.60
-130.91
-130.57
-122.48
-106.36
-83.21
-55.34
-25.79
2.62
28.01
49.60
67.35
81.40
91.80
98.64
102.30
103.60
103.47
102.55
100.86
97.93
93.37
87.35
80.80
74.91
70.51
67.52
65.03
61.75
56.77
49.90
41.67
32.83
23.99
15.30
6.57
-2.55
-12.38
-23.21
-35.34
-48.98
-63.97
-79.42
-93.56
-103.97
-108.27
-104.90
-93.64
-75.60
-52.87
-27.79
-2.45
21.57
43.21
61.77
76.80
88.09
95.72
99.99
101.45
100.72
98.44
95.15
91.30
87.19
83.06
79.08
75.36
71.92
68.71
65.53
62.10
58.12
53.32
47.50
40.52
32.37
23.20
13.39
3.49
-5.99
-14.85
-23.41
-32.47
-42.99
-55.58
-70.05
-85.17
-98.87
-108.66
-112.27
-108.24
-96.27
-77.21
-52.91
-25.73
1.95
28.07
51.23
70.67
86.10
97.55
105.14
109.10
109.79
107.74
103.70
98.51
92.95
87.54
82.50
77.77
73.21
68.77
64.57
60.79
57.56
54.81
52.15
48.98
44.69
38.83
31.28
22.30
12.38
2.10
-8.02
-17.68
-26.79
-35.52
-44.31
-53.80
-64.64
-77.21
-91.18
-105.21
-117.05
-123.97
-123.55
-114.51
-97.12
-73.17
-45.36
-16.60
10.67
34.83
55.09
71.27
83.60
92.44
98.26
101.44
102.31
101.18
98.33
94.19
89.23
83.96
78.77
73.97
69.68
65.98
62.89
60.35
58.18
56.01
53.37
49.75
44.83
38.55
31.06
22.60
13.43
3.77
-6.18
-16.17
-25.91
-35.10
-43.60
-51.52
-59.26
-67.45
-76.73
-87.46
-99.40
-111.48
-121.85
-128.18
-128.23
-120.54
-104.92
-82.51
-55.59
-26.87
1.06
26.21
47.38
64.05
76.26
84.32
88.75
90.14
89.10
86.26
82.25
77.68
73.10
68.92
65.39
62.56
60.33
58.52
56.88
55.23
53.34
51.02
48.11
44.47
40.01
34.67
28.46
21.41
13.60
5.25
-3.39
-11.94
-20.09
-27.69
-34.82
-41.87
-49.40
-57.99
-67.95
-79.10
-90.62
-101.00
-108.30
-110.50
-106.02
-94.17
-75.45
-51.49
-24.68
2.35
27.34
48.78
66.04
79.26
89.03
96.09
101.08
104.44
106.53
107.72
108.50
109.33
110.30
110.93
110.14
106.73
100.06
90.39
78.89
67.03
55.77
45.18
34.60
23.26
10.98
-1.64
-13.47
-23.57
-31.70
-38.38
-44.48
-50.66
-57.03
-63.27
-68.94
-73.91
-78.54
-83.62
-89.96
-97.95
-107.32
-116.95
-125.03
-129.44
-128.22
-120.18
-105.37
-85.14
-61.83
-38.04
-15.96
3.17
18.93
31.40
40.62
46.42
48.67
47.61
44.20
39.91
36.18
33.92
33.11
33.15
33.34
33.39
33.55
34.40
36.37
39.29
42.40
44.62
44.98
43.01
38.73
32.45
24.52
15.13
4.44
-7.26
-19.40
-31.15
-41.69
-50.57
-57.80
-63.83
-69.33
-74.96
-81.22
-88.45
-96.84
-106.34
-116.43
-125.99
-133.26
-136.17
-132.90
-122.56
-105.61
-83.83
-59.86
-36.35
-15.21
2.79
17.77
30.20
40.28
47.74
52.10
53.28
51.95
49.44
47.19
46.01
45.75
45.56
44.53
42.40
39.71
37.47
36.37
36.31
36.41
35.38
32.25
26.76
19.38
10.95
2.31
-5.99
-13.66
-20.67
-27.15
-33.52
-40.48
-48.94
-59.61
-72.48
-86.45
-99.36
-108.42
-111.09
-105.82
-92.56
-72.77
-48.93
-23.88
-0.11
20.70
37.86
51.43
61.92
69.78
75.14
77.85
77.82
75.35
71.32
66.98
63.39
60.84
58.74
55.96
51.60
45.62
38.97
33.06
29.01
27.00
26.10
24.89
22.09
17.14
10.31
2.31
-6.11
-14.53
-22.84
-31.12
-39.46
-47.95
-56.72
-66.02
-76.03
-86.55
-96.73
-104.95
-109.17
-107.50
-98.91
-83.70
-63.54
-40.89
-18.34
2.16
19.58
33.73
44.85
53.13
58.62
61.24
61.13
58.81
55.14
50.95
46.79
42.71
38.45
33.86
29.11
24.77
21.47
19.52
18.65
18.05
16.77
14.10
9.83
4.18
-2.38
-9.44
-16.68
-23.95
-31.08
-37.93
-44.39
-50.53
-56.69
-63.48
-71.71
-82.03
-94.57
-108.58
-122.24
-132.95
-137.90
-134.97
-123.37
-103.96
-78.91
-51.00
-22.94
3.25
26.35
45.80
61.45
73.34
81.61
86.53
88.50
88.04
85.79
82.41
78.47
74.37
70.26
66.13
61.92
57.68
53.63
50.14
47.44
45.43
43.67
41.42
37.99
33.00
26.52
18.95
10.78
2.34
-6.21
-14.87
-23.55
-32.09
-40.41
-48.69
-57.55
-67.78
-79.90
-93.56
-107.23
-118.46
-124.48
-123.14
-113.60
-96.52
-73.78
-47.83
-21.06
4.58
27.67
47.33
63.02
74.58
82.15
86.21
87.47
86.65
84.38
81.08
77.00
72.37
67.44
62.56
58.10
54.34
51.36
49.06
47.25
45.66
43.98
41.88
39.00
34.98
29.55
22.63
14.40
5.27
-4.20
-13.50
-22.30
-30.54
-38.44
-46.42
-55.04
-64.83
-76.00
-88.25
-100.50
-110.90
-117.14
-117.03
-109.22
-93.67
-71.82
-46.20
-19.66
5.31
27.09
44.94
58.85
69.02
75.74
79.19
79.65
77.54
73.58
68.60
63.42
58.59
54.34
50.60
47.23
44.12
41.26
38.70
36.50
34.57
32.71
30.60
27.87
24.08
18.91
12.17
4.01
-5.08
-14.34
-23.08
-30.89
-37.88
-44.61
-51.86
-60.37
-70.57
-82.42
-95.23
-107.64
-117.65
-122.95
-121.46
-112.00
-94.75
-71.33
-44.31
-16.56
9.53
32.43
51.45
66.46
77.56
84.93
88.79
89.50
87.60
83.82
78.90
73.57
68.33
63.50
59.13
55.12
51.33
47.64
44.11
40.87
38.07
35.68
33.39
30.70
26.95
21.68
14.73
6.36
-2.86
-12.25
-21.29
-29.70
-37.58
-45.24
-53.17
-61.89
-71.86
-83.30
-95.95
-108.78
-119.97
-127.02
-127.47
-119.58
-103.14
-79.59
-51.66
-22.57
4.95
29.18
49.56
66.23
79.66
90.13
97.72
102.41
104.26
103.64
101.09
97.34
93.10
89.03
85.71
83.63
83.09
84.12
86.38
89.15
91.49
92.38
90.97
86.74
79.46
69.26
56.54
41.91
26.12
10.05
-5.38
-19.43
-31.72
-42.48
-52.52
-62.99
-75.06
-89.31
-105.35
-121.59
-135.34
-143.28
-142.17
-129.89
-106.10
-72.62
-33.04
8.17
46.74
79.40
104.20
120.34
127.89
127.72
121.45
111.35
99.85
88.78
78.75
69.04
58.12
44.68
28.46
10.48
-7.28
-22.80
-34.80
-43.12
-48.76
-53.28
-58.30
-64.89
-73.25
-82.73
-92.13
-100.21
-106.04
-109.32
-110.34
-109.90
-109.09
-109.12
-111.17
-116.00
-123.71
-133.34
-142.87
-149.51
-150.31
-143.01
-126.75
-102.45
-72.64
-40.78
-10.34
16.11
37.32
53.30
64.78
72.61
77.34
79.18
78.33
75.19
70.45
64.91
59.20
53.58
48.06
42.69
37.70
33.49
30.30
27.91
25.57
22.24
17.09
9.93
1.29
-7.85
-16.55
-24.30
-31.21
-37.93
-45.37
-54.39
-65.51
-78.65
-92.94
-106.60
-117.15
-121.95
-118.93
-107.27
-87.76
-62.65
-34.95
-7.62
17.11
38.11
55.13
68.43
78.37
85.15
88.86
89.59
87.67
83.66
78.26
72.11
65.68
59.24
53.08
47.51
42.90
39.44
36.91
34.57
31.35
26.30
18.95
9.60
-0.87
-11.39
-21.22
-30.20
-38.83
-48.01
-58.65
-71.33
-85.92
-101.43
-115.92
-126.81
-131.42
-127.77
-115.16
-94.51
-68.12
-38.99
-10.11
16.24
38.72
56.86
70.75
80.74
87.24
90.60
91.16
89.33
85.62
80.63
74.90
68.87
62.79
56.77
50.98
45.70
41.29
37.96
35.54
33.34
30.30
25.38
17.98
8.24
-2.94
-14.33
-24.82
-33.98
-42.15
-50.39
-60.02
-71.99
-86.38
-102.01
-116.57
-127.05
-130.60
-125.30
-110.78
-88.27
-60.25
-29.73
0.45
28.12
51.95
71.40
86.41
97.25
104.27
107.87
108.44
106.44
102.43
97.02
90.92
84.74
78.90
73.54
68.57
63.83
59.28
54.99
51.12
47.66
44.30
40.37
35.06
27.77
18.39
7.48
-3.98
-14.96
-24.88
-33.84
-42.58
-52.19
-63.61
-77.20
-92.42
-107.78
-121.00
-129.45
-130.75
-123.34
-107.07
-83.22
-54.28
-23.37
6.60
33.39
55.79
73.49
86.79
96.22
102.24
105.17
105.27
102.89
98.61
93.21
87.50
82.06
77.14
72.70
68.59
64.74
61.17
57.91
54.86
51.70
47.98
43.31
37.57
30.87
23.43
15.37
6.67
-2.74
-12.82
-23.28
-33.62
-43.37
-52.33
-60.73
-69.13
-78.28
-88.81
-100.98
-114.35
-127.71
-139.06
-145.88
-145.72
-136.86
-118.92
-93.20
-62.34
-29.68
1.61
29.24
52.11
70.06
83.54
93.10
99.21
102.27
102.68
100.95
97.60
93.13
87.93
82.27
76.46
70.95
66.25
62.77
60.59
59.29
58.06
55.99
52.35
46.93
40.03
32.27
24.31
16.60
9.26
2.12
-5.15
-12.89
-21.33
-30.51
-40.20
-49.92
-59.04
-67.09
-73.93
-80.04
-86.43
-94.30
-104.42
-116.50
-128.89
-138.82
-143.14
-139.38
-126.52
-105.40
-78.36
-48.50
-18.78
8.60
32.39
52.10
67.71
79.33
87.14
91.41
92.52
91.08
87.78
83.36
78.47
73.60
69.02
64.88
61.23
58.04
55.30
52.87
50.53
47.96
44.80
40.80
35.91
30.30
24.23
17.94
11.61
5.24
-1.22
-7.84
-14.76
-22.03
-29.67
-37.53
-45.35
-52.87
-60.04
-67.24
-75.16
-84.44
-95.07
-105.95
-114.86
-118.95
-115.74
-103.90
-83.79
-57.28
-27.15
3.63
32.54
57.82
78.49
94.24
105.25
112.03
115.19
115.36
113.01
108.49
102.10
94.23
85.46
76.59
68.46
61.71
56.55
52.66
49.29
45.58
40.84
34.87
27.92
20.55
13.22
6.13
-0.90
-8.27
-16.30
-25.08
-34.42
-43.95
-53.25
-62.01
-70.07
-77.42
-84.32
-91.22
-98.80
-107.65
-117.85
-128.61
-138.07
-143.65
-142.73
-133.56
-115.93
-91.26
-62.25
-32.03
-3.40
21.70
42.30
58.21
69.68
77.22
81.44
83.03
82.74
81.20
78.83
75.79
72.01
67.41
62.18
56.85
52.18
48.89
47.25
46.94
47.13
46.79
45.09
41.69
36.79
30.93
24.71
18.53
12.43
6.16
-0.67
-8.34
-16.89
-26.03
-35.30
-44.20
-52.44
-60.01
-67.14
-74.28
-82.00
-90.79
-100.90
-112.03
-122.98
-131.64
-135.35
-131.70
-119.40
-98.95
-72.55
-43.46
-14.94
10.65
32.20
49.60
63.26
73.56
80.72
84.88
86.36
85.70
83.54
80.38
76.46
71.83
66.53
60.86
55.38
50.80
47.60
45.85
45.11
44.59
43.50
41.28
37.77
33.10
27.66
21.84
15.93
10.00
3.90
-2.64
-9.89
-17.95
-26.71
-35.85
-44.99
-53.75
-61.93
-69.49
-76.65
-83.88
-91.83
-101.09
-111.76
-123.00
-132.94
-138.92
-138.29
-129.39
-112.15
-88.24
-60.48
-31.92
-5.06
18.63
38.55
54.63
66.94
75.49
80.39
81.97
80.91
78.13
74.59
70.96
67.52
64.20
60.82
57.31
53.86
50.84
48.57
47.16
46.33
45.54
44.16
41.69
37.91
32.89
26.95
20.54
14.01
7.59
1.28
-5.15
-12.04
-19.65
-28.05
-37.01
-46.02
-54.55
-62.25
-69.21
-76.00
-83.51
-92.60
-103.58
-115.84
-127.71
-136.75
-140.39
-136.63
-124.69
-105.24
-80.19
-52.15
-23.80
2.62
25.55
44.21
58.46
68.61
75.21
78.84
80.04
79.22
76.72
72.93
68.38
63.61
59.13
55.29
52.19
49.75
47.92
46.61
45.73
44.97
43.84
41.71
38.10
32.99
26.78
20.17
13.79
7.84
2.06
-4.13
-11.25
-19.46
-28.47
-37.64
-46.37
-54.32
-61.60
-68.79
-76.70
-86.02
-97.01
-109.11
-120.90
-130.21
-134.65
-132.24
-121.99
-104.22
-80.46
-53.08
-24.71
2.25
26.03
45.60
60.59
71.16
77.75
81.00
81.54
79.98
76.87
72.66
67.79
62.64
57.63
53.12
49.45
46.85
45.34
44.67
44.34
43.66
42.00
38.99
34.59
29.08
22.93
16.52
10.02
3.34
-3.77
-11.53
-20.01
-29.09
-38.47
-47.83
-56.91
-65.68
-74.33
-83.26
-92.93
-103.58
-114.95
-126.04
-135.05
-139.75
-138.01
-128.52
-111.24
-87.57
-59.91
-31.02
-3.35
21.42
42.46
59.59
72.83
82.24
87.90
90.03
89.22
86.37
82.50
78.45
74.65
71.16
67.86
64.74
61.93
59.70
58.14
57.02
55.78
53.78
50.62
46.36
41.38
36.16
30.94
25.53
19.42
12.05
3.19
-6.96
-17.78
-28.55
-38.75
-48.20
-57.09
-65.86
-74.97
-84.88
-95.86
-107.90
-120.41
-132.03
-140.61
-143.61
-138.82
-125.14
-103.14
-75.01
-43.91
-13.14
14.77
38.37
57.30
71.83
82.43
89.51
93.37
94.37
93.07
90.20
86.57
82.82
79.31
76.08
72.98
69.95
67.06
64.53
62.50
60.83
59.08
56.68
53.12
48.23
42.21
35.49
28.44
21.22
13.70
5.64
-3.14
-12.62
-22.56
-32.51
-42.05
-50.89
-59.05
-66.93
-75.25
-84.88
-96.37
-109.58
-123.33
-135.43
-143.13
-143.81
-135.77
-118.86
-94.49
-65.29
-34.36
-4.53
22.16
44.60
62.44
75.79
84.95
90.31
92.42
91.98
89.83
86.75
83.18
79.24
74.79
69.78
64.44
59.41
55.42
52.88
51.69
51.18
50.38
48.44
44.93
39.84
33.48
26.27
18.59
10.68
2.70
-5.32
-13.53
-22.17
-31.48
-41.47
-51.85
-62.05
-71.45
-79.74
-87.15
-94.41
-102.49
-112.11
-123.25
-134.79
-144.61
-149.97
-148.28
-137.74
-117.96
-90.07
-56.41
-20.03
15.99
49.08
77.47
100.28
117.40
129.28
136.65
140.25
140.71
138.53
134.15
128.09
121.00
113.57
106.49
100.20
94.92
90.67
87.30
84.55
82.05
79.32
75.78
70.94
64.61
56.92
48.33
39.30
30.03
20.32
9.68
-2.24
-15.40
-29.19
-42.64
-54.86
-65.41
-74.46
-82.73
-91.20
-100.79
-112.03
-124.92
-138.62
-151.44
-160.97
-164.53
-159.97
-146.35
-124.45
-96.61
-66.08
-36.15
-9.26
13.30
31.35
45.33
55.81
63.16
67.54
69.04
67.95
64.87
60.58
55.94
51.64
48.09
45.51
43.90
43.14
43.01
43.14
43.05
42.26
40.43
37.48
33.57
28.91
23.69
17.86
11.24
3.67
-4.84
-14.06
-23.58
-32.94
-41.86
-50.29
-58.45
-66.81
-75.94
-86.30
-97.88
-109.85
-120.46
-127.25
-127.75
-120.21
-104.31
-81.32
-53.71
-24.44
3.77
28.94
50.03
66.66
78.94
87.22
91.89
93.46
92.40
89.27
84.66
79.21
73.60
68.40
64.01
60.56
57.92
55.77
53.78
51.69
49.38
46.76
43.74
40.12
35.62
29.98
23.04
14.82
5.54
-4.43
-14.70
-24.90
-34.78
-44.21
-53.21
-61.99
-71.05
-81.02
-92.45
-105.38
-118.90
-131.03
-138.99
-140.01
-132.20
-115.27
-90.75
-61.47
-30.74
-1.46
24.42
45.99
63.12
76.13
85.43
91.39
94.33
94.61
92.63
88.87
83.97
78.54
73.18
68.27
63.95
60.15
56.65
53.30
50.08
47.05
44.23
41.46
38.33
34.28
28.81
21.66
12.94
3.13
-7.13
-17.22
-26.75
-35.62
-44.04
-52.37
-61.10
-70.74
-81.79
-94.45
-108.32
-122.06
-133.40
-139.49
-137.75
-126.74
-106.86
-80.26
-50.22
-20.09
7.57
31.46
51.29
67.34
79.88
89.00
94.64
96.83
95.96
92.71
88.07
82.99
78.20
74.03
70.43
67.10
63.66
59.95
56.00
52.07
48.45
45.20
42.08
38.56
34.01
27.93
20.17
10.93
0.71
-9.87
-20.30
-30.20
-39.50
-48.35
-57.13
-66.37
-76.63
-88.27
-101.12
-114.23
-125.72
-133.09
-133.82
-126.14
-109.71
-85.85
-57.15
-26.85
2.10
27.60
48.68
65.33
78.06
87.45
93.85
97.36
98.00
95.95
91.74
86.23
80.33
74.75
69.78
65.33
61.14
57.03
53.00
49.25
45.92
42.95
39.97
36.49
31.96
26.06
18.69
10.09
0.66
-9.09
-18.65
-27.65
-35.91
-43.57
-51.12
-59.34
-69.08
-80.87
-94.43
-108.42
-120.48
-127.78
-127.81
-119.22
-102.23
-78.59
-51.00
-22.40
4.73
28.71
48.73
64.59
76.47
84.64
89.40
91.08
90.02
86.67
81.66
75.68
69.42
63.42
57.99
53.15
48.84
45.01
41.71
39.02
36.85
34.75
31.94
27.50
20.80
11.88
1.41
-9.46
-19.64
-28.51
-36.21
-43.49
-51.39
-60.85
-72.43
-86.07
-101.03
-115.75
-127.96
-135.04
-134.60
-125.30
-107.36
-82.66
-54.24
-25.38
1.30
24.31
43.29
58.56
70.52
79.30
84.77
86.79
85.60
81.89
76.74
71.28
66.31
62.10
58.40
54.80
50.95
46.88
42.88
39.32
36.26
33.35
29.85
25.02
18.34
9.86
0.08
-10.21
-20.24
-29.48
-37.82
-45.50
-53.03
-61.12
-70.47
-81.56
-94.34
-107.91
-120.42
-129.29
-131.87
-126.24
-111.91
-90.03
-63.07
-34.07
-5.81
19.73
41.53
59.32
73.23
83.46
90.24
93.76
94.35
92.49
88.84
84.14
79.04
73.99
69.13
64.38
59.60
54.78
50.11
45.93
42.50
39.78
37.33
34.37
30.11
23.97
15.88
6.25
-4.22
-14.75
-24.78
-34.06
-42.66
-50.90
-59.25
-68.31
-78.65
-90.57
-103.74
-116.87
-127.70
-133.42
-131.48
-120.53
-100.95
-74.76
-45.00
-14.80
13.37
38.07
58.76
75.47
88.47
98.06
104.60
108.45
109.95
109.47
107.34
103.95
99.84
95.68
92.16
89.82
88.90
89.27
90.50
92.09
93.48
94.21
93.81
91.84
87.91
81.80
73.51
63.22
51.24
37.79
23.00
6.96
-10.13
-27.92
-45.94
-63.85
-81.66
-99.79
-118.80
-138.83
-159.01
-177.28
-190.66
-196.19
-191.91
-177.64
-155.02
-126.98
-96.71
-66.92
-39.48
-15.46
4.50
20.04
31.06
37.78
40.79
40.91
39.05
36.10
32.99
30.67
29.91
30.94
32.97
34.28
32.85
27.42
18.21
6.86
-4.50
-14.35
-22.38
-29.22
-35.52
-41.21
-45.31
-46.71
-45.09
-41.51
-38.21
-37.69
-41.86
-51.44
-65.88
-83.68
-102.57
-119.69
-131.80
-135.89
-129.96
-113.82
-89.32
-59.79
-28.86
0.80
28.23
54.06
79.62
105.71
131.52
154.45
170.83
177.43
173.02
159.14
139.50
118.40
98.85
81.63
65.82
50.26
35.00
21.70
12.68
9.14
9.94
11.81
10.80
4.06
-8.96
-26.65
-46.26
-65.11
-81.46
-94.88
-105.95
-115.96
-126.35
-138.10
-151.23
-164.55
-175.80
-182.32
-181.81
-172.88
-155.43
-130.52
-100.21
-67.20
-34.30
-3.95
22.13
43.21
59.27
70.74
78.19
82.28
83.80
83.72
83.05
82.51
82.19
81.54
79.71
76.14
70.99
65.20
59.99
56.25
53.98
52.27
49.75
45.17
37.94
28.26
16.97
5.15
-6.25
-16.61
-25.85
-34.37
-43.08
-53.12
-65.49
-80.57
-97.68
-114.84
-129.23
-137.84
-138.36
-129.84
-112.89
-89.38
-61.90
-33.22
-5.76
18.56
38.53
53.63
64.05
70.46
73.75
74.76
74.13
72.32
69.73
66.74
63.62
60.47
57.10
53.30
49.04
44.67
40.87
38.28
37.11
36.90
36.63
35.12
31.49
25.50
17.57
8.57
-0.61
-9.46
-18.01
-26.86
-36.94
-49.10
-63.72
-80.36
-97.68
-113.52
-125.36
-130.84
-128.35
-117.44
-98.95
-74.71
-47.17
-18.75
8.46
33.08
54.23
71.50
84.70
93.76
98.78
100.13
98.41
94.41
88.92
82.58
75.84
69.00
62.42
56.52
51.76
48.41
46.33
44.88
43.03
39.65
33.91
25.55
15.01
3.24
-8.56
-19.32
-28.47
-36.10
-43.01
-50.47
-59.86
-72.14
-87.33
-104.19
-120.27
-132.44
-137.64
-133.76
-120.25
-98.26
-70.23
-39.25
-8.28
20.39
45.27
65.62
81.20
92.04
98.38
100.64
99.47
95.65
90.01
83.38
76.35
69.39
62.90
57.31
53.06
50.38
49.06
48.51
47.89
46.38
43.52
39.32
34.15
28.41
22.28
15.82
9.09
2.30
-4.58
-12.00
-20.61
-30.78
-41.89
-51.93
-57.72
-55.84
-43.84
-22.08
6.53
38.22
70.17
101.45
132.59
164.15
195.53
224.94
248.89
264.19
269.70
266.84
258.31
246.36
231.87
214.78
195.72
174.68
151.50
125.53
95.14
57.41
8.77
-53.85
-131.05
-215.13
-294.04
-356.94
-399.32
-423.17
-433.11
-432.62
-423.39
-413.81
-403.98
-395.15
-390.71
-394.43
-408.15
-430.19
-454.13
-471.85
-469.71
-440.44
-385.94
-315.34
-240.85
-173.09
-117.79
-73.37
-34.59
4.36
46.96
92.53
137.98
180.05
216.68
247.52
276.01
306.50
343.27
388.93
443.82
507.10
577.76
654.71
719.30
752.89
739.91
674.90
565.01
426.77
280.66
146.19
37.60
-38.61
-82.53
-101.54
-106.53
-107.81
-111.58
-118.67
-125.08
-128.78
-129.02
-124.76
-115.77
-101.97
-83.56
-61.30
-36.85
-13.24
5.43
15.68
16.98
11.24
2.33
-5.48
-10.76
-12.96
-13.38
-14.64
-19.06
-27.23
-38.09
-49.45
-58.94
-65.04
-67.25
-66.28
-63.63
-60.79
-58.89
-58.72
-60.70
-64.86
-70.85
-77.86
-85.11
-91.91
-97.65
-101.92
-104.56
-105.76
-106.22
-107.15
-109.85
-115.34
-123.57
-132.93
-140.41
-142.45
-136.15
-120.26
-95.64
-64.85
-31.31
1.69
31.71
57.35
77.99
93.45
103.76
109.09
109.89
106.96
101.35
94.16
86.26
78.22
70.38
62.98
56.31
50.75
46.63
44.01
42.59
41.60
40.02
36.79
31.13
22.79
12.21
0.51
-10.93
-20.90
-28.91
-35.50
-41.97
-49.87
-60.17
-72.78
-86.38
-98.79
-107.56
-110.55
-106.29
-94.25
-74.90
-49.79
-21.36
7.42
33.68
55.39
71.62
82.57
89.05
91.94
91.86
89.16
84.20
77.56
70.07
62.48
55.30
48.65
42.46
36.78
31.83
27.94
25.14
22.97
20.51
16.79
11.22
3.86
-4.67
-13.56
-22.20
-30.42
-38.36
-46.29
-54.44
-62.96
-72.04
-81.84
-92.20
-102.29
-110.33
-113.83
-110.37
-98.49
-78.38
-51.87
-21.79
8.95
38.04
63.96
85.73
102.66
114.22
120.31
121.48
118.95
114.20
108.44
102.18
95.31
87.45
78.40
68.32
57.70
47.01
36.56
26.49
16.87
7.75
-0.92
-9.34
-17.97
-27.31
-37.58
-48.57
-59.65
-69.98
-78.99
-86.55
-93.08
-99.35
-106.23
-114.48
-124.47
-135.83
-147.27
-156.60
-161.14
-158.50
-147.46
-128.40
-103.27
-74.92
-46.19
-19.21
4.83
25.54
42.85
56.70
66.96
73.56
76.70
76.92
75.07
72.04
68.60
65.24
62.20
59.57
57.41
55.86
55.05
55.00
55.47
55.93
55.62
53.81
50.07
44.42
37.32
29.46
21.54
13.97
6.79
-0.26
-7.60
-15.67
-24.80
-35.26
-47.23
-60.74
-75.42
-90.25
-103.42
-112.53
-115.13
-109.49
-95.27
-73.74
-47.46
-19.49
7.36
31.16
51.00
66.69
78.39
86.30
90.54
91.24
88.75
83.66
76.85
69.28
61.83
55.13
49.48
44.84
40.95
37.55
34.46
31.68
29.22
27.03
24.88
22.37
19.03
14.42
8.35
0.87
-7.75
-17.03
-26.46
-35.61
-44.23
-52.37
-60.36
-68.74
-78.10
-88.80
-100.71
-113.04
-124.24
-132.19
-134.67
-129.94
-117.29
-97.40
-72.23
-44.46
-16.83
8.49
30.22
47.87
61.42
71.04
76.87
79.14
78.23
74.83
69.86
64.27
58.84
53.97
49.67
45.65
41.62
37.45
33.28
29.41
26.09
23.25
20.46
17.00
12.10
5.32
-3.30
-13.20
-23.50
-33.34
-42.14
-49.77
-56.53
-63.04
-70.07
-78.37
-88.38
-99.93
-111.97
-122.57
-129.19
-129.34
-121.34
-104.94
-81.37
-53.00
-22.73
6.78
33.49
56.07
73.82
86.53
94.27
97.44
96.64
92.66
86.42
78.88
70.93
63.34
56.56
50.73
45.70
41.20
37.02
33.08
29.46
26.12
22.92
19.52
15.55
10.67
4.69
-2.47
-10.76
-19.99
-29.78
-39.62
-48.96
-57.54
-65.55
-73.74
-83.09
-94.26
-107.03
-119.90
-130.33
-135.37
-132.62
-121.02
-101.16
-75.01
-45.31
-14.80
14.26
40.31
62.37
79.93
92.76
100.94
104.83
105.03
102.32
97.53
91.44
84.79
78.12
71.83
66.07
60.84
56.10
51.82
48.06
44.91
42.24
39.74
36.79
32.74
26.97
19.21
9.56
-1.57
-13.56
-25.75
-37.57
-48.63
-58.75
-68.00
-76.74
-85.65
-95.53
-106.88
-119.41
-131.62
-140.94
-144.35
-139.37
-124.92
-101.83
-72.53
-40.23
-7.97
21.94
48.17
70.09
87.41
99.92
107.58
110.64
109.80
106.13
100.82
94.88
88.92
83.07
77.17
71.06
64.85
58.97
53.97
50.30
48.04
46.77
45.72
43.96
40.73
35.62
28.62
20.09
10.58
0.64
-9.27
-18.89
-28.16
-37.19
-46.28
-55.96
-66.91
-79.76
-94.57
-110.47
-125.40
-136.35
-140.15
-134.51
-118.83
-94.47
-64.39
-32.17
-1.15
26.35
49.15
66.96
79.98
88.55
93.04
93.90
91.78
87.59
82.29
76.72
71.41
66.48
61.79
57.15
52.56
48.21
44.37
41.26
38.78
36.56
34.00
30.48
25.45
18.59
9.94
-0.12
-10.89
-21.52
-31.34
-40.09
-48.09
-56.12
-65.14
-75.92
-88.62
-102.65
-116.60
-128.42
-135.82
-136.65
-129.52
-114.11
-91.42
-63.57
-33.40
-3.84
22.70
44.64
61.37
72.96
79.86
82.66
81.94
78.33
72.62
65.69
58.46
51.61
45.52
40.23
35.62
31.69
28.57
26.49
25.52
25.29
24.99
23.61
20.29
14.62
6.85
-2.31
-11.90
-21.12
-29.54
-37.21
-44.65
-52.74
-62.44
-74.42
-88.62
-103.85
-117.79
-127.38
-129.72
-122.93
-106.86
-83.06
-54.33
-23.89
5.44
31.65
53.64
70.95
83.48
91.38
94.97
94.79
91.61
86.33
79.89
73.17
66.81
61.22
56.53
52.60
49.21
46.14
43.28
40.61
38.17
35.83
33.21
29.71
24.66
17.59
8.51
-2.03
-13.08
-23.69
-33.24
-41.69
-49.60
-57.91
-67.59
-79.28
-92.99
-107.84
-122.02
-132.96
-137.95
-134.79
-122.44
-101.42
-73.73
-42.29
-10.22
19.86
46.19
67.86
84.67
96.78
104.58
108.51
109.06
106.85
102.63
97.21
91.36
85.61
80.35
75.73
71.78
68.46
65.83
63.92
62.66
61.76
60.63
58.88
56.34
53.07
49.23
44.96
40.30
35.18
29.55
23.53
17.96
13.98
12.48
13.47
15.96
18.34
19.06
17.46
14.21
11.89
13.90
23.05
40.31
64.55
93.14
122.83
150.39
169.74
174.83
161.53
129.55
82.41
25.48
-35.95
-97.40
-154.94
-208.48
-256.19
-294.72
-320.90
-333.67
-334.79
-328.44
-320.08
-315.44
-314.81
-319.35
-329.26
-342.70
-355.27
-360.44
-351.50
-324.32
-279.95
-225.04
-169.50
-122.05
-86.85
-62.64
-44.48
-27.27
-8.56
10.73
27.76
40.03
47.20
50.72
52.32
52.93
52.57
51.15
49.33
48.31
49.00
51.36
54.27
56.30
56.88
56.71
57.68
61.20
67.16
73.90
79.41
82.58
83.57
84.14
86.59
94.36
110.60
137.69
176.80
227.14
285.51
345.48
399.42
439.44
461.19
463.69
448.80
420.31
382.41
339.09
292.91
247.21
205.07
171.64
151.47
146.50
155.63
174.64
198.10
220.04
238.01
235.94
204.70
144.56
65.99
-14.52
-83.09
-124.36
-141.53
-140.39
-126.84
-103.70
-72.73
-40.59
-12.56
7.04
16.13
13.82
2.67
-14.08
-35.93
-60.40
-85.42
-109.78
-133.76
-157.75
-182.06
-204.69
-223.73
-237.02
-244.29
-247.83
-250.91
-256.74
-266.58
-280.09
-294.32
-308.64
-318.24
-318.48
-307.05
-284.75
-255.71
-225.30
-198.88
-179.89
-169.62
-166.37
-166.78
-166.59
-161.10
-146.00
-117.09
-72.53
-14.33
48.38
102.04
133.15
134.47
109.12
69.91
35.94
24.45
44.57
95.16
168.17
253.43
342.89
431.32
503.92
544.09
537.81
481.55
386.26
273.71
167.25
83.30
27.05
-6.43
-25.61
-37.66
-45.47
-48.50
-45.60
-37.48
-27.41
-19.86
-17.37
-20.62
-28.03
-36.84
-44.95
-51.77
-57.77
-63.38
-68.00
-69.93
-66.11
-54.29
-34.10
-7.71
20.58
46.04
65.02
76.30
79.77
77.79
72.81
66.64
60.02
52.96
45.77
38.51
30.98
22.25
10.81
-5.65
-28.12
-55.16
-83.12
-107.20
-124.64
-135.76
-144.04
-148.92
-151.81
-154.55
-158.48
-163.75
-168.73
-172.22
-173.52
-172.46
-169.17
-164.62
-159.46
-153.86
-151.72
-151.14
-150.13
-146.65
-138.63
-124.24
-103.17
-76.39
-46.30
-16.24
10.99
32.52
46.79
54.31
56.16
53.90
49.59
45.26
42.27
41.50
42.20
42.93
42.57
41.15
40.05
41.41
46.94
56.66
68.93
80.57
88.76
92.38
92.22
90.14
87.68
85.10
81.48
75.93
68.24
59.55
51.69
45.88
41.95
38.09
31.91
21.74
7.79
-7.89
-21.97
-31.07
-32.94
-26.95
-14.23
2.89
21.61
39.38
54.40
65.84
73.56
77.82
78.80
76.39
70.30
60.60
48.16
34.83
22.88
14.07
8.74
5.64
2.66
-1.85
-8.01
-14.37
-18.79
-19.85
-17.87
-14.79
-13.03
-14.15
-18.11
-23.65
-29.16
-33.53
-36.33
-37.41
-36.59
-33.66
-29.02
-23.93
-20.48
-20.57
-24.85
-31.98
-38.88
-41.84
-38.01
-26.58
-9.06
11.32
30.94
47.05
58.66
66.50
72.29
77.49
82.42
86.13
86.94
83.61
76.10
65.77
54.56
44.08
34.86
26.40
17.82
8.70
-0.58
-9.02
-15.68
-20.45
-24.24
-28.53
-34.61
-42.92
-52.86
-63.31
-73.36
-82.80
-92.14
-102.03
-112.70
-123.78
-134.42
-143.75
-151.10
-155.88
-157.36
-154.51
-146.31
-132.34
-113.12
-90.08
-65.06
-39.63
-14.76
9.04
31.31
51.22
67.62
79.50
86.65
89.90
90.93
91.57
93.16
96.09
99.99
104.19
108.26
112.23
116.27
120.33
123.76
125.38
123.89
118.49
109.27
97.18
83.55
69.49
55.44
41.10
25.79
8.85
-9.82
-29.65
-49.48
-67.80
-83.12
-94.21
-100.20
-100.67
-95.72
-85.95
-72.44
-56.54
-39.64
-22.75
-6.45
9.01
23.40
36.21
46.54
53.36
55.87
53.95
48.22
39.79
29.96
19.89
10.52
2.66
-3.08
-6.35
-7.33
-6.75
-5.89
-6.19
-8.77
-14.07
-21.73
-30.78
-40.16
-49.17
-57.75
-66.46
-76.07
-86.94
-98.57
-109.49
-117.54
-120.52
-116.92
-106.31
-89.36
-67.40
-42.03
-14.71
13.22
40.39
65.24
86.17
101.66
110.65
112.83
108.67
99.32
86.39
71.63
56.61
42.57
30.35
20.33
12.53
6.65
2.11
-1.73
-5.53
-9.73
-14.48
-19.60
-24.80
-29.82
-34.53
-38.96
-43.22
-47.48
-52.02
-57.31
-63.92
-72.15
-81.60
-90.93
-97.93
-100.24
-96.12
-85.16
-68.29
-47.37
-24.43
-1.18
21.17
41.65
59.31
73.15
82.51
87.45
88.97
88.78
88.68
89.84
92.48
95.85
98.76
100.13
99.38
96.47
91.73
85.62
78.58
71.02
63.32
55.87
49.01
42.90
37.43
32.23
26.80
20.52
12.86
3.37
-8.40
-22.85
-40.26
-60.35
-81.96
-102.90
-120.23
-130.98
-133.08
-126.00
-110.79
-89.66
-65.11
-39.31
-13.89
10.02
31.49
49.70
63.96
73.89
79.55
81.36
79.94
76.00
70.31
63.78
57.39
52.08
48.50
46.72
46.20
45.94
44.83
41.93
36.71
29.03
19.08
7.25
-5.88
-19.55
-32.85
-44.89
-55.03
-63.18
-69.89
-76.25
-83.56
-92.80
-104.11
-116.44
-127.62
-134.90
-135.78
-128.80
-114.00
-92.82
-67.63
-40.94
-14.92
8.84
29.36
46.04
58.56
66.99
71.79
73.70
73.58
72.13
69.78
66.68
62.88
58.46
53.65
48.70
43.88
39.42
35.52
32.27
29.55
26.92
23.56
18.59
11.34
1.78
-9.44
-21.25
-32.55
-42.67
-51.49
-59.44
-67.35
-76.16
-86.64
-98.91
-112.07
-124.01
-131.92
-133.04
-125.78
-110.31
-88.51
-63.31
-37.64
-13.80
6.79
23.44
35.82
43.98
48.40
50.04
50.18
49.99
50.12
50.45
50.36
49.23
47.07
44.77
43.88
45.92
51.56
60.18
69.88
78.15
82.75
82.39
77.01
67.59
55.69
42.99
30.87
20.11
10.79
2.12
-7.29
-18.95
-33.69
-51.12
-69.40
-85.75
-97.33
-102.15
-99.70
-90.78
-77.06
-60.35
-42.23
-23.99
-6.72
8.58
21.01
30.04
35.68
38.51
39.44
39.34
38.75
37.73
36.04
33.50
30.21
26.69
23.61
21.47
20.24
19.32
17.75
14.71
9.89
3.63
-3.35
-10.38
-17.18
-23.92
-30.95
-38.56
-46.78
-55.50
-64.59
-73.85
-82.74
-90.07
-94.00
-92.52
-84.18
-68.83
-47.73
-23.21
2.20
26.43
48.19
66.81
81.94
93.34
100.93
104.98
106.19
105.46
103.64
101.27
98.49
95.29
91.68
87.81
83.88
79.97
75.77
70.63
63.65
54.05
41.49
26.29
9.37
-8.02
-24.70
-39.97
-53.78
-66.70
-79.61
-93.41
-108.57
-125.02
-141.95
-157.82
-170.47
-177.59
-177.24
-168.44
-151.53
-128.10
-100.52
-71.31
-42.45
-15.29
9.42
31.14
49.33
63.44
73.15
78.60
80.44
79.69
77.45
74.58
71.61
68.74
66.03
63.53
61.32
59.46
57.86
56.24
54.12
50.97
46.29
39.85
31.64
21.99
11.42
0.50
-10.28
-20.69
-30.83
-41.06
-51.88
-63.67
-76.39
-89.34
-101.13
-109.85
-113.55
-110.74
-100.91
-84.69
-63.71
-40.11
-15.94
7.19
28.30
46.84
62.43
74.69
83.22
87.84
88.75
86.61
82.41
77.19
71.69
66.27
60.93
55.57
50.17
44.93
40.16
36.10
32.77
29.86
26.87
23.19
18.37
12.24
5.02
-2.81
-10.67
-18.16
-25.24
-32.25
-39.75
-48.36
-58.52
-70.31
-83.39
-96.87
-109.30
-118.82
-123.44
-121.57
-112.42
-96.35
-74.74
-49.63
-23.17
2.75
26.74
47.92
65.73
79.89
90.27
96.94
100.17
100.42
98.31
94.51
89.68
84.34
78.92
73.65
68.73
64.24
60.22
56.65
53.40
50.30
47.13
43.71
39.82
35.24
29.69
22.95
14.93
5.76
-4.16
-14.32
-24.23
-33.59
-42.39
-50.93
-59.71
-69.29
-80.07
-92.05
-104.58
-116.28
-125.18
-129.11
-126.33
-116.13
-99.01
-76.63
-51.26
-25.22
-0.41
21.89
40.91
56.28
67.82
75.57
79.71
80.64
78.90
75.09
69.86
63.82
57.56
51.57
46.17
41.50
37.53
34.14
31.19
28.55
26.08
23.57
20.77
17.37
13.05
7.61
1.06
-6.37
-14.17
-21.78
-28.72
-34.78
-40.17
-45.41
-51.19
-58.14
-66.64
-76.77
-88.19
-100.16
-111.47
-120.52
-125.49
-124.78
-117.37
-103.17
-83.16
-59.12
-33.29
-7.74
15.95
36.91
54.85
69.68
81.26
89.38
93.87
95.01
93.63
90.91
88.05
85.67
83.72
81.71
79.09
75.70
71.76
67.69
63.73
59.76
55.44
50.47
44.83
38.67
32.13
25.06
17.07
7.75
-2.99
-14.72
-26.49
-37.22
-46.12
-53.07
-58.71
-64.27
-71.12
-80.19
-91.51
-103.95
-115.42
-123.36
-125.45
-120.25
-107.60
-88.57
-65.04
-39.19
-13.08
11.62
33.67
52.24
66.84
77.27
83.63
86.33
86.06
83.67
80.00
75.64
70.87
65.63
59.72
53.06
45.85
38.65
32.11
26.75
22.71
19.67
16.98
13.94
9.99
4.93
-1.16
-7.88
-14.81
-21.61
-28.17
-34.65
-41.46
-49.03
-57.67
-67.38
-77.71
-87.79
-96.32
-101.73
-102.55
-97.71
-87.01
-71.21
-51.89
-31.03
-10.44
8.64
25.57
40.18
52.37
61.95
68.69
72.49
73.60
72.65
70.41
67.56
64.46
61.13
57.44
53.27
48.74
44.21
40.11
36.75
34.15
31.92
29.47
26.13
21.45
15.36
8.20
0.55
-6.96
-13.95
-20.44
-26.84
-33.83
-42.11
-52.14
-63.93
-76.88
-89.88
-101.37
-109.66
-113.26
-111.19
-103.24
-90.05
-72.94
-53.64
-33.87
-15.06
1.78
16.07
27.49
35.93
41.43
44.24
44.82
43.79
41.79
39.34
36.75
34.15
31.54
28.96
26.55
24.57
23.34
23.08
23.76
24.96
25.84
25.37
22.59
17.05
8.95
-0.89
-11.39
-21.59
-31.06
-39.93
-48.85
-58.59
-69.73
-82.32
-95.65
-108.28
-118.19
-123.28
-121.95
-113.55
-98.60
-78.60
-55.57
-31.49
-7.91
14.07
33.66
50.15
62.87
71.37
75.69
76.51
75.01
72.43
69.67
66.98
64.18
60.87
56.93
52.59
48.42
44.92
42.32
40.35
38.43
35.81
31.89
26.34
19.18
10.70
1.42
-8.04
-17.17
-25.66
-33.54
-41.22
-49.34
-58.60
-69.44
-81.66
-94.19
-105.16
-112.31
-113.63
-108.06
-95.78
-78.10
-57.00
-34.42
-11.94
9.33
28.61
45.26
58.69
68.51
74.68
77.58
77.90
76.32
73.35
69.24
64.05
57.99
51.48
45.23
40.01
36.34
34.17
32.89
31.49
28.93
24.48
18.03
10.05
1.37
-7.06
-14.51
-20.64
-25.63
-30.17
-35.36
-42.39
-52.19
-65.07
-80.34
-96.33
-110.66
-120.71
-124.20
-119.81
-107.34
-87.83
-63.27
-36.10
-8.74
16.95
39.91
59.88
77.03
91.54
103.29
111.84
116.69
117.65
115.00
109.43
101.79
92.84
83.15
73.23
63.62
54.89
47.51
41.60
36.86
32.57
27.90
22.16
15.00
6.52
-2.85
-12.44
-21.58
-29.81
-37.09
-43.88
-50.99
-59.38
-69.66
-81.78
-94.73
-106.67
-115.27
-118.33
-114.48
-103.53
-86.63
-65.85
-43.70
-22.40
-3.53
12.12
24.28
32.89
37.92
39.32
37.14
31.64
23.33
12.84
0.78
-12.23
-25.62
-38.79
-51.05
-61.84
-70.88
-78.38
-85.08
-92.01
-100.05
-109.49
-119.69
-129.11
-135.93
-138.79
-137.34
-132.26
-124.64
-115.35
-104.54
-91.76
-76.24
-57.16
-33.66
-4.81
30.43
72.81
122.07
176.27
231.63
283.19
326.08
356.91
374.49
379.55
373.82
359.10
336.62
307.20
271.72
231.74
189.76
148.86
111.92
80.78
55.85
36.20
20.40
7.35
-3.22
-10.80
-14.78
-15.27
-13.47
-11.47
-11.30
-13.95
-18.81
-24.01
-27.44
-27.89
-25.63
-22.14
-19.31
-18.58
-20.48
-24.77
-30.81
-37.77
-44.78
-50.77
-54.52
-54.78
-50.50
-41.32
-27.82
-11.46
5.81
22.00
35.59
45.75
52.26
55.32
55.28
52.55
47.63
41.22
34.14
27.22
21.06
15.89
11.60
7.81
4.10
0.11
-4.40
-9.64
-15.72
-22.82
-31.11
-40.82
-52.03
-64.54
-77.68
-90.37
-101.46
-110.24
-116.81
-122.26
-128.23
-136.28
-147.16
-160.43
-174.48
-186.94
-195.33
-197.64
-192.84
-180.97
-163.06
-140.78
-115.94
-90.18
-64.64
-40.06
-16.97
4.06
22.36
37.26
48.40
55.80
59.89
61.32
60.71
58.61
55.52
52.03
48.75
46.24
44.68
43.85
43.07
41.59
38.84
34.71
29.54
23.96
18.64
13.97
9.97
6.20
1.84
-4.11
-12.48
-23.50
-36.49
-49.73
-60.77
-67.18
-67.30
-60.74
-48.45
-32.17
-13.73
5.39
24.22
41.95
57.66
70.21
78.55
82.21
81.54
77.65
71.92
65.54
59.19
53.19
47.69
42.96
39.26
36.67
34.88
33.22
30.92
27.40
22.52
16.59
10.15
3.76
-2.13
-7.34
-11.92
-16.13
-20.39
-25.23
-31.18
-38.71
-48.05
-59.10
-71.21
-83.21
-93.41
-99.94
-101.24
-96.47
-85.79
-70.29
-51.62
-31.49
-11.31
7.98
25.81
41.80
55.58
66.79
75.06
80.17
82.11
81.11
77.67
72.46
66.16
59.41
52.71
46.40
40.67
35.63
31.29
27.52
24.07
20.57
16.60
11.86
6.26
-0.03
-6.72
-13.57
-20.54
-27.88
-35.98
-45.18
-55.59
-66.98
-78.79
-90.13
-99.85
-106.57
-108.93
-105.78
-96.62
-81.78
-62.46
-40.42
-17.50
4.66
24.92
42.52
56.95
67.86
75.10
78.83
79.60
78.28
75.81
72.92
69.94
66.77
63.10
58.67
53.56
48.13
42.97
38.57
35.03
32.05
28.98
25.10
19.88
13.15
5.12
-3.65
-12.51
-20.85
-28.36
-35.07
-41.42
-48.01
-55.43
-63.95
-73.34
-82.78
-91.03
-96.58
-98.02
-94.30
-85.04
-70.62
-52.18
-31.37
-10.07
10.05
27.72
42.28
53.62
62.02
67.98
71.94
74.21
74.81
73.67
70.68
65.93
59.77
52.84
45.88
39.60
34.48
30.71
28.13
26.26
24.37
21.64
17.39
11.33
3.67
-4.85
-13.23
-20.62
-26.59
-31.37
-35.71
-40.58
-46.80
-54.78
-64.45
-75.25
-86.18
-95.85
-102.52
-104.39
-99.93
-88.47
-70.57
-48.02
-23.38
0.81
22.77
41.68
57.50
70.33
80.03
86.08
88.10
86.23
81.41
75.06
68.46
62.22
56.20
49.79
42.52
34.50
26.39
19.08
13.21
8.88
5.63
2.78
-0.21
-3.51
-6.97
-10.30
-13.36
-16.27
-19.37
-23.09
-27.75
-33.53
-40.41
-48.24
-56.66
-65.04
-72.45
-77.75
-79.76
-77.59
-70.83
-59.64
-44.69
-27.02
-7.85
11.52
29.78
45.70
58.28
66.91
71.50
72.45
70.51
66.63
61.61
56.01
50.08
43.85
37.36
30.83
24.70
19.50
15.70
13.38
12.17
11.31
9.92
7.28
3.09
-2.45
-8.81
-15.38
-21.74
-27.79
-33.76
-40.02
-46.98
-54.82
-63.40
-72.15
-80.05
-85.81
-88.12
-86.06
-79.31
-68.29
-53.92
-37.31
-19.54
-1.44
16.25
32.80
47.40
59.22
67.61
72.25
73.28
71.33
67.32
62.40
57.62
53.82
51.40
50.27
49.87
49.29
47.52
43.67
37.32
28.67
18.58
8.25
-1.14
-8.83
-14.66
-19.00
-22.49
-25.82
-29.62
-34.49
-40.98
-49.49
-60.00
-71.82
-83.50
-93.13
-98.82
-99.19
-93.68
-82.63
-67.03
-48.35
-28.22
-8.27
10.10
25.80
38.18
47.01
52.49
55.11
55.54
54.53
52.76
50.83
49.15
47.91
47.01
46.11
44.74
42.47
38.95
34.01
27.58
19.73
10.63
0.65
-9.58
-19.31
-27.84
-34.80
-40.23
-44.61
-48.64
-52.97
-57.99
-63.85
-70.42
-77.33
-83.90
-89.12
-91.66
-90.11
-83.42
-71.23
-54.14
-33.65
-11.81
9.31
28.01
43.28
54.86
63.01
68.23
70.94
71.37
69.56
65.61
59.83
52.88
45.66
39.08
33.78
29.89
27.11
24.83
22.44
19.50
15.79
11.32
6.17
0.56
-5.27
-11.09
-16.71
-22.18
-27.80
-34.00
-41.07
-48.86
-56.56
-62.87
-66.31
-65.70
-60.45
-50.69
-37.13
-20.78
-2.84
15.42
32.76
48.06
60.48
69.53
75.16
77.56
77.11
74.18
69.15
62.43
54.59
46.35
38.46
31.63
26.27
22.45
19.88
17.94
15.92
13.13
9.07
3.51
-3.46
-11.53
-20.17
-28.78
-36.88
-44.28
-51.20
-58.19
-65.88
-74.51
-83.60
-91.86
-97.40
-98.32
-93.27
-81.88
-64.85
-43.73
-20.53
2.70
24.26
42.92
57.98
69.24
76.88
81.37
83.27
83.14
81.35
78.08
73.35
67.28
60.19
52.70
45.69
39.94
35.85
33.20
31.23
28.91
25.37
20.17
13.43
5.64
-2.61
-10.89
-18.96
-26.80
-34.48
-42.18
-50.15
-58.68
-67.94
-77.69
-87.10
-94.71
-98.69
-97.35
-89.71
-75.87
-56.96
-34.88
-11.69
10.78
31.26
49.05
63.83
75.46
83.84
88.93
90.84
89.90
86.72
82.06
76.62
70.88
65.02
59.07
53.01
47.01
41.36
36.43
32.39
29.08
25.95
22.31
17.57
11.50
4.34
-3.33
-10.86
-17.82
-24.14
-30.09
-36.08
-42.54
-49.76
-57.92
-67.01
-76.83
-86.80
-95.87
-102.62
-105.46
-103.08
-94.80
-80.84
-62.18
-40.35
-17.09
5.97
27.42
46.20
61.58
73.19
80.95
85.14
86.24
84.92
81.87
77.76
73.12
68.30
63.49
58.67
53.79
48.81
43.77
38.82
34.11
29.73
25.64
21.59
17.28
12.42
6.88
0.73
-5.74
-12.23
-18.49
-24.44
-30.24
-36.13
-42.40
-49.32
-56.99
-65.41
-74.34
-83.22
-91.16
-97.00
-99.53
-97.73
-91.07
-79.57
-63.81
-44.87
-24.15
-3.17
16.54
33.78
47.79
58.40
65.91
70.82
73.61
74.55
73.74
71.26
67.32
62.28
56.59
50.70
44.95
39.66
35.17
31.80
29.80
29.13
29.33
29.63
29.09
27.05
23.31
18.13
12.10
5.79
-0.55
-6.99
-13.90
-21.65
-30.52
-40.55
-51.54
-63.01
-74.13
-83.70
-90.35
-92.77
-90.16
-82.40
-70.19
-54.69
-37.25
-19.10
-1.23
15.45
30.08
41.84
50.14
54.82
56.29
55.39
53.09
50.12
46.87
43.39
39.66
35.79
32.07
28.84
26.28
24.24
22.33
20.07
17.13
13.39
8.91
3.76
-2.04
-8.51
-15.59
-22.95
-30.08
-36.40
-41.60
-45.78
-49.55
-53.80
-59.31
-66.32
-74.31
-82.01
-87.74
-89.87
-87.30
-79.73
-67.66
-52.12
-34.45
-15.93
2.31
19.34
34.39
46.81
56.13
62.20
65.28
66.00
65.22
63.70
61.90
59.80
57.09
53.46
48.86
43.62
38.27
33.31
28.94
24.98
21.04
16.75
11.99
6.89
1.68
-3.39
-8.30
-13.14
-18.09
-23.24
-28.63
-34.19
-39.88
-45.77
-52.00
-58.77
-66.09
-73.65
-80.67
-86.04
-88.51
-87.08
-81.31
-71.36
-57.92
-42.04
-24.79
-7.19
9.88
25.65
39.48
50.89
59.59
65.48
68.69
69.48
68.20
65.27
61.08
56.06
50.59
45.01
39.68
34.93
31.01
28.00
25.72
23.81
21.79
19.25
15.99
11.99
7.37
2.26
-3.25
-9.14
-15.37
-21.92
-28.67
-35.45
-42.10
-48.51
-54.72
-61.03
-67.79
-75.20
-82.99
-90.22
-95.37
-96.82
-93.35
-84.64
-71.33
-54.74
-36.45
-17.85
0.01
16.38
30.68
42.50
51.63
58.23
62.74
65.79
67.84
69.09
69.41
68.54
66.33
62.84
58.37
53.26
47.72
41.84
35.60
29.08
22.54
16.38
10.95
6.38
2.50
-1.14
-4.99
-9.34
-14.27
-19.67
-25.46
-31.62
-38.25
-45.38
-52.93
-60.65
-68.33
-75.82
-83.12
-90.11
-96.38
-101.02
-102.77
-100.38
-93.06
-80.78
-64.33
-45.11
-24.79
-4.92
13.27
28.95
41.67
51.28
57.86
61.67
63.11
62.64
60.74
57.82
54.25
50.26
46.02
41.71
37.54
33.76
30.56
27.99
25.87
23.89
21.61
18.67
14.85
10.12
4.62
-1.39
-7.58
-13.64
-19.38
-24.78
-30.06
-35.68
-42.12
-49.74
-58.37
-67.30
-75.20
-80.47
-81.64
-77.82
-68.88
-55.56
-39.12
-21.13
-3.01
14.05
29.17
41.74
51.33
57.77
61.19
62.12
61.28
59.42
57.07
54.40
51.37
47.83
43.85
39.64
35.56
31.85
28.57
25.57
22.62
19.47
15.99
12.04
7.50
2.25
-3.78
-10.52
-17.74
-25.14
-32.42
-39.50
-46.53
-53.87
-61.85
-70.57
-79.62
-88.00
-94.30
-96.96
-94.77
-87.16
-74.38
-57.40
-37.60
-16.54
4.38
24.03
41.54
56.29
67.86
76.00
80.64
82.03
80.68
77.38
72.95
68.10
63.21
58.35
53.40
48.19
42.76
37.31
32.15
27.51
23.46
19.81
16.18
12.17
7.44
1.84
-4.53
-11.34
-18.19
-24.74
-30.86
-36.78
-42.96
-49.95
-58.12
-67.32
-76.77
-85.17
-90.93
-92.60
-89.30
-80.78
-67.56
-50.60
-31.16
-10.55
9.97
29.26
46.33
60.37
70.85
77.61
80.81
80.99
78.91
75.39
71.16
66.67
62.09
57.45
52.71
47.97
43.45
39.34
35.73
32.46
29.21
25.59
21.29
16.13
10.09
3.33
-3.90
-11.23
-18.29
-24.84
-30.84
-36.51
-42.28
-48.65
-56.06
-64.63
-74.03
-83.34
-91.17
-95.86
-95.93
-90.45
-79.34
-63.33
-43.77
-22.23
-0.22
20.95
40.21
56.66
69.57
78.56
83.65
85.28
84.22
81.34
77.37
72.82
67.97
62.98
57.95
52.97
48.11
43.44
39.02
34.90
31.09
27.55
24.10
20.36
15.80
9.95
2.59
-6.03
-15.20
-24.07
-31.99
-38.94
-45.50
-52.73
-61.56
-72.31
-84.48
-96.90
-108.02
-116.42
-121.10
-121.61
-118.15
-111.48
-102.80
-93.43
-84.46
-76.32
-68.62
-60.26
-49.87
-36.43
-19.84
-1.03
18.17
35.63
49.69
59.62
65.87
69.66
72.39
75.08
78.17
81.64
85.39
89.30
93.10
96.04
96.81
93.78
85.83
73.00
56.71
39.32
23.28
10.17
0.28
-7.18
-13.49
-19.75
-26.59
-34.05
-41.74
-49.00
-54.97
-58.78
-59.61
-56.90
-50.42
-40.39
-27.30
-11.94
4.67
21.27
36.48
49.01
58.00
63.31
65.48
65.40
63.84
61.04
56.75
50.62
42.67
33.56
24.50
16.74
11.18
8.02
6.78
6.60
6.48
5.57
3.25
-0.71
-6.17
-12.58
-19.20
-25.34
-30.68
-35.46
-40.32
-45.99
-52.88
-60.80
-68.95
-76.14
-81.11
-82.79
-80.38
-73.41
-61.76
-45.83
-26.61
-5.70
14.90
33.34
48.32
59.41
66.98
71.77
74.52
75.66
75.25
73.24
69.67
64.86
59.42
53.98
49.07
44.87
41.27
37.96
34.58
30.97
27.09
23.05
18.85
14.34
9.19
3.07
-4.14
-12.11
-20.13
-27.45
-33.63
-38.88
-44.00
-50.03
-57.62
-66.73
-76.41
-85.18
-91.45
-93.95
-91.94
-85.20
-73.93
-58.62
-40.16
-19.81
0.89
20.36
37.29
50.86
60.85
67.43
71.01
72.04
70.97
68.23
64.30
59.68
54.82
50.11
45.77
41.94
38.61
35.72
33.10
30.51
27.75
24.66
21.18
17.31
13.11
8.57
3.64
-1.76
-7.60
-13.71
-19.79
-25.53
-30.80
-35.71
-40.67
-46.19
-52.72
-60.33
-68.71
-77.13
-84.57
-89.93
-92.18
-90.48
-84.28
-73.47
-58.48
-40.31
-20.39
-0.34
18.40
34.81
48.34
58.89
66.58
71.62
74.21
74.58
72.97
69.72
65.25
60.08
54.73
49.74
45.48
42.10
39.42
37.05
34.62
31.91
29.04
26.28
23.81
21.46
18.71
14.92
9.68
3.10
-4.21
-11.38
-17.75
-23.20
-28.19
-33.55
-40.06
-48.13
-57.63
-68.07
-78.74
-89.00
-98.24
-105.86
-111.19
-113.56
-112.58
-108.47
-102.06
-94.53
-86.90
-79.55
-72.19
-64.11
-54.72
-43.89
-31.88
-18.94
-4.89
11.10
30.15
53.00
79.33
107.59
135.35
160.11
180.06
194.52
203.74
208.41
208.96
205.34
197.20
184.28
166.91
145.93
122.18
95.85
66.14
31.48
-9.58
-56.96
-107.98
-157.02
-196.46
-218.55
-217.74
-192.44
-145.70
-84.64
-18.88
41.43
87.70
114.46
120.37
108.35
84.58
56.70
31.48
13.06
2.39
-2.06
-2.71
-1.49
0.75
3.64
6.59
8.36
7.42
2.80
-5.15
-14.77
-23.80
-30.47
-34.27
-36.18
-38.11
-41.90
-48.51
-57.60
-67.73
-77.12
-84.41
-89.22
-92.13
-94.18
-96.26
-98.61
-100.85
-102.23
-102.13
-100.41
-97.42
-93.89
-90.62
-88.28
-87.19
-87.24
-87.81
-87.95
-86.65
-83.06
-76.74
-67.60
-55.75
-41.39
-24.91
-7.07
10.94
27.64
41.68
52.31
59.52
63.94
66.30
67.15
66.73
65.18
62.68
59.53
56.08
52.64
49.53
47.10
45.68
45.28
45.10
43.53
38.80
29.85
17.21
3.03
-9.74
-18.64
-22.59
-22.07
-18.77
-15.07
-13.60
-16.90
-26.69
-43.05
-63.66
-83.90
-98.17
-102.04
-94.14
-76.90
-55.51
-35.87
-22.41
-16.87
-18.51
-25.06
-34.07
-43.65
-52.48
-59.40
-62.95
-61.30
-52.60
-35.85
-11.73
17.26
47.61
76.09
101.10
123.19
144.46
167.44
194.08
225.45
261.81
302.94
347.86
394.37
438.77
476.19
501.79
512.01
505.37
482.10
443.25
389.71
321.93
240.70
148.22
48.76
-51.37
-144.99
-225.70
-289.47
-335.49
-365.64
-382.95
-389.82
-387.17
-375.09
-354.46
-328.35
-301.88
-280.51
-267.66
-263.29
-264.02
-264.84
-261.09
-249.74
-229.78
-201.96
-168.39
-132.20
-97.06
-66.47
-42.75
-26.42
-16.32
-10.42
-6.75
-3.96
-1.14
2.33
6.82
12.14
17.29
20.52
20.05
14.80
4.86
-8.43
-22.84
-35.76
-44.67
-47.68
-43.91
-33.70
-18.39
0.06
19.63
38.57
55.65
70.02
81.05
88.27
91.39
90.49
86.01
78.77
69.90
60.62
52.06
44.96
39.61
35.75
32.77
29.93
26.66
22.68
17.93
12.44
6.10
-1.19
-9.44
-18.36
-27.41
-35.96
-43.70
-50.94
-58.51
-67.28
-77.32
-87.56
-95.95
-100.33
-99.24
-92.43
-80.63
-64.93
-46.33
-25.73
-4.27
16.47
34.80
49.60
60.90
69.86
78.05
86.69
96.30
107.08
119.22
133.00
148.26
163.99
178.39
189.48
195.92
197.33
194.03
186.19
173.55
155.72
132.77
105.58
75.68
44.61
13.42
-17.23
-46.61
-73.56
-96.66
-114.92
-128.43
-138.32
-145.96
-151.99
-155.75
-155.69
-150.61
-140.93
-129.03
-118.25
-111.01
-107.37
-104.82
-99.56
-88.60
-71.53
-51.23
-32.96
-22.59
-24.71
-41.20
-70.74
-109.11
-150.30
-187.79
-215.89
-230.59
-229.92
-213.95
-184.41
-144.24
-96.93
-45.90
6.11
57.30
106.66
153.39
196.46
234.41
265.56
288.68
303.20
309.21
307.07
297.27
280.70
258.92
234.16
208.56
183.43
158.88
134.55
110.61
88.50
70.47
58.20
51.63
48.52
45.49
39.50
29.16
14.87
-2.00
-20.38
-40.01
-61.32
-84.43
-108.50
-131.68
-151.84
-167.52
-178.51
-185.58
-189.90
-192.34
-193.32
-193.02
-191.72
-190.04
-188.65
-187.98
-188.06
-188.64
-189.47
-190.30
-190.70
-189.69
-185.75
-177.12
-162.60
-142.02
-116.25
-86.70
-54.72
-21.47
11.88
43.86
72.80
97.39
117.33
133.59
147.68
160.68
172.37
181.38
186.20
186.45
183.46
179.74
177.73
178.47
181.20
183.93
184.69
182.40
177.15
169.70
160.83
150.97
140.26
128.91
117.26
105.64
93.84
81.05
66.14
48.45
28.53
8.43
-8.90
-20.68
-25.46
-23.57
-16.76
-7.27
3.08
13.13
22.13
29.33
33.58
33.73
29.29
20.93
10.51
0.22
-8.31
-14.68
-19.57
-24.24
-29.81
-36.83
-45.20
-54.37
-63.64
-72.21
-79.24
-83.75
-85.11
-83.48
-79.92
-76.16
-73.81
-73.74
-75.71
-78.60
-80.40
-79.50
-75.11
-67.22
-56.33
-42.80
-26.79
-8.12
13.34
38.54
67.52
98.93
130.20
158.35
181.25
198.24
210.31
219.16
227.95
238.10
248.66
256.91
260.34
258.26
252.21
245.08
239.08
236.97
239.07
243.45
247.14
247.68
243.99
236.04
224.21
194.85
141.73
67.50
-17.07
-99.51
-171.63
-230.59
-276.51
-309.80
-331.41
-340.54
-338.00
-326.63
-310.27
-291.96
-272.92
-255.20
-237.31
-218.98
-199.77
-180.48
-162.44
-146.80
-134.03
-124.43
-118.19
-115.40
-116.76
-121.58
-128.69
-136.76
-144.80
-150.20
-151.66
-148.28
-139.28
-124.92
-105.99
-84.77
-64.72
-49.66
-42.58
-45.02
-55.55
-70.08
-83.72
-92.27
-93.97
-89.85
-82.80
-76.38
-73.38
-73.09
-71.00
-60.05
-33.05
14.61
83.44
169.68
266.20
358.04
427.42
459.83
450.93
408.06
344.86
274.41
205.57
143.05
88.99
45.34
13.80
-5.10
-13.08
-13.87
-11.67
-9.48
-8.79
-10.32
-13.32
-17.70
-22.85
-28.05
-32.74
-36.58
-39.74
-42.89
-47.01
-52.40
-58.42
-63.80
-67.58
-69.91
-72.04
-75.44
-80.90
-87.92
-94.73
-97.82
-94.44
-83.54
-66.09
-44.54
-21.82
-0.36
18.24
33.31
44.78
52.67
57.15
58.40
56.84
53.08
47.90
42.04
36.05
30.26
24.73
19.51
14.70
10.39
6.63
3.33
0.23
-3.07
-6.94
-11.71
-17.46
-23.99
-30.92
-37.77
-44.21
-50.15
-55.81
-61.57
-67.92
-74.98
-82.28
-88.69
-92.54
-92.10
-86.17
-74.50
-58.02
-38.50
-18.11
1.26
18.28
32.29
43.10
50.74
55.31
57.01
56.17
53.36
49.23
44.45
39.48
34.59
29.92
25.55
21.59
18.13
15.14
12.36
9.39
5.75
1.11
-4.63
-11.24
-18.27
-25.26
-31.86
-38.02
-44.01
-50.41
-57.90
-66.96
-77.51
-88.64
-98.64
-105.25
-106.34
-100.49
-87.52
-68.48
-45.36
-20.53
3.84
26.07
45.05
60.15
71.05
77.69
80.31
79.49
76.07
71.09
65.48
59.94
54.76
49.93
45.36
40.99
37.04
33.83
31.55
30.09
28.84
26.97
23.66
18.54
11.80
4.07
-3.86
-11.41
-18.42
-25.18
-32.29
-40.47
-50.31
-61.95
-74.90
-87.78
-98.41
-104.28
-103.22
-94.10
-77.32
-54.68
-28.81
-2.43
22.26
43.92
61.89
75.91
85.86
91.69
93.48
91.71
87.19
81.04
74.39
68.06
62.47
57.64
53.31
49.25
45.37
41.77
38.65
36.09
33.88
31.44
28.04
23.02
16.09
7.51
-2.00
-11.52
-20.26
-27.88
-34.60
-41.13
-48.44
-57.37
-68.32
-80.93
-93.96
-105.33
-112.57
-113.36
-106.29
-91.27
-69.63
-43.70
-16.22
10.36
34.27
54.51
70.63
82.50
90.14
93.67
93.45
90.11
84.59
78.02
71.38
65.36
60.12
55.48
51.08
46.74
42.54
38.79
35.84
33.72
32.06
30.10
27.00
22.12
15.30
6.87
-2.48
-11.98
-20.96
-29.11
-36.47
-43.44
-50.68
-58.94
-68.84
-80.52
-93.31
-105.59
-114.93
-118.74
-115.01
-103.00
-83.59
-58.90
-31.72
-4.68
20.25
41.86
59.54
72.99
82.04
86.75
87.47
84.90
80.05
74.01
67.75
61.91
56.75
52.18
47.93
43.78
39.70
35.90
32.68
30.21
28.27
26.30
23.47
19.04
12.69
4.59
-4.58
-14.00
-22.92
-31.00
-38.37
-45.56
-53.33
-62.43
-73.28
-85.71
-98.76
-110.65
-119.11
-121.86
-117.24
-104.75
-85.25
-60.75
-33.82
-6.97
17.88
39.55
57.41
71.20
80.76
86.06
87.32
85.11
80.36
74.19
67.65
61.47
55.98
51.11
46.60
42.23
37.97
34.02
30.68
28.12
26.22
24.43
21.99
18.11
12.32
4.66
-4.35
-13.92
-23.24
-31.86
-39.72
-47.14
-54.75
-63.25
-73.19
-84.80
-97.62
-110.36
-120.96
-126.90
-125.90
-116.68
-99.43
-75.78
-48.42
-20.21
6.44
29.99
49.75
65.55
77.45
85.53
89.92
90.89
88.93
84.73
79.11
72.91
66.84
61.39
56.75
52.85
49.39
46.11
42.83
39.57
36.46
33.55
30.65
27.33
23.05
17.37
10.18
1.73
-7.48
-16.86
-26.00
-34.65
-42.82
-50.67
-58.52
-66.78
-75.96
-86.51
-98.46
-111.07
-122.68
-130.86
-133.02
-127.25
-112.96
-91.20
-64.28
-35.14
-6.52
19.53
41.80
59.77
73.29
82.47
87.59
89.11
87.70
84.14
79.24
73.72
68.12
62.82
58.07
53.94
50.45
47.49
44.90
42.47
40.00
37.34
34.33
30.82
26.61
21.47
15.21
7.73
-0.87
-10.29
-20.08
-29.73
-38.83
-47.19
-54.86
-62.21
-69.84
-78.42
-88.43
-99.87
-111.94
-122.94
-130.51
-132.20
-126.14
-111.72
-89.83
-62.66
-33.13
-4.12
22.11
44.23
61.77
74.83
83.75
88.96
90.84
89.88
86.66
81.89
76.26
70.44
64.90
59.98
55.89
52.67
50.25
48.38
46.67
44.71
42.16
38.87
34.90
30.39
25.48
20.14
14.24
7.54
-0.09
-8.59
-17.70
-27.00
-36.05
-44.56
-52.47
-59.95
-67.46
-75.60
-85.00
-96.01
-108.37
-120.87
-131.36
-137.14
-135.68
-125.50
-106.71
-81.04
-51.32
-20.68
8.22
33.63
54.69
71.15
83.08
90.68
94.28
94.37
91.67
87.04
81.35
75.35
69.54
64.23
59.60
55.77
52.86
50.86
49.57
48.54
47.13
44.73
40.96
35.82
29.68
23.07
16.47
10.07
3.73
-2.89
-10.17
-18.25
-27.02
-36.08
-44.93
-53.19
-60.75
-67.94
-75.43
-84.04
-94.33
-106.23
-118.68
-129.66
-136.53
-136.76
-128.65
-111.95
-87.99
-59.26
-28.80
0.56
26.72
48.51
65.53
77.88
85.85
89.86
90.40
88.09
83.67
77.94
71.66
65.46
59.75
54.81
50.71
47.46
44.93
42.93
41.25
39.63
37.83
35.62
32.76
28.97
24.04
17.80
10.33
1.85
-7.18
-16.29
-25.08
-33.31
-40.97
-48.24
-55.54
-63.39
-72.40
-83.02
-95.24
-108.28
-120.43
-129.24
-132.05
-126.83
-112.82
-90.97
-63.60
-33.79
-4.54
21.90
44.23
62.04
75.38
84.50
89.62
91.02
89.14
84.70
78.65
72.00
65.62
60.04
55.39
51.50
48.04
44.76
41.58
38.57
35.83
33.37
30.99
28.26
24.66
19.68
13.04
4.77
-4.75
-14.95
-25.18
-34.93
-43.94
-52.31
-60.44
-69.00
-78.74
-90.25
-103.57
-117.90
-131.42
-141.49
-145.26
-140.50
-126.38
-103.76
-75.06
-43.51
-12.33
16.01
40.06
59.30
73.85
84.11
90.50
93.44
93.37
90.77
86.27
80.58
74.48
68.64
63.46
59.01
55.08
51.39
47.74
44.19
40.90
38.06
35.58
33.10
29.98
25.57
19.45
11.56
2.25
-7.83
-17.95
-27.52
-36.27
-44.32
-52.15
-60.47
-70.05
-81.42
-94.69
-109.18
-123.36
-134.89
-141.07
-139.49
-128.79
-109.21
-82.58
-51.83
-20.29
9.21
34.80
55.66
71.76
83.48
91.28
95.51
96.51
94.65
90.49
84.77
78.38
72.15
66.65
62.13
58.51
55.51
52.82
50.26
47.74
45.21
42.55
39.50
35.65
30.62
24.16
16.24
7.14
-2.71
-12.80
-22.68
-32.02
-40.77
-49.08
-57.34
-66.13
-76.06
-87.62
-100.83
-114.96
-128.32
-138.42
-142.43
-138.02
-124.14
-101.44
-72.21
-39.76
-7.41
22.17
47.43
67.82
83.37
94.34
101.01
103.72
102.99
99.57
94.40
88.43
82.49
77.16
72.69
69.14
66.34
64.05
61.97
59.78
57.25
54.19
50.52
46.20
41.18
35.36
28.61
20.82
11.96
2.18
-8.18
-18.70
-28.94
-38.62
-47.74
-56.53
-65.50
-75.28
-86.42
-99.13
-112.84
-126.02
-136.26
-140.76
-137.12
-124.23
-102.68
-74.72
-43.60
-12.64
15.60
39.66
59.13
74.19
85.15
92.15
95.30
94.84
91.36
85.85
79.44
73.15
67.52
62.61
58.16
53.85
49.63
45.68
42.38
39.92
38.18
36.58
34.27
30.32
24.13
15.62
5.30
-5.86
-16.83
-26.83
-35.59
-43.40
-50.99
-59.28
-69.10
-80.94
-94.66
-109.22
-122.65
-132.32
-135.51
-130.22
-115.84
-93.47
-65.55
-35.21
-5.38
21.77
45.07
64.12
78.91
89.47
95.85
98.17
96.83
92.67
86.77
80.31
74.18
68.81
64.16
59.90
55.66
51.34
47.12
43.33
40.24
37.78
35.45
32.44
27.90
21.29
12.59
2.32
-8.69
-19.59
-29.79
-39.12
-47.83
-56.49
-65.84
-76.58
-89.18
-103.52
-118.58
-132.30
-141.87
-144.38
-137.71
-121.32
-96.50
-66.03
-33.38
-1.77
26.52
50.38
69.59
84.37
94.99
101.60
104.30
103.43
99.64
93.90
87.28
80.70
74.73
69.53
64.98
60.90
57.12
53.57
50.18
46.87
43.45
39.74
35.50
30.48
24.41
17.06
8.41
-1.37
-11.78
-22.22
-32.16
-41.37
-50.02
-58.65
-67.97
-78.69
-91.26
-105.55
-120.61
-134.54
-144.73
-148.35
-143.18
-128.33
-104.69
-74.69
-41.69
-9.04
20.62
45.80
65.99
81.36
92.29
99.18
102.35
102.16
99.13
94.03
87.75
81.19
75.08
69.84
65.59
62.20
59.43
56.98
54.54
51.89
48.81
45.13
40.68
35.34
29.01
21.64
13.25
3.98
-5.95
-16.21
-26.48
-36.50
-46.11
-55.32
-64.25
-73.25
-82.81
-93.54
-105.85
-119.59
-133.67
-145.90
-153.33
-153.06
-143.16
-123.50
-95.81
-63.28
-29.51
2.40
30.45
53.79
72.35
86.34
95.99
101.46
103.05
101.31
97.04
91.20
84.68
78.18
72.18
66.93
62.56
59.09
56.39
54.25
52.31
50.16
47.47
43.98
39.61
34.37
28.31
21.48
13.90
5.60
-3.37
-12.89
-22.71
-32.57
-42.20
-51.46
-60.37
-69.22
-78.49
-88.86
-100.80
-114.30
-128.36
-140.93
-149.13
-150.04
-141.65
-123.50
-97.06
-65.21
-31.44
1.03
29.97
54.18
73.37
87.72
97.57
103.28
105.23
103.93
100.07
94.46
87.94
81.25
74.91
69.23
64.34
60.26
56.97
54.34
52.15
50.08
47.73
44.75
40.94
36.25
30.69
24.32
17.10
8.96
-0.09
-9.94
-20.31
-30.80
-41.00
-50.66
-59.74
-68.49
-77.42
-87.21
-98.48
-111.40
-125.26
-138.30
-147.86
-151.01
-145.41
-130.16
-106.17
-75.90
-42.69
-9.85
20.08
45.57
66.04
81.50
92.24
98.64
101.19
100.49
97.28
92.37
86.52
80.35
74.24
68.45
63.14
58.52
54.84
52.23
50.68
49.82
49.03
47.61
44.94
40.79
35.29
28.82
21.79
14.42
6.66
-1.70
-10.81
-20.62
-30.79
-40.84
-50.30
-58.97
-67.02
-74.95
-83.54
-93.56
-105.48
-119.04
-132.96
-144.92
-151.97
-151.31
-141.20
-121.59
-94.21
-62.04
-28.52
3.38
31.61
55.16
73.79
87.66
97.10
102.50
104.30
103.16
99.82
95.12
89.79
84.42
79.38
74.92
71.25
68.54
66.93
66.39
66.61
67.03
66.95
65.77
63.19
59.26
54.37
48.98
43.42
37.83
32.08
25.96
19.33
12.20
4.78
-2.65
-9.82
-16.71
-23.51
-30.55
-38.10
-46.22
-54.69
-63.07
-70.97
-78.15
-84.69
-90.93
-97.44
-104.91
-113.90
-124.64
-136.66
-148.52
-157.84
-161.71
-157.53
-143.90
-121.21
-91.62
-58.40
-25.01
5.80
32.39
54.14
71.08
83.46
91.52
95.53
95.91
93.31
88.59
82.67
76.35
70.19
64.59
59.79
55.91
53.01
50.98
49.50
48.13
46.40
43.90
40.46
36.07
30.78
24.62
17.54
9.43
0.24
-9.93
-20.76
-31.78
-42.44
-52.34
-61.35
-69.74
-78.14
-87.44
-98.40
-111.29
-125.42
-138.96
-149.13
-152.82
-147.61
-132.50
-108.40
-77.90
-44.48
-11.58
18.13
43.15
62.97
77.70
87.76
93.62
95.77
94.77
91.24
85.94
79.65
73.12
66.93
61.48
56.94
53.22
50.12
47.42
44.95
42.64
40.41
38.09
35.31
31.60
26.48
19.67
11.21
1.50
-8.86
-19.24
-29.14
-38.36
-46.97
-55.23
-63.65
-72.81
-83.34
-95.63
-109.49
-123.79
-136.39
-144.44
-145.14
-136.60
-118.56
-92.57
-61.47
-28.72
2.63
30.37
53.34
71.22
84.15
92.46
96.57
97.01
94.48
89.88
84.17
78.20
72.52
67.35
62.61
58.10
53.74
49.63
46.04
43.25
41.25
39.62
37.56
34.05
28.33
20.12
9.87
-1.45
-12.65
-22.87
-31.78
-39.74
-47.61
-56.42
-67.10
-80.06
-94.93
-110.37
-124.11
-133.32
-135.27
-128.20
-111.86
-87.72
-58.50
-27.44
2.56
29.48
52.27
70.66
84.73
94.62
100.41
102.29
100.63
96.18
89.94
83.02
76.38
70.61
65.86
61.92
58.43
55.10
51.85
48.72
45.81
43.01
39.96
36.10
30.82
23.70
14.70
4.18
-7.22
-18.71
-29.68
-39.78
-49.04
-57.87
-66.99
-77.25
-89.40
-103.69
-119.40
-134.70
-146.77
-152.43
-149.08
-135.61
-112.76
-83.01
-49.78
-16.51
14.16
40.65
62.40
79.40
91.87
100.03
104.12
104.51
101.80
96.89
90.77
84.44
78.61
73.56
69.23
65.33
61.61
58.00
54.63
51.67
49.12
46.66
43.65
39.33
33.11
24.77
14.62
3.28
-8.46
-19.94
-30.73
-40.72
-50.04
-59.08
-68.43
-78.84
-90.99
-105.08
-120.44
-135.27
-146.73
-151.67
-147.50
-133.09
-109.22
-78.38
-44.08
-9.84
21.56
48.48
70.32
87.14
99.26
106.99
110.63
110.56
107.40
101.97
95.28
88.32
81.85
76.28
71.62
67.64
63.99
60.41
56.84
53.38
50.11
46.96
43.56
39.25
33.34
25.38
15.38
3.87
-8.29
-20.19
-31.21
-41.12
-50.14
-58.83
-67.92
-78.25
-90.42
-104.58
-119.92
-134.54
-145.53
-149.67
-144.37
-128.64
-103.55
-71.94
-37.59
-4.07
25.99
51.30
71.58
87.12
98.24
105.19
108.18
107.60
104.21
98.96
92.87
86.67
80.73
75.08
69.56
64.10
58.77
53.89
49.73
46.47
43.92
41.51
38.43
33.81
27.02
17.92
6.95
-5.01
-16.88
-27.79
-37.34
-45.70
-53.58
-61.98
-71.88
-83.95
-98.20
-113.69
-128.46
-139.68
-144.35
-140.10
-126.05
-103.17
-74.00
-41.90
-10.13
18.91
43.84
64.20
79.95
91.23
98.14
100.90
99.97
96.14
90.43
83.91
77.41
71.39
65.94
60.92
56.24
51.98
48.43
45.90
44.44
43.62
42.52
40.02
35.07
27.07
16.05
2.67
-11.96
-26.63
-40.36
-52.76
-64.23
-75.88
-89.22
-105.43
-124.58
-145.03
-163.45
-175.62
-177.79
-168.14
-147.66
-119.99
-90.39
-64.08
-44.83
-34.37
-32.32
-36.79
-44.85
-53.12
-58.43
-58.64
-53.46
-44.65
-35.20
-27.77
-23.19
-19.91
-14.83
-5.06
10.58
31.09
54.00
76.72
97.24
114.27
126.68
133.53
134.36
129.77
121.49
111.78
102.45
94.11
86.27
77.80
67.58
54.72
38.56
18.96
-3.05
-24.72
-41.91
-50.34
-47.66
-34.67
-15.15
5.85
24.21
38.16
48.27
56.27
63.64
70.83
77.14
81.30
81.93
77.87
68.45
53.80
35.27
15.44
-2.42
-15.45
-22.19
-23.12
-20.19
-15.94
-12.45
-10.80
-11.03
-12.54
-14.50
-16.21
-17.38
-18.30
-19.85
-23.33
-29.97
-40.36
-54.18
-70.14
-86.60
-102.03
-115.37
-125.82
-132.47
-134.00
-128.82
-115.70
-94.45
-66.32
-33.90
-0.42
31.07
58.40
80.50
97.20
108.73
115.27
116.76
113.11
104.65
92.38
77.97
63.25
49.55
37.29
26.07
15.16
4.19
-6.56
-16.20
-23.70
-28.39
-30.17
-29.52
-27.38
-24.93
-23.45
-23.90
-26.66
-31.16
-36.07
-39.90
-41.86
-42.39
-43.10
-45.91
-52.11
-61.55
-72.76
-83.42
-91.12
-93.82
-89.92
-78.39
-58.99
-32.77
-2.18
29.29
58.16
82.09
100.49
114.16
124.26
131.38
135.30
135.48
131.89
125.35
117.16
108.41
99.57
90.87
82.94
77.22
75.43
78.46
85.38
93.53
99.52
100.66
95.86
85.63
71.43
55.05
38.28
22.92
10.61
2.31
-2.44
-5.67
-10.39
-19.29
-33.39
-51.39
-70.09
-85.54
-94.36
-94.82
-87.05
-72.90
-55.13
-36.58
-19.38
-4.62
7.48
17.12
24.31
28.67
29.67
27.07
21.36
13.78
5.93
-0.80
-5.68
-8.82
-10.80
-12.23
-13.37
-13.98
-13.65
-12.19
-10.01
-8.09
-7.71
-9.90
-14.98
-22.45
-31.20
-39.96
-47.89
-54.74
-60.93
-67.16
-74.15
-82.40
-92.06
-102.91
-114.24
-124.71
-132.35
-134.89
-130.35
-117.71
-97.38
-71.18
-41.81
-12.09
15.66
39.93
59.95
75.42
86.24
92.48
94.44
92.76
88.42
82.62
76.50
70.86
66.02
61.83
57.90
53.90
49.80
45.88
42.58
40.13
38.28
36.30
33.19
28.08
20.66
11.30
0.91
-9.50
-19.15
-27.82
-35.85
-43.93
-52.84
-63.21
-75.25
-88.62
-102.33
-114.70
-123.61
-126.88
-122.88
-111.04
-92.09
-67.90
-40.99
-13.92
11.19
32.92
50.55
63.85
72.89
77.92
79.34
77.69
73.67
68.07
61.71
55.29
49.28
43.89
39.07
34.67
30.60
26.88
23.61
20.84
18.41
15.88
12.66
8.15
2.05
-5.52
-14.01
-22.67
-30.77
-37.92
-44.12
-49.73
-55.36
-61.70
-69.31
-78.42
-88.65
-98.87
-107.22
-111.49
-109.72
-100.81
-84.96
-63.56
-38.78
-12.92
12.05
34.70
53.99
69.19
79.80
85.63
86.97
84.58
79.55
73.00
65.86
58.69
51.83
45.47
39.83
35.16
31.66
29.34
27.93
26.91
25.58
23.24
19.35
13.68
6.39
-2.00
-10.73
-19.04
-26.39
-32.71
-38.44
-44.46
-51.80
-61.18
-72.64
-85.25
-97.18
-106.13
-109.88
-106.97
-97.05
-80.90
-60.17
-36.93
-13.23
9.15
28.85
44.85
56.60
63.96
67.19
66.93
63.97
59.17
53.29
46.94
40.61
34.62
29.23
24.56
20.72
17.69
15.37
13.53
11.77
9.58
6.38
1.80
-4.30
-11.68
-19.78
-27.96
-35.66
-42.69
-49.36
-56.37
-64.57
-74.51
-85.97
-97.69
-107.57
-113.21
-112.60
-104.73
-89.91
-69.51
-45.59
-20.36
4.17
26.35
44.93
59.13
68.61
73.54
74.49
72.33
68.00
62.36
56.10
49.69
43.40
37.40
31.79
26.64
22.13
18.47
15.81
14.10
12.92
11.54
9.15
5.13
-0.58
-7.55
-15.01
-22.30
-29.22
-36.15
-43.87
-53.14
-64.26
-76.79
-89.55
-100.79
-108.55
-110.99
-106.77
-95.36
-77.25
-53.95
-27.80
-1.51
22.48
42.40
57.44
67.68
73.72
76.33
76.14
73.67
69.37
63.83
57.77
51.93
46.89
42.91
39.96
37.79
36.15
34.80
33.52
31.99
29.70
26.07
20.63
13.30
4.44
-5.24
-14.97
-24.28
-33.22
-42.33
-52.49
-64.51
-78.63
-94.27
-109.92
-123.39
-132.27
-134.58
-129.33
-116.80
-98.41
-76.42
-53.31
-31.39
-12.47
2.15
11.67
15.76
14.60
8.86
-0.29
-11.45
-23.25
-34.66
-45.05
-54.22
-62.10
-68.67
-73.83
-77.47
-79.58
-80.28
-79.75
-78.16
-75.71
-72.73
-69.83
-67.84
-67.31
-68.17
-69.43
-69.61
-67.49
-63.01
-57.44
-52.90
-51.27
-53.07
-57.05
-60.63
-60.93
-55.86
-44.53
-27.08
-4.19
23.17
53.64
85.24
115.41
141.44
161.30
174.46
181.90
185.69
187.92
189.93
191.88
193.21
193.30
191.97
189.61
186.69
183.32
179.04
173.18
165.32
155.77
145.35
134.90
124.61
113.80
101.32
86.37
69.19
51.08
33.73
18.29
4.64
-8.56
-23.09
-40.17
-59.63
-79.79
-97.90
-111.02
-116.81
-114.10
-102.94
-84.42
-60.40
-33.15
-5.18
21.02
43.31
60.24
71.34
77.13
78.72
77.31
73.81
68.69
62.17
54.60
46.58
38.84
32.04
26.44
22.00
18.51
15.74
13.49
11.46
9.04
5.41
-0.14
-7.83
-17.09
-26.82
-35.80
-43.37
-49.75
-55.92
-63.16
-72.36
-83.49
-95.31
-105.72
-112.15
-112.34
-104.85
-89.43
-67.01
-39.46
-9.13
21.53
50.29
75.22
94.80
107.98
114.35
114.23
108.73
99.49
88.33
76.98
66.88
59.15
54.56
53.45
55.58
60.15
66.05
72.32
78.55
84.82
91.18
96.97
100.46
99.17
91.02
75.37
53.74
29.29
5.53
-15.22
-32.82
-49.06
-66.41
-86.41
-108.41
-129.44
-145.06
-150.93
-144.20
-124.34
-93.05
-53.52
-9.72
34.11
73.63
104.64
123.65
128.84
120.82
102.84
79.99
57.68
39.98
28.57
22.63
19.54
16.14
9.65
-1.53
-17.59
-37.35
-58.41
-77.73
-92.34
-100.23
-100.94
-95.64
-86.63
-76.40
-66.80
-58.50
-51.30
-44.73
-38.81
-34.25
-32.19
-33.55
-38.21
-44.72
-50.37
-51.71
-45.38
-29.03
-2.02
34.13
75.90
118.55
157.40
189.11
212.42
227.96
237.33
242.00
242.47
238.20
228.17
211.81
189.51
162.94
134.63
107.42
83.78
65.15
51.72
42.33
34.97
27.24
17.24
4.01
-12.31
-30.80
-50.31
-69.98
-89.42
-108.57
-127.37
-145.40
-161.98
-176.48
-188.84
-199.89
-211.20
-224.50
-240.74
-259.29
-277.70
-292.22
-298.87
-294.73
-278.90
-252.71
-219.15
-181.81
-143.84
-107.44
-73.90
-44.10
-18.91
0.74
14.18
21.48
23.68
22.50
19.77
16.90
14.61
13.03
12.10
11.78
12.13
13.19
14.77
16.38
17.32
16.90
14.61
10.28
4.03
-3.75
-12.47
-21.49
-30.22
-38.29
-45.74
-53.04
-61.07
-70.85
-83.09
-97.61
-112.91
-126.21
-133.97
-133.03
-121.59
-100.03
-70.80
-37.65
-4.50
25.55
50.72
70.34
84.44
93.25
97.00
96.02
91.01
83.08
73.71
64.46
56.59
50.85
47.47
46.33
47.08
49.26
52.12
54.57
55.29
53.04
47.24
38.31
27.62
16.96
7.76
0.44
-5.81
-12.61
-21.74
-34.41
-50.86
-70.19
-90.45
-108.87
-122.17
-127.23
-121.78
-105.16
-78.67
-45.48
-9.73
24.44
53.98
77.26
94.02
104.76
110.28
111.35
108.69
103.17
95.79
87.60
79.42
71.73
64.71
58.35
52.72
47.91
43.98
40.69
37.44
33.38
27.75
20.14
10.77
0.33
-10.27
-20.26
-29.36
-37.81
-46.32
-55.79
-67.07
-80.58
-96.02
-112.13
-126.58
-136.33
-138.29
-130.22
-111.58
-83.83
-50.15
-14.52
19.34
48.85
72.77
90.91
103.60
111.21
113.97
112.18
106.52
98.09
88.34
78.61
69.80
62.19
55.51
49.31
43.36
37.77
32.87
28.93
25.81
22.85
19.13
13.73
6.20
-3.29
-14.10
-25.40
-36.50
-47.04
-57.15
-67.37
-78.56
-91.57
-106.67
-123.08
-138.61
-150.00
-153.74
-147.12
-129.15
-100.80
-64.64
-24.13
17.09
55.67
88.67
113.78
129.60
135.94
134.02
126.12
115.05
103.25
92.28
82.58
73.73
64.90
55.30
44.58
33.06
21.63
11.61
4.30
0.59
0.60
3.57
8.07
12.40
15.05
15.06
12.08
6.16
-2.54
-14.01
-28.41
-45.88
-66.17
-88.37
-110.69
-130.55
-144.83
-150.51
-145.30
-128.36
-100.63
-64.79
-24.81
14.93
50.59
79.64
101.13
115.39
123.58
126.90
126.40
122.84
117.00
109.79
102.30
95.50
89.96
85.79
82.72
80.47
78.91
77.92
77.07
75.32
71.16
63.08
50.37
33.55
14.43
-4.60
-21.23
-33.97
-42.34
-46.80
-48.45
-48.88
-49.89
-53.31
-60.54
-72.06
-87.09
-103.64
-118.95
-130.19
-135.05
-132.11
-120.80
-101.34
-74.69
-42.68
-8.01
25.98
56.01
79.70
96.10
105.66
109.81
110.09
107.60
102.77
95.61
86.12
74.58
61.76
48.81
37.14
28.34
23.91
24.92
31.46
42.08
53.68
61.99
62.67
52.86
32.60
5.28
-23.09
-45.83
-57.99
-58.21
-48.97
-35.19
-21.92
-12.20
-6.11
-1.40
5.04
15.58
31.12
51.29
75.04
101.23
128.67
155.90
180.91
201.31
214.69
219.10
213.46
197.75
173.08
141.65
106.63
71.75
40.45
15.00
-4.19
-18.50
-30.33
-41.96
-54.64
-68.43
-82.76
-97.12
-111.59
-126.60
-142.30
-158.12
-172.66
-184.45
-192.81
-198.38
-203.06
-209.19
-218.56
-231.46
-246.43
-260.38
-269.33
-269.33
-257.60
-233.32
-198.09
-155.54
-110.39
-67.16
-29.12
2.17
26.61
44.86
57.75
65.94
70.02
70.72
69.03
66.08
62.85
59.88
57.16
54.34
50.97
46.75
41.67
35.87
29.51
22.62
15.06
6.64
-2.70
-12.78
-23.12
-33.12
-42.30
-50.61
-58.64
-67.52
-78.56
-92.49
-108.78
-125.18
-138.03
-143.25
-137.63
-120.02
-91.74
-56.17
-17.67
19.63
52.69
79.80
100.32
114.29
122.11
124.40
122.06
116.25
108.30
99.42
90.56
82.26
74.70
67.91
61.98
57.14
53.62
51.49
50.32
49.20
46.94
42.51
35.42
25.92
14.93
3.57
-7.19
-16.93
-25.90
-34.93
-45.26
-58.14
-74.34
-93.50
-113.79
-131.88
-143.59
-145.04
-133.93
-110.44
-77.31
-38.99
-0.36
34.52
63.20
84.77
99.43
107.79
110.59
108.63
102.98
95.01
86.33
78.32
71.79
66.76
62.60
58.52
54.05
49.34
45.08
42.03
40.51
40.00
39.26
36.65
30.94
21.75
9.80
-3.36
-16.02
-26.97
-35.94
-43.69
-51.70
-61.54
-74.30
-90.07
-107.52
-123.94
-135.74
-139.30
-132.09
-113.43
-84.84
-49.56
-11.74
24.74
57.05
83.64
103.94
117.96
125.85
127.89
124.66
117.15
106.86
95.67
85.22
76.51
69.70
64.28
59.55
55.05
50.71
46.84
44.22
43.13
43.01
42.41
39.58
33.29
23.32
10.55
-3.43
-16.01
-25.42
-31.38
-35.13
-38.65
-43.65
-51.05
-61.02
-73.13
-84.68
-92.47
-93.29
-84.65
-65.36
-35.77
2.05
44.39
87.09
128.74
169.07
208.01
244.55
276.31
300.63
315.73
321.22
306.35
267.10
207.14
136.98
68.13
7.39
-43.36
-84.64
-117.59
-143.24
-160.99
-171.52
-177.35
-182.26
-189.96
-202.82
-219.67
-237.31
-251.83
-258.12
-252.36
-233.16
-199.50
-156.49
-111.89
-72.94
-44.10
-25.39
-11.83
2.99
23.46
49.59
78.11
103.78
122.74
133.51
136.60
133.69
125.99
113.86
97.52
77.54
55.57
34.01
14.74
-1.31
-13.80
-22.62
-27.71
-29.28
-27.68
-23.99
-19.58
-15.78
-13.35
-12.39
-12.75
-14.45
-17.79
-23.18
-30.66
-39.62
-49.02
-57.90
-65.71
-72.45
-78.52
-84.57
-91.39
-99.73
-109.77
-120.62
-130.10
-135.13
-132.65
-120.88
-100.06
-72.42
-41.29
-9.88
19.69
46.58
70.74
92.15
110.27
124.14
132.80
135.88
133.84
127.85
119.31
109.43
99.02
88.54
78.26
68.36
58.92
49.91
41.24
32.94
25.16
18.21
12.25
7.14
2.35
-2.75
-8.55
-15.00
-21.57
-27.75
-33.33
-38.63
-44.33
-51.12
-59.37
-69.04
-79.82
-91.22
-102.56
-112.69
-119.83
-121.71
-116.23
-102.24
-80.26
-52.42
-21.87
8.28
35.72
59.23
78.27
92.55
101.69
105.42
104.03
98.54
90.60
81.91
73.60
66.05
59.04
52.36
46.07
40.66
36.62
34.11
32.71
31.65
30.10
27.53
23.72
18.66
12.34
4.71
-4.13
-13.80
-23.59
-32.70
-40.71
-47.84
-55.01
-63.36
-73.54
-84.99
-95.84
-103.23
-104.27
-97.01
-81.11
-57.96
-30.14
-0.67
27.76
53.22
74.53
91.18
103.06
110.31
113.29
112.51
108.63
102.33
94.31
85.31
76.18
67.79
60.91
55.93
52.67
50.33
47.76
43.84
37.92
30.09
21.06
11.85
3.25
-4.44
-11.55
-18.80
-27.01
-36.85
-48.63
-62.36
-77.57
-93.28
-107.88
-119.32
-125.42
-124.48
-115.84
-100.11
-79.11
-55.31
-31.24
-8.99
10.10
25.35
36.66
44.22
48.43
49.66
48.27
44.58
38.92
31.80
23.92
16.14
9.30
3.98
0.35
-1.90
-3.39
-4.89
-7.06
-10.34
-14.94
-20.80
-27.69
-35.24
-42.95
-50.37
-57.24
-63.67
-70.25
-77.78
-86.87
-97.36
-108.06
-116.76
-120.83
-118.03
-107.22
-88.81
-64.55
-37.01
-8.92
17.45
40.47
59.22
73.40
83.09
88.69
90.78
90.02
87.06
82.47
76.71
70.13
63.00
55.56
48.10
40.99
34.65
29.41
25.41
22.44
19.85
16.77
12.31
5.92
-2.42
-12.18
-22.47
-32.36
-41.27
-49.15
-56.53
-64.28
-73.30
-84.06
-96.31
-108.83
-119.57
-126.05
-125.97
-117.86
-101.51
-78.18
-50.21
-20.48
8.24
33.88
55.29
72.10
84.47
92.75
97.27
98.35
96.37
91.89
85.69
78.63
71.40
64.44
57.89
51.71
45.89
40.59
36.00
32.29
29.36
26.75
23.75
19.61
13.77
6.11
-3.04
-13.03
-23.10
-32.64
-41.31
-49.11
-56.35
-63.64
-71.79
-81.57
-93.38
-106.78
-120.26
-131.35
-137.15
-135.20
-124.32
-104.97
-79.13
-49.61
-19.33
9.34
34.82
56.25
73.29
85.83
94.01
98.11
98.53
95.87
90.77
83.96
76.18
68.10
60.25
52.98
46.46
40.68
35.61
31.18
27.38
24.19
21.46
18.82
15.67
11.39
5.55
-1.89
-10.54
-19.71
-28.72
-37.17
-44.97
-52.38
-59.83
-67.77
-76.64
-86.77
-98.12
-110.04
-121.09
-129.02
-131.35
-126.03
-112.20
-90.51
-63.04
-32.64
-2.17
26.11
50.80
71.24
87.27
98.94
106.42
109.96
109.98
107.09
102.03
95.63
88.68
81.78
75.32
69.49
64.27
59.56
55.19
51.04
47.03
43.12
39.25
35.24
30.78
25.44
18.86
10.84
1.54
-8.61
-18.98
-29.03
-38.43
-47.16
-55.52
-63.98
-73.08
-83.33
-95.02
-107.94
-121.12
-132.74
-140.32
-141.32
-133.99
-117.93
-94.32
-65.54
-34.53
-4.02
23.90
47.97
67.60
82.61
93.11
99.38
101.83
101.04
97.63
92.32
85.79
78.77
71.92
65.73
60.48
56.16
52.54
49.32
46.17
42.87
39.28
35.30
30.80
25.65
19.69
12.85
5.16
-3.21
-11.99
-20.91
-29.73
-38.29
-46.54
-54.53
-62.42
-70.54
-79.35
-89.27
-100.45
-112.38
-123.68
-132.20
-135.44
-131.29
-118.68
-97.98
-71.00
-40.42
-9.22
20.07
45.65
66.61
82.72
94.17
101.31
104.55
104.27
100.98
95.33
88.14
80.33
72.73
65.90
60.08
55.18
50.95
47.14
43.57
40.15
36.85
33.53
30.01
25.99
21.19
15.37
8.44
0.49
-8.25
-17.43
-26.74
-35.92
-44.88
-53.62
-62.32
-71.32
-81.09
-92.04
-104.40
-118.00
-131.88
-144.20
-152.49
-154.31
-147.98
-133.13
-110.87
-83.47
-54.10
-25.87
-1.22
18.33
32.21
40.62
44.29
44.28
41.73
37.00
30.21
21.30
10.38
-2.12
-15.44
-28.50
-40.11
-49.14
-55.47
-59.25
-60.79
-60.40
-58.52
-55.80
-52.99
-50.74
-44.72
-32.02
-11.41
15.75
46.05
75.40
100.57
119.81
132.92
140.85
144.43
144.87
142.60
137.35
128.32
114.88
97.18
76.62
55.74
36.95
21.93
10.77
3.57
-1.03
-4.89
-9.38
-14.41
-18.21
-18.49
-13.34
-2.47
12.43
27.73
39.27
43.66
39.86
29.56
16.22
3.55
-5.93
-11.56
-14.36
-15.81
-17.16
-18.43
-18.60
-16.66
-12.50
-7.27
-2.79
-0.92
-2.61
-8.29
-17.28
-27.83
-37.48
-43.65
-44.19
-38.01
-25.58
-6.27
17.09
39.37
55.63
63.55
63.93
59.19
51.72
43.01
34.01
24.64
14.85
4.75
-5.62
-16.48
-28.05
-39.89
-52.16
-62.29
-67.54
-65.79
-56.57
-41.66
-24.75
-10.23
-1.30
1.01
-1.62
-6.44
-10.81
-13.40
-14.73
-16.92
-23.13
-35.61
-56.25
-85.15
-120.18
-156.68
-188.21
-208.21
-212.24
-199.46
-173.09
-139.52
-106.17
-79.66
-64.07
-60.17
-65.65
-76.14
-86.61
-92.58
-91.15
-81.15
-63.18
-39.16
-11.82
15.76
40.44
59.62
71.87
77.35
78.24
78.19
81.18
90.03
105.17
124.23
142.89
156.47
161.68
157.83
146.79
131.91
116.57
103.10
92.35
84.17
77.89
72.72
67.83
62.36
55.49
46.73
36.10
24.22
12.03
0.59
-9.32
-17.25
-23.14
-27.03
-28.86
-28.26
-24.63
-17.59
-7.48
4.22
15.24
23.40
27.60
28.44
27.84
27.99
30.10
33.82
37.59
39.68
39.28
36.84
33.58
30.56
27.92
24.90
20.61
14.82
8.63
4.01
2.97
6.65
14.73
25.38
35.57
41.85
41.02
31.53
14.24
-7.63
-29.39
-46.99
-58.80
-66.36
-73.38
-83.71
-99.28
-119.08
-139.85
-157.55
-168.83
-171.50
-164.53
-148.02
-123.42
-93.73
-63.13
-35.57
-13.29
3.76
17.14
28.20
36.69
40.75
38.64
30.56
19.31
9.28
3.86
3.75
6.85
9.68
9.76
6.85
2.71
-0.48
-1.45
-0.32
1.84
4.20
6.62
9.60
13.63
18.61
23.69
27.74
29.84
29.91
28.62
27.01
25.89
25.42
24.87
23.09
19.46
14.73
11.48
13.51
24.23
44.84
73.76
106.52
137.27
160.69
173.77
176.56
171.79
163.35
154.65
148.46
145.95
146.87
150.00
153.96
157.79
161.23
164.42
167.44
171.50
177.55
185.50
193.24
196.95
191.99
174.82
144.47
103.48
59.31
21.64
-0.38
-1.04
21.05
62.79
117.84
177.78
222.24
234.13
205.41
142.46
63.10
-12.74
-72.70
-114.16
-141.09
-158.93
-169.43
-171.87
-163.40
-146.13
-124.71
-104.72
-89.84
-80.98
-76.96
-74.79
-72.57
-70.54
-71.26
-77.38
-91.42
-112.44
-137.36
-162.76
-185.57
-204.34
-218.60
-228.29
-228.79
-215.97
-188.77
-150.92
-109.59
-71.73
-41.98
-22.58
-14.67
-18.63
-34.33
-60.30
-92.71
-125.43
-151.37
-164.69
-162.39
-145.17
-119.54
-91.54
-68.05
-54.87
-54.44
-64.62
-79.13
-89.73
-89.32
-74.76
-48.30
-17.63
7.59
19.88
17.18
3.53
-13.28
-25.76
-30.01
-26.73
-21.24
-19.66
-24.91
-34.89
-43.97
-46.79
-41.99
-33.17
-25.98
-25.44
-32.94
-46.16
-61.44
-76.41
-91.02
-106.33
-122.38
-135.86
-142.14
-137.69
-122.07
-97.95
-69.25
-38.79
-7.11
26.82
65.34
108.36
152.70
193.16
225.45
248.27
263.68
275.74
288.40
305.95
329.85
358.88
389.68
418.85
444.08
464.60
480.75
479.15
451.32
395.45
318.36
231.98
147.92
73.37
11.08
-39.12
-78.54
-106.39
-122.07
-124.35
-116.11
-101.43
-85.31
-73.09
-69.40
-76.75
-92.69
-112.07
-129.33
-141.28
-147.53
-149.57
-148.72
-146.38
-143.20
-137.79
-129.22
-118.69
-110.27
-108.31
-114.89
-128.19
-143.19
-154.88
-160.20
-159.52
-155.31
-149.98
-143.72
-134.91
-124.52
-112.51
-100.51
-89.92
-80.18
-68.50
-51.76
-28.89
-2.26
23.30
43.14
54.43
56.99
52.29
41.96
27.10
8.94
-10.67
-28.31
-40.13
-43.85
-39.43
-28.66
-13.69
4.36
25.79
51.61
82.14
116.27
150.89
181.81
204.82
216.69
215.98
203.66
182.98
158.56
134.62
113.09
92.98
71.25
44.72
12.22
-24.69
-62.65
-98.49
-130.70
-159.49
-185.27
-206.92
-221.46
-225.19
-216.06
-195.43
-167.87
-139.22
-114.59
-97.07
-87.96
-87.56
-95.26
-108.95
-124.18
-134.62
-134.06
-118.91
-89.34
-48.60
-1.15
48.69
96.76
138.34
168.17
181.93
178.74
162.57
141.03
122.17
111.57
111.35
121.48
141.41
170.12
204.37
237.00
257.75
257.51
233.86
193.43
149.40
114.73
95.47
88.37
83.86
72.30
49.27
16.63
-20.12
-55.89
-88.30
-117.37
-143.71
-167.19
-187.16
-203.76
-219.12
-236.27
-256.97
-279.73
-299.70
-310.68
-307.94
-290.31
-260.32
-223.22
-184.68
-148.88
-117.85
-91.97
-71.57
-58.07
-53.59
-58.80
-71.25
-84.79
-91.42
-84.95
-63.61
-30.42
9.65
53.51
102.28
158.82
222.87
288.02
342.76
376.04
382.50
364.46
329.73
287.62
245.25
206.24
171.36
139.92
111.71
87.20
67.62
54.22
47.32
45.06
43.89
40.23
31.37
17.68
1.77
-12.78
-22.94
-27.33
-27.10
-25.03
-24.03
-25.50
-28.38
-29.97
-26.97
-17.29
-1.06
18.26
35.05
43.48
39.35
22.03
-7.94
-49.39
-100.88
-155.43
-202.78
-231.12
-232.26
-205.46
-157.43
-99.52
-42.93
5.12
43.10
73.12
98.06
118.37
131.35
131.77
116.93
87.72
49.04
8.12
-29.16
-60.35
-87.07
-113.78
-138.29
-160.43
-178.38
-187.55
-182.95
-163.50
-134.07
-104.27
-84.00
-83.06
-98.51
-121.31
-140.82
-148.88
-142.66
-124.40
-98.81
-64.57
-25.02
17.28
59.88
99.73
133.13
156.23
166.86
165.11
153.05
133.31
109.76
85.10
60.36
35.49
10.18
-15.25
-39.36
-59.84
-75.14
-81.20
-73.52
-51.50
-18.21
20.69
59.22
93.27
121.39
143.67
161.36
174.86
183.42
185.86
181.54
170.78
155.31
139.19
123.62
108.97
94.19
77.06
55.19
26.89
-8.62
-51.40
-100.91
-151.66
-197.57
-231.89
-248.45
-243.71
-218.94
-180.54
-138.22
-101.35
-75.64
-62.14
-57.95
-58.90
-61.96
-66.22
-71.94
-79.26
-87.16
-93.66
-97.37
-98.05
-96.71
-94.84
-93.88
-94.03
-94.31
-93.63
-89.55
-81.03
-68.39
-53.18
-37.37
-22.90
-10.91
-1.57
5.72
12.02
17.87
23.38
28.11
31.67
33.54
33.54
31.65
27.87
22.06
13.65
2.02
-13.35
-32.26
-54.18
-77.97
-102.12
-124.92
-144.60
-159.54
-168.15
-171.39
-169.22
-161.89
-149.67
-133.49
-114.98
-96.29
-79.62
-66.70
-58.40
-54.45
-54.16
-55.38
-56.25
-55.69
-53.59
-50.20
-45.42
-38.43
-27.76
-12.34
10.56
41.82
80.04
121.56
162.11
198.60
230.19
257.88
283.16
311.13
344.53
383.22
423.64
460.99
491.90
516.12
535.81
554.55
581.77
624.52
685.49
759.97
837.21
904.09
950.19
969.91
930.89
820.23
646.02
437.89
231.03
50.05
-96.42
-209.53
-294.45
-356.23
-390.22
-400.74
-394.90
-383.82
-378.77
-387.82
-412.44
-450.63
-500.01
-551.56
-597.85
-631.12
-646.43
-641.07
-624.33
-599.51
-568.35
-532.94
-492.45
-448.32
-397.27
-340.28
-279.98
-219.85
-160.99
-102.36
-41.75
24.53
95.30
166.94
232.17
283.46
315.23
319.57
294.90
246.60
197.59
160.08
139.87
133.62
137.06
144.04
148.61
147.13
134.88
112.20
82.42
53.24
31.16
18.16
10.69
3.90
-4.05
-11.93
-16.38
-16.67
-13.86
-10.43
-10.06
-16.02
-29.50
-49.18
-72.36
-95.26
-114.80
-127.67
-131.62
-123.38
-104.61
-81.52
-61.66
-50.61
-49.63
-56.74
-68.09
-80.28
-90.97
-99.46
-105.35
-107.77
-106.00
-100.17
-91.90
-83.50
-77.46
-73.38
-69.70
-63.93
-53.23
-35.22
-8.84
24.73
61.71
94.30
114.59
116.70
99.80
68.90
32.96
0.43
-24.64
-43.33
-61.76
-84.28
-111.38
-138.16
-156.82
-160.33
-146.76
-120.23
-88.81
-60.84
-40.30
-27.11
-17.61
-7.63
5.75
22.55
40.99
59.67
75.14
87.40
97.16
105.32
111.62
115.55
115.71
110.99
101.32
87.64
72.32
56.93
42.62
22.87
-6.91
-48.75
-101.19
-159.73
-219.02
-270.52
-312.92
-346.78
-373.35
-393.00
-405.79
-412.02
-411.00
-401.85
-383.63
-356.73
-321.87
-280.61
-234.17
-183.75
-130.12
-73.29
-13.02
50.85
117.19
184.23
249.37
310.04
363.95
409.68
447.19
477.58
502.99
525.91
548.71
571.84
592.55
604.76
600.90
575.78
529.91
470.87
411.18
363.95
337.81
334.00
346.58
364.99
377.86
375.73
352.55
306.05
237.98
153.84
62.28
-26.50
-103.55
-163.89
-207.81
-239.82
-265.59
-288.65
-308.65
-322.18
-325.73
-318.42
-302.74
-282.58
-260.14
-233.98
-200.07
-155.53
-101.85
-45.46
5.08
43.68
69.34
85.53
96.88
105.59
110.02
106.45
92.26
68.13
38.19
7.57
-20.24
-44.64
-67.06
-88.96
-110.34
-129.82
-146.03
-158.88
-169.97
-181.44
-194.19
-206.77
-215.63
-216.67
-207.33
-187.85
-160.94
-130.61
-100.46
-72.58
-47.68
-25.72
-6.74
8.51
18.82
23.16
21.46
15.15
7.04
0.40
-2.60
-1.96
0.28
1.95
2.97
6.60
18.45
43.12
81.01
125.91
166.41
189.88
188.19
160.33
111.81
51.32
-12.85
-73.79
-126.19
-165.00
-185.62
-184.27
-160.85
-120.52
-73.00
-29.17
4.00
24.67
35.93
42.65
50.53
63.48
83.12
109.03
139.68
173.89
208.75
239.18
257.72
258.78
240.49
206.04
162.66
111.82
58.30
6.75
-33.22
-63.91
-91.46
-123.29
-161.39
-202.73
-240.32
-264.55
-268.18
-249.18
-212.56
-165.83
-115.88
-66.05
-16.30
34.47
86.11
134.22
171.32
189.68
186.54
164.58
129.71
87.68
42.50
-2.26
-42.27
-71.17
-82.20
-70.25
-35.54
15.35
71.53
122.34
161.75
189.58
209.84
227.01
243.41
257.86
266.80
267.03
258.08
242.86
225.65
209.24
192.80
172.23
142.56
101.08
49.40
-6.86
-60.57
-106.07
-141.40
-168.40
-191.15
-214.03
-240.38
-272.07
-309.46
-351.19
-393.76
-431.64
-458.43
-468.70
-460.40
-435.58
-399.59
-358.66
-317.45
-278.05
-240.81
-205.57
-172.36
-141.62
-113.80
-89.30
-68.85
-53.44
-43.42
-37.03
-29.73
-15.18
11.34
49.61
93.56
134.06
163.67
180.36
187.64
191.32
195.39
199.89
202.25
200.32
194.27
186.40
179.04
173.17
168.26
163.76
160.48
160.27
164.04
169.73
171.99
164.27
142.61
108.58
69.34
34.70
12.64
5.42
8.20
11.37
4.80
-17.76
-56.41
-105.49
-156.20
-199.66
-229.21
-241.56
-237.27
-221.09
-201.45
-188.23
-189.22
-206.08
-232.69
-256.99
-266.17
-251.98
-213.37
-155.47
-86.22
-13.28
56.81
117.72
162.87
187.05
189.54
176.42
159.30
150.21
155.32
171.50
187.91
192.22
177.37
145.10
104.18
65.03
34.17
11.85
-6.21
-24.86
-46.21
-68.99
-90.96
-111.74
-134.37
-163.75
-202.87
-249.60
-296.08
-331.62
-347.77
-342.30
-319.92
-289.34
-258.60
-231.74
-208.75
-187.88
-168.58
-152.71
-143.46
-143.12
-151.28
-164.74
-178.64
-188.25
-190.21
-182.78
-165.51
-138.77
-103.28
-59.93
-9.70
46.08
105.02
163.41
216.69
260.74
293.55
315.90
330.39
339.73
345.05
345.83
341.03
330.54
315.87
299.44
283.12
267.28
250.98
233.01
213.26
193.04
174.52
159.39
148.00
139.31
131.64
123.74
115.27
106.86
99.41
93.52
89.07
85.43
81.85
77.89
73.53
69.19
65.41
62.67
61.21
60.91
61.53
63.06
65.81
70.35
77.15
86.23
97.04
108.84
120.89
132.97
145.53
159.40
175.53
194.84
218.14
246.13
278.89
314.34
348.66
377.00
395.23
401.45
396.24
381.55
359.10
329.55
291.45
243.88
188.05
127.55
66.76
8.60
-46.53
-100.03
-152.64
-205.04
-255.52
-300.69
-337.11
-362.96
-379.05
-388.22
-394.40
-400.50
-411.06
-429.04
-455.38
-488.63
-525.78
-563.67
-599.78
-632.87
-647.51
-631.26
-577.27
-489.40
-380.78
-267.12
-160.89
-69.33
0.21
49.67
78.37
85.39
71.54
41.10
1.82
-37.23
-64.14
-70.81
-55.50
-27.04
1.53
19.22
21.82
12.19
-3.33
-19.03
-32.83
-44.99
-58.34
-73.93
-90.51
-105.70
-116.54
-121.50
-120.82
-116.64
-110.99
-105.97
-101.77
-97.25
-90.72
-80.92
-67.75
-52.12
-35.54
-18.63
-4.09
7.96
18.86
30.49
44.36
60.80
78.99
97.35
114.40
129.28
142.56
155.49
169.49
185.80
205.27
228.27
254.45
282.30
308.88
330.35
342.59
342.64
330.02
307.00
277.74
246.58
216.52
188.56
162.43
137.51
113.77
91.93
72.95
57.13
43.75
31.38
18.63
4.92
-9.37
-23.18
-35.42
-45.48
-53.43
-59.73
-64.81
-68.69
-70.87
-70.64
-67.45
-61.33
-52.83
-42.96
-32.84
-23.35
-15.01
-7.97
-2.09
2.86
7.04
10.50
13.13
14.80
15.46
15.26
14.52
13.57
12.66
11.72
10.49
8.66
6.09
2.98
-0.23
-3.05
-5.23
-6.90
-8.56
-10.76
-13.93
-18.12
-22.91
-27.62
-31.41
-33.55
-33.54
-31.22
-26.73
-20.52
-13.15
-5.23
2.73
10.40
17.58
24.17
30.05
35.10
39.18
42.16
44.02
44.83
44.81
44.21
43.31
42.37
41.62
41.23
41.24
41.52
41.77
41.63
40.83
39.39
37.58
35.80
34.33
33.14
31.83
29.72
26.19
20.87
13.87
5.77
-2.55
-10.08
-16.01
-19.94
-21.91
-22.36
-21.86
-20.91
-19.84
-18.82
-18.03
-17.71
-18.11
-19.43
-21.58
-24.22
-26.88
-29.23
-31.13
-32.71
-34.21
-35.79
-37.43
-38.92
-39.98
-40.36
-39.97
-38.86
-37.26
-35.48
-33.89
-32.77
-32.30
-32.45
-33.01
-33.70
-34.24
-34.52
-34.62
-34.79
-35.33
-36.51
-38.40
-40.82
-43.36
-45.41
-46.37
-45.77
-43.43
-39.46
-34.18
-27.97
-21.16
-14.02
-6.83
0.07
6.26
11.38
15.23
17.85
19.49
20.42
20.89
20.97
20.69
20.09
19.26
18.40
17.62
16.99
16.42
15.80
15.03
14.07
12.92
11.61
10.06
8.23
6.04
3.48
0.66
-2.28
-5.19
-7.93
-10.47
-12.87
-15.27
-17.85
-20.73
-23.94
-27.31
-30.51
-33.06
-34.45
-34.30
-32.47
-29.12
-24.65
-19.55
-14.23
-8.97
-3.86
1.07
5.78
10.12
13.89
16.84
18.83
19.82
19.94
19.43
18.54
17.49
16.38
15.24
13.99
12.62
11.14
9.67
8.32
7.15
6.12
5.08
3.87
2.34
0.48
-1.64
-3.93
-6.27
-8.62
-10.97
-13.36
-15.80
-18.31
-20.88
-23.56
-26.35
-29.25
-32.15
-34.83
-36.91
-37.94
-37.60
-35.73
-32.42
-27.94
-22.62
-16.79
-10.71
-4.65
1.08
6.13
10.15
12.96
14.58
15.26
15.38
15.30
15.27
15.29
15.21
14.80
13.98
12.82
11.59
10.53
9.71
9.03
8.24
7.17
5.88
4.54
3.34
2.25
1.02
-0.69
-3.08
-6.03
-9.19
-12.17
-14.74
-16.96
-19.11
-21.43
-24.10
-27.14
-30.53
-34.15
-37.75
-40.98
-43.28
-44.06
-42.86
-39.55
-34.41
-28.02
-21.06
-14.12
-7.59
-1.67
3.59
8.14
11.90
14.78
16.75
17.86
18.27
18.16
17.72
17.05
16.22
15.29
14.39
13.64
13.11
12.78
12.50
12.14
11.61
10.88
9.99
8.92
7.60
5.89
3.73
1.14
-1.72
-4.67
-7.61
-10.52
-13.46
-16.53
-19.84
-23.48
-27.50
-31.91
-36.56
-41.20
-45.33
-48.37
-49.78
-49.17
-46.45
-41.78
-35.50
-28.04
-19.89
-11.53
-3.49
3.75
9.85
14.65
18.20
20.68
22.35
23.38
23.90
24.00
23.79
23.47
23.25
23.27
23.54
23.98
24.37
24.53
24.31
23.58
22.29
20.47
18.20
15.68
13.09
10.63
8.37
6.24
4.07
1.69
-0.98
-3.92
-6.95
-10.00
-12.98
-15.99
-19.17
-22.67
-26.57
-30.87
-35.42
-39.99
-44.16
-47.41
-49.15
-48.90
-46.43
-41.82
-35.41
-27.64
-19.02
-10.00
-1.06
7.30
14.60
20.53
24.99
28.14
30.25
31.60
32.33
32.46
32.03
31.15
30.07
29.04
28.19
27.53
26.96
26.40
25.80
25.15
24.41
23.46
22.14
20.34
18.09
15.56
13.01
10.61
8.39
6.18
3.73
0.81
-2.67
-6.62
-10.82
-15.05
-19.14
-23.05
-26.90
-30.84
-34.98
-39.23
-43.24
-46.43
-48.14
-47.82
-45.19
-40.27
-33.38
-25.02
-15.79
-6.26
3.00
11.47
18.72
24.48
28.66
31.40
32.98
33.72
33.91
33.72
33.26
32.57
31.76
30.94
30.22
29.63
29.09
28.48
27.69
26.67
25.46
24.15
22.73
21.15
19.32
17.10
14.48
11.53
8.38
5.14
1.87
-1.45
-4.85
-8.35
-11.87
-15.31
-18.61
-21.80
-25.10
-28.72
-32.80
-37.22
-41.46
-44.70
-46.04
-44.76
-40.54
-33.58
-24.54
-14.31
-3.78
6.28
15.43
23.46
30.34
36.10
40.73
44.13
46.21
46.98
46.67
45.76
44.75
44.09
43.91
44.13
44.48
44.76
44.86
44.83
44.71
44.49
44.05
43.31
42.26
41.02
39.77
38.63
37.59
36.49
35.06
33.15
30.77
28.13
25.56
23.33
21.61
20.35
19.36
18.25
16.60
14.05
10.33
5.33
-0.89
-8.05
-15.68
-23.14
-29.87
-35.41
-39.52
-42.19
-43.61
-44.00
-43.60
-42.63
-41.37
-40.34
-40.14
-41.23
-43.80
-47.63
-52.06
-56.22
-59.19
-60.21
-59.22
-56.65
-53.51
-51.08
-50.69
-53.34
-59.59
-69.47
-80.65
-90.48
-96.17
-95.48
-87.51
-72.83
-53.11
-30.67
-7.86
13.33
31.36
45.48
55.64
62.26
65.86
67.03
66.33
64.49
62.34
60.55
59.59
59.50
59.90
60.00
58.97
56.05
50.93
43.84
35.35
25.97
15.98
5.28
-6.66
-20.21
-35.53
-52.25
-69.38
-85.66
-100.03
-111.85
-121.23
-129.06
-136.02
-143.15
-151.86
-163.65
-179.43
-198.37
-217.09
-229.80
-230.20
-212.77
-176.21
-124.12
-63.51
-1.75
55.48
104.47
144.66
177.51
206.31
233.29
259.32
284.20
307.52
328.99
348.39
365.30
369.60
354.68
318.62
265.55
203.54
140.93
83.75
34.94
-4.93
-36.98
-61.58
-79.45
-91.49
-98.69
-102.06
-102.41
-100.29
-95.91
-89.66
-80.77
-69.03
-54.90
-39.38
-23.38
-6.99
10.51
29.94
50.94
71.95
89.26
98.34
95.74
80.74
55.91
25.95
-4.18
-31.52
-54.36
-73.12
-89.55
-106.03
-125.19
-149.39
-180.11
-216.57
-254.44
-285.65
-300.88
-293.06
-260.61
-208.91
-148.73
-92.60
-50.44
-26.74
-19.86
-23.79
-30.81
-34.12
-29.44
-15.56
6.23
33.26
62.55
91.71
119.12
143.62
164.43
181.22
194.31
204.87
214.73
225.43
237.52
250.20
261.79
270.62
275.82
277.59
276.82
274.44
270.80
265.46
257.44
245.49
228.63
206.43
179.06
147.28
112.07
74.50
35.58
-3.66
-42.21
-79.05
-113.31
-144.33
-171.49
-194.06
-210.98
-221.28
-224.77
-222.77
-218.30
-215.30
-217.25
-225.71
-239.56
-255.33
-268.37
-274.28
-270.13
-255.03
-230.18
-198.32
-162.89
-127.13
-93.32
-62.52
-34.68
-9.15
14.97
38.53
62.50
87.88
115.37
144.83
174.86
203.04
226.86
244.87
257.18
265.03
269.71
271.45
269.20
261.42
247.23
227.22
203.35
178.09
153.42
130.28
108.63
87.96
67.77
47.79
28.01
8.75
-9.30
-25.26
-38.60
-49.55
-59.67
-71.60
-87.97
-109.78
-134.88
-157.90
-171.84
-170.98
-153.58
-123.19
-87.86
-57.48
-40.24
-39.76
-53.68
-74.43
-92.27
-98.54
-89.00
-65.46
-34.94
-6.77
11.14
14.97
5.35
-15.28
-44.21
-79.48
-119.19
-159.74
-195.06
-217.94
-223.16
-210.41
-186.14
-159.12
-136.34
-120.53
-110.67
-104.77
-102.30
-104.49
-112.64
-128.46
-150.04
-173.38
-195.05
-214.70
-235.36
-261.50
-296.27
-339.45
-390.42
-444.68
-495.14
-533.70
-553.64
-551.89
-530.20
-494.43
-432.97
-345.38
-239.28
-128.49
-26.95
56.14
117.55
158.58
183.33
197.17
200.83
197.45
189.73
179.92
169.77
160.48
153.06
148.54
148.01
149.91
152.10
153.12
152.68
151.35
150.18
150.31
152.84
158.65
166.62
175.63
184.43
191.73
196.14
196.49
192.47
185.35
177.88
172.60
171.37
174.04
178.15
179.93
176.07
165.39
149.47
131.65
114.95
101.12
90.48
82.95
79.09
80.40
88.48
103.69
124.40
147.29
168.74
186.23
199.00
207.62
213.09
216.17
217.47
217.88
218.79
221.54
226.51
232.43
236.42
234.96
225.38
207.00
181.55
152.50
123.76
98.20
76.91
59.22
43.60
28.65
13.74
-1.23
-16.46
-32.81
-51.50
-73.16
-96.87
-120.09
-139.62
-152.97
-159.21
-158.81
-152.81
-142.19
-127.92
-111.45
-94.76
-79.76
-67.30
-56.72
-46.37
-34.98
-22.82
-11.78
-4.33
-2.02
-4.56
-10.29
-17.37
-24.95
-33.36
-43.53
-55.98
-70.37
-85.49
-99.75
-111.72
-120.52
-125.95
-128.27
-128.02
-125.59
-121.20
-114.96
-107.25
-98.97
-91.39
-85.83
-82.92
-82.28
-82.49
-81.60
-78.00
-71.00
-60.96
-48.89
-35.76
-22.00
-7.41
8.31
25.04
41.71
56.56
67.78
74.34
76.48
75.38
72.21
67.27
59.66
47.92
31.26
10.55
-11.69
-32.27
-48.86
-60.97
-69.86
-77.14
-83.71
-89.08
-91.82
-90.73
-85.73
-78.01
-69.24
-60.62
-51.97
-42.45
-31.39
-18.91
-5.93
6.61
18.52
30.88
45.60
64.95
89.84
118.96
148.89
175.16
193.78
202.62
202.12
194.96
185.48
177.48
172.83
171.25
170.86
169.29
164.67
156.05
139.80
114.82
82.31
45.34
7.70
-27.39
-57.74
-82.12
-99.99
-112.76
-121.21
-126.06
-128.15
-128.24
-126.80
-124.05
-120.22
-115.86
-110.62
-104.57
-98.24
-92.27
-87.12
-82.82
-78.99
-75.06
-70.76
-66.42
-62.59
-59.88
-58.56
-58.31
-58.46
-58.50
-58.44
-58.89
-60.65
-63.88
-67.88
-71.36
-72.97
-72.11
-69.07
-64.70
-59.87
-54.90
-49.50
-43.08
-35.33
-26.42
-16.92
-7.47
1.59
10.22
18.46
26.09
32.57
37.43
40.59
42.74
45.09
48.89
54.76
62.40
70.76
78.64
85.39
91.11
96.43
101.89
107.47
112.52
116.16
117.85
117.59
115.88
113.17
109.53
104.54
97.59
88.27
76.57
62.90
47.85
32.08
16.20
1.00
-12.52
-23.28
-30.44
-33.77
-33.74
-31.38
-27.84
-23.96
-20.05
-16.03
-11.88
-8.04
-5.42
-5.06
-7.61
-12.82
-19.64
-26.57
-32.33
-36.27
-38.39
-39.08
-38.71
-37.48
-35.42
-32.71
-29.77
-27.32
-26.09
-26.49
-28.39
-31.09
-33.59
-34.97
-34.82
-33.44
-31.67
-30.56
-30.96
-33.19
-37.15
-42.44
-48.68
-55.57
-62.90
-70.40
-77.53
-83.58
-87.67
-89.02
-87.12
-81.86
-73.48
-62.62
-50.22
-37.37
-25.20
-14.63
-6.14
0.35
5.44
9.95
14.55
19.34
23.74
26.74
27.39
25.30
20.88
15.27
9.95
6.23
4.89
5.96
8.88
12.84
17.03
20.96
24.45
27.52
30.08
31.69
31.56
28.82
22.91
14.13
3.89
-5.44
-11.18
-11.20
-4.72
7.38
22.62
37.66
49.20
54.94
54.19
48.22
40.13
34.00
33.65
41.13
55.97
75.07
93.76
107.57
113.74
112.09
104.43
93.36
80.94
68.02
54.56
40.35
25.72
11.63
-0.82
-11.22
-20.10
-28.67
-37.95
-48.00
-57.67
-65.01
-68.33
-67.12
-62.46
-56.54
-51.80
-49.96
-51.60
-56.14
-62.38
-69.07
-75.11
-79.48
-81.22
-79.51
-74.14
-65.80
-56.20
-47.45
-41.32
-38.44
-38.25
-39.51
-40.91
-41.58
-40.99
-38.80
-34.55
-27.92
-18.99
-8.52
2.24
12.07
20.30
27.03
32.87
38.43
43.78
48.47
51.78
53.27
52.98
51.41
49.14
46.61
43.88
40.65
36.52
31.17
24.60
17.01
8.75
0.18
-8.23
-15.81
-21.77
-25.19
-25.36
-21.96
-15.26
-6.00
4.84
16.24
27.39
37.72
46.86
54.58
60.83
65.96
70.76
76.21
83.04
91.25
100.07
108.35
115.14
120.10
123.47
125.54
126.30
125.20
121.75
115.99
108.87
101.66
95.19
89.20
82.36
73.08
60.46
44.98
28.20
12.00
-2.44
-15.06
-26.71
-38.36
-50.26
-61.69
-71.37
-78.27
-82.25
-84.04
-84.73
-85.17
-85.70
-86.35
-87.20
-88.50
-90.55
-93.30
-96.24
-98.71
-100.18
-100.45
-99.37
-96.66
-91.83
-84.66
-75.62
-65.79
-56.14
-46.62
-36.02
-22.74
-6.20
12.25
29.65
42.78
49.88
51.35
49.29
46.14
43.52
41.84
40.79
40.00
39.32
38.63
37.40
34.70
29.62
21.96
12.56
3.07
-4.63
-9.20
-10.23
-8.33
-4.79
-1.19
1.03
0.93
-1.69
-6.26
-11.61
-16.36
-19.45
-20.39
-19.48
-17.48
-15.28
-13.51
-12.42
-12.06
-12.38
-13.22
-14.18
-14.47
-12.96
-8.60
-0.99
9.10
19.79
28.80
34.45
36.37
35.65
34.11
33.33
33.95
35.52
37.02
37.52
36.68
34.75
32.17
29.26
26.01
22.22
17.78
12.83
7.70
2.73
-1.96
-6.53
-11.37
-16.88
-23.33
-30.71
-38.75
-46.94
-54.71
-61.35
-66.22
-68.68
-68.21
-64.25
-56.28
-43.78
-26.39
-4.22
21.74
49.43
75.91
97.95
112.80
118.77
115.27
102.67
81.85
54.20
21.78
-12.61
-45.61
-74.35
-97.46
-115.88
-132.20
-149.35
-168.80
-190.13
-211.55
-231.07
-247.57
-260.67
-270.28
-275.28
-273.99
-264.56
-247.01
-224.00
-200.01
-179.30
-163.46
-150.92
-137.10
-117.59
-89.65
-54.11
-14.73
23.87
58.07
86.65
109.92
130.04
148.77
168.06
189.30
213.66
242.13
274.50
309.14
342.06
369.69
380.98
367.97
329.13
271.38
207.52
149.03
107.48
80.10
61.14
45.92
33.54
25.44
20.87
19.63
20.27
20.63
17.84
11.06
0.63
-11.45
-22.98
-32.53
-39.51
-44.71
-49.22
-54.32
-59.59
-64.00
-66.07
-64.93
-60.67
-54.03
-46.49
-39.53
-34.56
-31.74
-30.61
-30.26
-29.84
-28.94
-27.50
-25.93
-24.76
-24.49
-24.91
-25.52
-25.69
-25.08
-23.75
-22.04
-20.53
-19.71
-19.82
-20.61
-21.60
-22.37
-22.68
-22.64
-22.58
-23.03
-24.52
-27.38
-31.60
-36.68
-41.70
-45.52
-47.09
-45.77
-41.55
-34.98
-26.88
-18.11
-9.25
-0.66
7.43
14.78
21.01
25.75
28.78
30.10
29.99
28.84
27.06
24.96
22.74
20.54
18.54
16.86
15.60
14.65
13.73
12.42
10.38
7.47
3.88
0.03
-3.67
-6.98
-10.02
-13.16
-16.89
-21.54
-27.11
-33.28
-39.39
-44.65
-48.21
-49.36
-47.58
-42.70
-34.91
-24.82
-13.35
-1.60
9.43
19.02
26.84
32.99
37.80
41.63
44.69
46.89
47.96
47.60
45.78
42.82
39.35
36.09
33.55
31.82
30.54
29.13
27.06
24.10
20.36
16.14
11.71
7.22
2.64
-2.05
-6.81
-11.55
-16.29
-21.24
-26.68
-32.70
-38.94
-44.46
-47.94
-48.16
-44.53
-37.27
-27.36
-16.05
-4.43
6.82
17.38
27.09
35.66
42.66
47.64
50.37
51.04
50.16
48.41
46.36
44.24
42.00
39.45
36.50
33.30
30.22
27.58
25.52
23.84
22.03
19.55
16.05
11.61
6.61
1.63
-2.86
-6.73
-10.18
-13.68
-17.71
-22.63
-28.50
-35.06
-41.69
-47.56
-51.66
-53.02
-50.93
-45.16
-36.09
-24.65
-12.01
0.61
12.27
22.38
30.66
37.05
41.61
44.46
45.74
45.67
44.51
42.61
40.30
37.91
35.60
33.46
31.42
29.39
27.34
25.35
23.60
22.22
21.18
20.15
18.66
16.29
12.84
8.47
3.60
-1.30
-5.95
-10.31
-14.52
-18.86
-23.54
-28.73
-34.45
-40.55
-46.56
-51.67
-54.81
-54.92
-51.30
-43.93
-33.55
-21.41
-8.91
2.90
13.42
22.49
30.14
36.33
40.86
43.48
44.16
43.14
41.01
38.43
35.90
33.60
31.46
29.33
27.15
25.00
23.01
21.25
19.64
18.02
16.27
14.34
12.23
9.93
7.33
4.25
0.55
-3.70
-8.25
-12.70
-16.79
-20.47
-24.00
-27.80
-32.25
-37.46
-43.11
-48.50
-52.68
-54.72
-53.98
-50.22
-43.68
-34.88
-24.53
-13.37
-2.04
8.89
18.86
27.38
34.00
38.43
40.63
40.81
39.39
36.91
33.88
30.76
27.92
25.60
23.94
22.93
22.35
21.82
20.93
19.41
17.27
14.78
12.36
10.26
8.44
6.53
4.09
0.81
-3.27
-7.80
-12.36
-16.67
-20.76
-24.87
-29.24
-34.01
-39.09
-44.28
-49.28
-53.75
-57.23
-59.19
-59.08
-56.52
-51.45
-44.15
-35.18
-25.13
-14.61
-4.19
5.59
14.20
21.21
26.33
29.56
31.10
31.31
30.57
29.25
27.68
26.13
24.80
23.72
22.77
21.77
20.59
19.22
17.81
16.54
15.50
14.57
13.45
11.78
9.31
5.97
1.91
-2.56
-7.10
-11.47
-15.51
-19.20
-22.58
-25.80
-28.99
-32.33
-35.93
-39.77
-43.55
-46.68
-48.38
-47.88
-44.76
-39.04
-31.19
-22.00
-12.28
-2.71
6.21
14.14
20.78
25.93
29.45
31.36
31.79
31.01
29.30
27.00
24.41
21.80
19.37
17.24
15.43
13.87
12.48
11.15
9.82
8.40
6.83
4.99
2.79
0.17
-2.86
-6.26
-9.90
-13.70
-17.52
-21.30
-25.00
-28.63
-32.28
-36.08
-40.18
-44.63
-49.31
-53.77
-57.31
-59.05
-58.20
-54.32
-47.53
-38.41
-27.93
-17.06
-6.65
2.78
10.96
17.71
22.94
26.57
28.62
29.26
28.74
27.45
25.77
24.02
22.37
20.92
19.63
18.47
17.43
16.53
15.82
15.22
14.56
13.58
11.99
9.63
6.52
2.86
-1.09
-5.09
-9.02
-12.89
-16.70
-20.45
-24.15
-27.78
-31.44
-35.30
-39.58
-44.41
-49.61
-54.64
-58.61
-60.49
-59.40
-54.93
-47.31
-37.27
-25.88
-14.18
-2.96
7.25
16.19
23.70
29.69
34.09
36.91
38.19
38.07
36.81
34.68
32.02
29.22
26.63
24.44
22.71
21.29
19.96
18.58
17.09
15.56
13.98
12.24
10.06
7.21
3.61
-0.53
-4.80
-8.83
-12.41
-15.69
-19.01
-22.70
-26.90
-31.55
-36.51
-41.65
-46.99
-52.50
-57.94
-62.65
-65.68
-66.02
-62.96
-56.35
-46.64
-34.80
-22.03
-9.51
1.81
11.38
19.01
24.90
29.43
33.00
35.80
37.72
38.48
37.82
35.77
32.62
29.09
26.04
24.19
23.79
24.49
25.43
25.55
24.17
21.07
16.87
12.74
10.00
9.43
10.98
13.91
17.30
20.47
23.00
24.98
27.04
30.27
35.99
45.43
59.34
77.60
99.03
119.50
133.48
136.22
126.22
106.05
80.43
53.57
27.57
2.79
-21.55
-45.65
-68.51
-88.19
-102.84
-111.52
-114.47
-114.51
-112.74
-109.71
-105.25
-98.75
-89.57
-77.56
-63.31
-48.04
-33.13
-19.46
-7.77
1.66
8.88
14.00
17.00
17.83
16.28
12.47
7.18
1.26
-4.50
-9.65
-14.12
-18.15
-21.99
-25.57
-28.41
-29.66
-28.68
-25.25
-19.54
-12.08
-3.63
4.93
12.70
19.02
23.69
26.90
29.03
30.39
30.86
29.81
26.44
20.36
11.96
2.43
-6.80
-14.75
-21.11
-26.21
-30.53
-34.40
-37.94
-41.17
-44.20
-47.12
-49.74
-51.53
-51.75
-49.90
-46.03
-40.85
-35.40
-30.60
-26.94
-24.42
-22.60
-20.76
-17.98
-13.30
-6.18
3.24
14.00
24.61
33.70
40.53
45.27
48.81
52.45
57.34
64.17
72.97
83.05
93.18
101.99
108.45
112.20
113.51
112.86
110.52
106.39
100.29
92.45
83.70
75.25
68.08
62.49
58.03
53.73
48.46
41.11
30.67
16.41
-1.77
-23.04
-45.73
-67.69
-87.12
-102.95
-114.81
-122.75
-126.69
-126.42
-121.75
-112.84
-100.35
-85.26
-68.57
-50.92
-32.42
-12.80
8.20
30.28
52.19
71.70
86.26
94.14
95.41
92.24
87.97
85.46
85.56
86.98
87.40
85.24
80.86
76.18
73.26
72.62
72.77
70.91
64.78
53.74
39.16
23.44
8.66
-4.20
-15.38
-25.74
-36.02
-46.50
-57.06
-67.42
-77.25
-86.30
-94.25
-100.83
-105.76
-108.86
-109.90
-108.65
-104.87
-98.42
-89.49
-78.58
-66.32
-53.30
-39.96
-26.72
-14.11
-2.92
6.07
12.35
15.97
17.43
17.22
15.45
11.76
5.80
-2.27
-11.43
-20.23
-27.54
-33.23
-38.24
-43.90
-50.96
-59.05
-66.84
-72.79
-76.04
-76.83
-76.21
-75.45
-75.39
-76.25
-77.88
-79.98
-82.30
-84.51
-85.95
-85.59
-82.15
-74.52
-62.16
-45.42
-25.47
-4.03
17.04
36.25
52.76
66.37
77.31
85.71
91.29
93.41
91.45
85.39
76.22
65.60
55.16
45.82
37.53
29.60
21.61
13.80
7.00
2.00
-1.14
-3.25
-5.51
-8.73
-12.87
-17.23
-21.03
-23.92
-25.97
-27.29
-27.73
-26.86
-24.39
-20.51
-15.95
-11.57
-7.92
-4.93
-2.05
1.45
6.26
12.91
21.79
33.10
46.60
61.66
77.45
93.29
108.96
124.64
140.58
156.71
172.63
187.72
201.58
214.10
225.35
235.20
243.07
247.98
248.75
244.33
233.98
217.36
194.56
166.25
133.71
98.86
63.86
30.69
0.69
-25.72
-48.88
-69.56
-88.47
-105.88
-121.61
-135.24
-146.51
-155.60
-163.10
-169.67
-175.52
-180.18
-182.68
-182.02
-177.74
-170.25
-160.52
-149.62
-138.16
-126.14
-113.24
-99.40
-85.07
-71.16
-58.63
-47.97
-39.01
-31.05
-23.31
-15.16
-6.44
2.61
11.45
19.41
25.98
30.99
34.66
37.55
40.16
42.61
44.46
44.98
43.57
40.23
35.63
30.76
26.33
22.35
18.13
12.66
5.14
-4.71
-16.60
-29.94
-44.04
-58.27
-72.05
-84.78
-95.82
-104.57
-110.71
-114.09
-114.84
-113.12
-109.20
-103.33
-95.86
-87.17
-77.65
-67.73
-57.79
-48.06
-38.55
-28.86
-18.27
-6.04
8.28
24.48
41.66
58.56
74.04
87.51
98.98
108.71
116.77
122.87
126.32
126.51
123.29
117.09
108.82
99.66
90.79
83.26
77.91
75.11
74.67
75.92
77.92
79.74
80.85
81.34
81.52
81.95
82.71
83.64
84.50
85.38
86.84
89.64
94.36
100.19
105.33
106.86
102.26
90.19
71.08
46.45
17.74
-14.36
-50.76
-92.21
-138.63
-187.95
-236.90
-282.13
-321.74
-355.81
-385.12
-410.94
-426.54
-423.72
-395.97
-343.34
-273.24
-196.64
-125.85
-60.94
1.82
65.39
128.33
185.59
228.34
249.74
248.24
228.01
197.02
162.09
127.50
94.47
63.45
35.99
15.84
7.33
12.77
30.97
56.19
81.27
100.03
109.44
109.56
102.89
92.95
82.90
75.06
69.90
66.69
63.78
59.40
52.37
42.73
31.71
20.88
11.42
3.06
-5.55
-15.98
-28.84
-43.31
-57.29
-68.60
-76.06
-79.85
-81.09
-80.91
-79.69
-76.94
-71.91
-64.32
-54.91
-45.17
-36.49
-29.44
-23.68
-18.36
-12.87
-7.11
-1.32
4.41
10.38
16.91
23.82
29.98
33.74
33.88
30.58
25.67
22.11
22.69
28.77
39.70
53.01
65.11
72.18
70.86
58.89
35.87
3.74
-33.38
-70.30
-102.30
-126.59
-142.68
-151.57
-154.34
-151.09
-141.01
-123.51
-99.48
-71.81
-44.68
-22.00
-5.81
4.24
10.10
13.94
16.89
18.76
18.60
15.82
10.87
5.22
0.61
-2.06
-3.50
-5.89
-12.06
-24.10
-42.45
-65.71
-91.07
-115.35
-135.74
-150.32
-158.13
-159.23
-154.70
-146.50
-137.17
-129.17
-124.14
-122.46
-123.31
-125.18
-126.51
-125.95
-122.37
-114.71
-102.11
-84.23
-61.65
-35.85
-8.67
18.32
44.36
69.36
93.31
115.71
135.41
151.05
161.77
167.77
170.29
171.00
171.34
171.86
172.29
171.92
170.24
167.30
163.68
160.04
156.55
152.69
147.49
140.30
131.34
121.77
113.22
106.88
102.92
100.57
98.68
96.40
93.49
90.08
86.30
82.05
77.11
71.51
65.61
59.90
54.70
49.79
44.67
38.91
32.48
25.81
19.52
14.19
10.18
7.83
7.41
9.09
12.66
17.50
22.64
27.27
31.04
34.04
36.58
38.73
40.17
40.44
39.23
36.67
33.24
29.47
25.62
21.62
17.24
12.38
7.18
1.97
-2.89
-7.28
-11.30
-15.12
-18.84
-22.43
-25.79
-28.88
-31.74
-34.53
-37.41
