1719941413.00
64.000000
-0.00
-0.00
-0.00
-0.00
-0.00
-0.00
-0.00
-0.00
-0.00
-0.00
0.00
0.01
0.01
-0.00
-0.03
-0.05
-0.05
0.00
0.13
0.36
0.66
1.01
1.37
1.72
2.06
2.40
2.79
3.24
3.80
4.42
5.06
5.66
6.20
6.68
7.15
7.68
8.31
9.14
10.09
11.04
11.88
12.56
13.14
13.76
14.65
15.96
17.91
20.32
22.90
25.38
27.58
29.57
31.68
34.32
37.81
42.54
48.15
54.10
59.83
64.97
69.58
74.14
79.34
85.71
93.76
103.00
112.62
121.73
129.77
136.75
143.30
150.75
157.77
166.64
177.95
191.79
206.97
220.57
228.25
225.36
208.53
176.87
132.76
80.05
23.07
-34.94
-92.44
-149.16
-205.23
-260.37
-313.74
-363.87
-409.83
-450.91
-486.50
-515.74
-537.23
-549.22
-549.96
-538.37
-514.21
-478.67
-433.88
-382.45
-327.02
-269.84
-212.63
-156.66
-102.95
-52.37
-5.90
35.58
71.43
101.35
125.50
144.38
158.69
169.15
176.37
180.75
182.57
182.07
179.51
175.23
169.65
163.18
156.15
148.81
141.30
133.69
126.02
118.33
110.69
103.16
95.80
88.68
81.83
75.25
68.95
62.95
57.25
51.86
46.78
42.03
37.59
33.45
29.62
26.07
22.81
19.82
17.11
14.66
12.48
10.55
8.85
7.38
6.09
4.97
3.99
3.13
2.41
1.81
1.34
0.98
0.70
0.48
0.28
0.09
-0.10
-0.27
-0.39
-0.46
-0.47
-0.47
-0.48
-0.54
-0.67
-0.86
-1.04
-1.17
-1.19
-1.13
-1.04
-1.03
-1.18
-1.52
-2.01
-2.52
-2.89
-3.02
-2.94
-2.77
-2.74
-3.03
-3.73
-4.72
-5.76
-6.55
-6.89
-6.79
-6.49
-6.37
-6.76
-7.78
-9.28
-10.86
-12.09
-12.69
-12.64
-12.21
-11.80
-11.79
-12.44
-13.97
-16.38
-19.36
-22.12
-23.35
-21.60
-15.89
-6.35
5.61
17.72
27.77
34.43
37.70
38.61
38.51
38.36
38.43
38.46
38.08
37.20
36.00
34.73
33.45
31.94
29.85
26.83
22.95
18.41
13.75
9.56
6.19
3.64
1.61
-0.37
-2.66
-5.34
-8.21
-10.88
-13.01
-14.42
-15.19
-15.53
-15.65
-15.70
-15.68
-15.53
-15.17
-14.53
-13.62
-12.53
-11.32
-10.07
-8.86
-7.74
-6.78
-6.01
-5.41
-5.00
-4.80
-4.81
-5.03
-5.41
-5.79
-5.92
-5.57
-4.54
-2.77
-0.46
2.11
4.54
6.52
7.86
8.55
8.64
8.27
7.55
6.54
5.33
3.93
2.45
0.98
-0.35
-1.45
-2.24
-2.68
-2.74
-2.49
-2.00
-1.43
-0.94
-0.55
-0.33
-0.36
-0.64
-1.20
-2.06
-3.23
-4.71
-6.42
-8.25
-10.02
-11.51
-12.45
-12.56
-11.56
-9.24
-5.58
-0.84
4.47
9.71
14.25
17.72
19.96
21.03
21.10
20.29
18.77
16.66
14.13
11.42
8.73
6.21
3.89
1.78
-0.17
-1.95
-3.50
-4.73
-5.54
-5.93
-5.93
-5.69
-5.41
-5.32
-5.62
-6.47
-7.90
-9.83
-12.03
-14.14
-15.69
-16.28
-15.62
-13.61
-10.35
-6.11
-1.25
3.80
8.59
12.72
15.84
17.72
18.34
17.86
16.57
14.76
12.62
10.23
7.55
4.64
1.66
-1.10
-3.32
-4.88
-5.80
-6.28
-6.59
-6.88
-7.21
-7.55
-7.89
-8.32
-8.96
-9.95
-11.35
-13.07
-14.94
-16.67
-17.98
-18.54
-18.14
-16.63
-13.99
-10.34
-5.93
-1.10
3.81
8.42
12.42
15.55
17.64
18.60
18.44
17.25
15.27
12.77
10.05
7.37
4.89
2.70
0.79
-0.82
-2.13
-3.14
-3.85
-4.29
-4.57
-4.78
-5.04
-5.42
-6.03
-6.96
-8.27
-9.95
-11.84
-13.56
-14.64
-14.65
-13.30
-10.58
-6.76
-2.29
2.32
6.64
10.33
13.23
15.23
16.28
16.40
15.59
13.97
11.70
9.00
6.18
3.52
1.28
-0.42
-1.56
-2.26
-2.70
-2.98
-3.14
-3.13
-2.91
-2.54
-2.18
-2.06
-2.34
-3.07
-4.13
-5.29
-6.27
-6.76
-6.49
-5.23
-2.88
0.50
4.64
9.08
13.37
17.09
20.00
21.97
23.00
23.09
22.29
20.68
18.42
15.74
12.86
10.00
7.32
4.99
3.08
1.65
0.66
-0.01
-0.52
-0.99
-1.50
-2.00
-2.51
-3.08
-3.83
-4.88
-6.28
-7.91
-9.53
-10.80
-11.43
-11.17
-9.86
-7.52
-4.26
-0.39
3.68
7.50
10.66
12.90
14.11
14.34
13.70
12.32
10.40
8.14
5.74
3.45
1.46
-0.17
-1.43
-2.38
-3.09
-3.58
-3.79
-3.76
-3.53
-3.29
-3.30
-3.76
-4.81
-6.39
-8.28
-10.17
-11.73
-12.65
-12.74
-11.88
-10.04
-7.35
-4.05
-0.48
2.97
5.97
8.29
9.84
10.60
10.65
10.02
8.77
7.01
4.93
2.73
0.64
-1.18
-2.70
-3.98
-5.10
-6.08
-6.87
-7.43
-7.77
-8.06
-8.46
-9.18
-10.27
-11.69
-13.28
-14.81
-16.07
-16.83
-16.90
-16.09
-14.34
-11.73
-8.51
-5.05
-1.77
0.97
2.98
4.18
4.61
4.35
3.52
2.22
0.57
-1.33
-3.33
-5.31
-7.15
-8.74
-10.06
-11.06
-11.77
-12.18
-12.30
-12.17
-11.83
-11.36
-10.89
-10.57
-10.55
-10.89
-11.50
-12.13
-12.43
-12.04
-10.70
-8.38
-5.27
-1.73
1.84
5.11
7.95
10.32
12.26
13.75
14.69
14.91
14.20
12.53
10.03
7.04
3.96
1.24
-0.82
-2.09
-2.58
-2.40
-1.69
-0.64
0.54
1.68
2.55
2.98
2.89
2.26
1.20
-0.13
-1.48
-2.65
-3.47
-3.79
-3.51
-2.58
-1.00
1.07
3.39
5.62
7.42
8.58
9.10
9.06
8.63
7.97
7.12
6.07
4.78
3.29
1.70
0.18
-1.10
-2.02
-2.56
-2.76
-2.67
-2.35
-1.81
-1.05
-0.14
0.78
1.43
1.52
0.87
-0.49
-2.19
-3.64
-4.27
-3.69
-1.91
0.80
4.04
7.43
10.76
13.90
16.72
19.11
20.97
22.34
23.43
24.42
25.35
25.99
25.88
24.63
22.06
18.39
14.04
9.41
4.68
-0.20
-5.31
-10.61
-15.82
-20.54
-24.44
-27.43
-29.66
-31.37
-32.72
-33.66
-33.92
-33.15
-30.99
-27.18
-21.69
-14.76
-6.97
0.83
7.69
12.80
15.75
16.64
15.94
14.31
12.28
10.18
8.12
6.16
4.37
2.87
1.81
1.21
0.93
0.74
0.37
-0.34
-1.45
-2.83
-4.34
-5.91
-7.58
-9.51
-11.91
-14.84
-18.13
-21.35
-23.90
-25.26
-25.13
-23.57
-20.94
-17.71
-14.33
-11.05
-8.02
-5.29
-2.95
-1.11
0.11
0.70
0.72
0.30
-0.41
-1.27
-2.17
-3.00
-3.71
-4.27
-4.68
-4.96
-5.07
-4.96
-4.60
-4.01
-3.31
-2.70
-2.40
-2.55
-3.17
-4.12
-5.16
-5.99
-6.33
-6.01
-4.97
-3.30
-1.16
1.25
3.78
6.29
8.66
10.76
12.41
13.42
13.70
13.20
11.99
10.21
8.06
5.75
3.48
1.45
-0.21
-1.42
-2.14
-2.38
-2.18
-1.61
-0.82
-0.01
0.59
0.81
0.56
-0.17
-1.29
-2.68
-4.19
-5.63
-6.76
-7.27
-6.85
-5.31
-2.59
1.10
5.40
9.87
14.13
17.91
21.01
23.27
24.56
24.73
23.70
21.58
18.67
15.42
12.23
9.38
6.97
4.96
3.26
1.86
0.79
0.08
-0.29
-0.41
-0.43
-0.52
-0.81
-1.43
-2.49
-4.04
-6.04
-8.29
-10.48
-12.19
-13.04
-12.72
-11.16
-8.43
-4.83
-0.76
3.33
7.05
10.11
12.36
13.77
14.39
14.30
13.59
12.33
10.57
8.42
6.00
3.54
1.26
-0.68
-2.19
-3.31
-4.10
-4.67
-5.07
-5.33
-5.50
-5.71
-6.14
-6.96
-8.31
-10.18
-12.42
-14.81
-17.03
-18.79
-19.80
-19.77
-18.53
-16.01
-12.34
-7.80
-2.81
2.16
6.74
10.62
13.66
15.81
17.04
17.40
16.93
15.73
13.94
11.76
9.37
6.94
4.62
2.51
0.68
-0.81
-1.99
-2.92
-3.69
-4.41
-5.17
-6.02
-6.99
-8.14
-9.54
-11.28
-13.35
-15.63
-17.80
-19.41
-20.01
-19.22
-16.88
-13.14
-8.36
-3.04
2.27
7.11
11.18
14.29
16.40
17.52
17.72
17.08
15.74
13.82
11.54
9.11
6.80
4.82
3.29
2.18
1.33
0.52
-0.43
-1.56
-2.80
-4.04
-5.22
-6.43
-7.84
-9.63
-11.88
-14.46
-17.09
-19.39
-21.01
-21.62
-20.93
-18.78
-15.16
-10.27
-4.56
1.36
6.89
11.54
15.04
17.28
18.25
17.98
16.59
14.27
11.33
8.14
5.03
2.22
-0.17
-2.11
-3.55
-4.47
-4.81
-4.63
-4.03
-3.19
-2.33
-1.57
-1.04
-0.82
-1.04
-1.86
-3.39
-5.60
-8.23
-10.78
-12.63
-13.23
-12.21
-9.53
-5.41
-0.32
5.22
10.71
15.74
20.01
23.34
25.61
26.77
26.82
25.82
23.89
21.20
18.01
14.66
11.44
8.64
6.36
4.63
3.36
2.44
1.77
1.28
0.86
0.43
-0.17
-1.03
-2.28
-4.00
-6.22
-8.89
-11.86
-14.79
-17.24
-18.68
-18.66
-16.89
-13.41
-8.50
-2.65
3.53
9.46
14.62
18.68
21.46
22.95
23.25
22.49
20.85
18.49
15.62
12.47
9.27
6.28
3.65
1.44
-0.39
-1.90
-3.17
-4.26
-5.17
-5.93
-6.56
-7.14
-7.86
-8.92
-10.52
-12.71
-15.31
-17.95
-20.06
-21.10
-20.64
-18.56
-14.94
-10.11
-4.48
1.47
7.30
12.60
16.97
20.13
21.89
22.28
21.41
19.53
16.91
13.80
10.45
7.10
4.04
1.50
-0.32
-1.45
-2.05
-2.39
-2.69
-3.06
-3.44
-3.73
-3.87
-3.96
-4.26
-5.08
-6.64
-8.95
-11.72
-14.48
-16.69
-17.85
-17.61
-15.85
-12.62
-8.19
-2.92
2.70
8.17
13.01
16.81
19.30
20.37
20.11
18.75
16.59
13.98
11.19
8.43
5.83
3.46
1.40
-0.33
-1.70
-2.76
-3.56
-4.17
-4.68
-5.12
-5.57
-6.09
-6.83
-7.95
-9.55
-11.68
-14.25
-17.05
-19.75
-21.92
-23.07
-22.74
-20.64
-16.73
-11.35
-5.12
1.23
7.03
11.84
15.45
17.84
19.07
19.14
18.08
15.93
12.91
9.33
5.65
2.27
-0.51
-2.60
-4.04
-4.98
-5.53
-5.79
-5.79
-5.59
-5.25
-4.90
-4.70
-4.81
-5.36
-6.43
-8.03
-10.18
-12.76
-15.53
-18.04
-19.70
-19.93
-18.31
-14.83
-9.83
-3.95
2.13
7.84
12.77
16.71
19.51
21.04
21.23
20.13
17.98
15.13
12.00
8.92
6.10
3.63
1.51
-0.26
-1.67
-2.68
-3.25
-3.43
-3.27
-2.90
-2.49
-2.24
-2.39
-3.14
-4.61
-6.83
-9.63
-12.66
-15.44
-17.44
-18.21
-17.49
-15.22
-11.55
-6.75
-1.17
4.78
10.66
15.98
20.31
23.32
24.91
25.12
24.18
22.29
19.71
16.65
13.37
10.17
7.37
5.22
3.84
3.20
3.08
3.24
3.42
3.45
3.25
2.81
2.15
1.23
-0.03
-1.75
-4.02
-6.81
-9.91
-12.89
-15.22
-16.35
-15.89
-13.68
-9.87
-4.85
0.78
6.41
11.47
15.55
18.37
19.82
19.91
18.75
16.54
13.56
10.09
6.46
2.94
-0.22
-2.81
-4.73
-5.99
-6.71
-7.05
-7.17
-7.17
-7.06
-6.85
-6.54
-6.29
-6.34
-6.98
-8.41
-10.65
-13.45
-16.29
-18.57
-19.68
-19.23
-17.05
-13.26
-8.15
-2.22
3.99
9.89
14.98
18.88
21.40
22.50
22.29
20.92
18.58
15.50
11.96
8.27
4.76
1.64
-0.93
-2.94
-4.47
-5.58
-6.38
-6.92
-7.26
-7.48
-7.69
-8.02
-8.61
-9.58
-11.01
-12.83
-14.90
-16.90
-18.43
-19.08
-18.51
-16.52
-13.11
-8.45
-2.88
3.19
9.21
14.62
18.88
21.59
22.68
22.36
21.12
19.48
17.81
16.20
14.53
12.66
10.59
8.62
7.26
7.07
8.42
11.34
15.46
20.11
24.57
28.29
31.02
32.93
34.45
36.17
38.57
41.90
46.22
51.38
57.21
63.63
70.93
79.86
91.79
108.48
131.63
162.03
198.63
238.03
274.83
302.89
317.16
315.51
299.44
273.60
244.17
217.00
196.14
183.15
177.33
176.28
176.70
174.99
167.94
153.12
129.35
96.96
57.81
15.11
-27.36
-66.38
-100.41
-130.15
-157.91
-186.18
-216.05
-246.34
-274.02
-295.71
-309.18
-314.21
-312.21
-305.15
-294.58
-281.47
-266.70
-251.72
-238.62
-229.44
-225.10
-224.67
-225.29
-222.95
-213.81
-195.53
-168.38
-135.73
-103.26
-77.42
-63.38
-63.15
-74.79
-93.11
-111.35
-123.61
-126.49
-119.67
-105.30
-86.63
-66.67
-47.59
-30.78
-17.06
-7.00
-0.81
2.00
2.73
3.23
5.21
9.70
16.56
24.71
32.60
38.89
42.91
44.70
44.88
44.36
43.94
44.19
45.22
46.80
48.40
49.48
49.76
49.35
48.71
48.41
48.77
49.64
50.30
49.85
47.49
42.92
36.43
28.76
20.84
13.47
7.21
2.36
-1.06
-3.11
-3.96
-3.78
-2.77
-1.11
1.12
3.84
6.98
10.33
13.53
16.09
17.50
17.40
15.68
12.55
8.47
4.02
-0.30
-4.11
-7.23
-9.60
-11.24
-12.23
-12.70
-12.83
-12.90
-13.22
-14.03
-15.46
-17.46
-19.75
-21.94
-23.61
-24.49
-24.53
-23.86
-22.71
-21.23
-19.37
-16.87
-13.48
-9.09
-3.91
1.57
6.72
10.95
13.89
15.39
15.50
14.33
12.06
8.95
5.34
1.66
-1.69
-4.47
-6.63
-8.32
-9.76
-11.09
-12.27
-13.12
-13.43
-13.04
-11.97
-10.41
-8.72
-7.32
-6.63
-6.92
-8.18
-10.05
-11.86
-12.79
-12.12
-9.46
-4.89
1.12
7.98
15.12
22.19
29.04
35.48
41.28
46.01
49.29
50.93
51.20
50.83
50.82
52.11
55.29
60.33
66.67
73.41
79.63
84.81
88.97
92.84
97.79
105.76
118.74
138.12
163.90
194.20
225.42
253.18
273.62
284.53
285.68
278.35
264.24
244.60
220.08
191.11
158.65
124.53
91.04
60.00
31.97
5.87
-20.44
-49.20
-81.83
-118.68
-159.30
-202.87
-248.37
-294.25
-338.04
-376.59
-406.98
-427.63
-438.86
-442.40
-439.99
-431.90
-416.65
-391.94
-356.55
-311.78
-261.56
-211.06
-164.62
-124.18
-88.98
-56.67
-25.03
6.79
37.78
65.68
88.09
103.60
112.32
115.71
115.80
114.33
112.14
109.13
104.83
98.99
92.03
84.89
78.60
73.70
69.97
66.50
62.14
56.08
48.24
39.30
30.44
22.75
16.95
13.12
10.95
9.93
9.69
10.04
10.85
11.77
12.12
11.00
7.71
2.25
-4.37
-10.24
-13.20
-11.48
-4.23
8.36
25.26
45.13
66.68
88.92
111.12
132.67
152.99
171.46
187.41
200.05
208.24
210.23
203.72
186.38
156.81
115.62
65.98
13.12
-36.96
-79.30
-111.26
-132.72
-145.25
-150.69
-150.19
-144.27
-133.45
-119.01
-102.96
-87.42
-73.70
-61.98
-51.45
-41.14
-30.60
-19.92
-9.59
0.05
8.90
16.84
23.42
27.89
29.63
28.73
26.20
23.46
21.49
20.12
18.03
13.46
5.21
-6.62
-20.64
-34.83
-47.45
-57.62
-65.38
-71.17
-75.30
-77.76
-78.33
-76.98
-74.02
-70.14
-66.01
-61.98
-57.94
-53.38
-47.74
-40.67
-32.15
-22.44
-11.87
-0.71
10.90
22.87
35.12
47.45
59.34
69.86
77.55
80.71
77.92
68.69
53.89
35.77
17.34
1.46
-10.01
-16.64
-19.25
-19.25
-18.01
-16.53
-15.40
-14.90
-15.07
-15.65
-16.00
-15.25
-12.76
-8.46
-3.09
2.18
6.21
8.46
9.19
9.08
8.85
8.91
9.29
10.09
11.60
14.37
18.83
24.87
31.76
38.33
43.48
46.69
48.09
48.35
48.23
48.16
48.13
47.76
46.55
44.22
40.81
36.63
32.07
27.47
22.90
18.31
13.55
8.60
3.51
-1.54
-6.34
-10.75
-14.74
-18.32
-21.51
-24.26
-26.34
-27.36
-26.92
-24.77
-20.89
-15.55
-9.16
-2.21
4.85
11.63
17.60
22.17
24.81
25.22
23.61
20.68
17.41
14.64
12.80
11.74
10.97
9.94
8.32
6.17
3.92
2.14
1.38
1.96
3.89
6.83
10.18
13.28
15.61
17.06
17.98
19.08
21.10
24.31
28.18
31.34
32.03
28.71
20.86
9.29
-4.04
-16.82
-27.24
-34.75
-40.04
-44.54
-49.52
-55.40
-61.64
-67.10
-70.55
-71.05
-68.02
-61.13
-50.28
-35.83
-18.91
-1.59
13.40
23.42
26.86
23.77
15.75
5.34
-4.95
-13.48
-19.75
-24.14
-27.34
-29.89
-31.91
-33.21
-33.60
-33.21
-32.46
-31.89
-31.80
-31.94
-31.53
-29.51
-25.06
-18.10
-9.44
-0.53
7.15
12.68
16.03
17.83
19.01
20.22
21.59
22.88
23.68
23.79
23.24
22.23
20.89
19.32
17.57
15.81
14.35
13.59
13.74
14.77
16.40
18.24
19.93
21.35
22.51
23.45
24.09
24.14
23.20
20.85
16.88
11.46
5.02
-1.77
-8.19
-13.69
-17.93
-20.86
-22.60
-23.45
-23.66
-23.46
-22.96
-22.32
-21.73
-21.55
-22.26
-24.28
-27.85
-32.72
-38.14
-43.06
-46.49
-47.91
-47.48
-45.89
-43.91
-42.03
-40.18
-37.98
-35.06
-31.49
-27.79
-24.81
-23.25
-23.41
-25.07
-27.66
-30.59
-33.39
-35.81
-37.66
-38.76
-38.84
-37.62
-34.97
-30.91
-25.69
-19.69
-13.29
-6.76
-0.30
6.05
12.21
18.09
23.52
28.32
32.35
35.55
37.88
39.38
40.10
40.12
39.60
38.71
37.67
36.68
35.89
35.33
34.95
34.58
34.01
33.06
31.63
29.70
27.33
24.56
21.41
17.84
13.75
9.08
3.96
-1.33
-6.37
-10.75
-14.20
-16.65
-18.14
-18.70
-18.26
-16.70
-14.00
-10.40
-6.35
-2.47
0.78
3.19
4.85
5.99
6.75
7.11
6.93
6.15
4.85
3.27
1.71
0.42
-0.57
-1.30
-1.90
-2.38
-2.62
-2.38
-1.44
0.24
2.45
4.77
6.70
7.85
8.11
7.69
6.98
6.43
6.32
6.76
7.59
8.58
9.53
10.37
11.24
12.38
14.02
16.31
19.23
22.69
26.52
30.55
34.50
37.91
40.22
40.90
39.73
36.87
32.76
27.87
22.44
16.41
9.66
2.31
-5.12
-11.86
-17.31
-21.35
-24.51
-27.67
-31.54
-36.33
-41.59
-46.54
-50.36
-52.63
-53.29
-52.59
-50.81
-48.12
-44.60
-40.29
-35.29
-29.79
-24.04
-18.14
-12.01
-5.41
1.86
9.75
17.90
25.64
32.23
37.02
39.60
39.84
37.86
33.96
28.69
22.75
17.01
12.29
9.13
7.71
7.79
8.84
10.28
11.63
12.66
13.28
13.52
13.36
12.71
11.45
9.49
6.92
4.01
1.14
-1.33
-3.21
-4.40
-4.87
-4.53
-3.23
-0.82
2.71
7.15
12.06
16.92
21.23
24.65
26.98
28.20
28.42
27.85
26.73
25.30
23.70
21.88
19.74
17.15
14.14
10.86
7.60
4.59
1.92
-0.49
-2.76
-5.00
-7.25
-9.60
-12.28
-15.67
-20.21
-26.06
-32.94
-40.07
-46.49
-51.38
-54.33
-55.40
-54.91
-53.13
-50.20
-46.10
-40.91
-34.93
-28.74
-22.99
-18.12
-14.25
-11.11
-8.33
-5.65
-3.17
-1.27
-0.44
-1.00
-2.85
-5.47
-8.10
-9.94
-10.51
-9.74
-8.07
-6.25
-5.17
-5.56
-7.81
-11.83
-17.13
-22.95
-28.57
-33.48
-37.40
-40.25
-41.91
-42.20
-40.72
-37.13
-31.27
-23.38
-14.05
-4.10
5.72
14.92
23.31
30.79
37.26
42.39
45.85
47.47
47.48
46.44
45.10
44.04
43.55
43.58
43.86
44.17
44.42
44.64
44.93
45.40
46.14
47.21
48.62
50.32
52.14
53.77
54.81
54.78
53.33
50.30
45.93
40.87
36.02
32.30
30.28
30.01
30.96
32.26
33.00
32.54
30.59
27.25
22.89
17.98
13.06
8.59
4.97
2.42
0.97
0.47
0.60
0.96
1.20
1.06
0.47
-0.44
-1.49
-2.54
-3.58
-4.75
-6.20
-7.95
-9.89
-11.71
-13.13
-14.00
-14.33
-14.28
-13.99
-13.46
-12.61
-11.31
-9.48
-7.05
-3.94
0.01
4.96
10.94
17.61
24.31
30.08
33.98
35.41
34.29
31.06
26.49
21.41
16.52
12.21
8.63
5.68
3.12
0.66
-1.93
-4.73
-7.64
-10.42
-12.78
-14.57
-15.79
-16.65
-17.38
-17.99
-18.17
-17.37
-15.04
-11.03
-5.83
-0.51
3.71
5.93
6.06
4.74
3.07
2.10
2.35
3.74
5.72
7.57
8.71
8.78
7.64
5.28
1.74
-2.90
-8.57
-15.11
-22.24
-29.47
-36.18
-41.78
-45.85
-48.36
-49.60
-50.03
-50.03
-49.71
-48.92
-47.40
-45.07
-42.15
-39.18
-36.80
-35.44
-35.10
-35.31
-35.37
-34.62
-32.73
-29.82
-26.24
-22.42
-18.66
-15.07
-11.75
-8.80
-6.47
-4.95
-4.22
-4.05
-4.03
-3.80
-3.26
-2.60
-2.20
-2.32
-3.03
-4.07
-5.08
-5.71
-5.79
-5.32
-4.46
-3.39
-2.30
-1.49
-1.41
-2.58
-5.40
-9.83
-15.32
-20.89
-25.50
-28.33
-28.98
-27.46
-23.97
-18.74
-12.03
-4.18
4.23
12.45
19.62
25.10
28.64
30.38
30.78
30.36
29.49
28.39
27.08
25.52
23.73
21.85
20.20
19.10
18.75
19.17
20.11
21.16
21.93
22.05
21.37
19.93
17.93
15.72
13.63
11.88
10.55
9.58
8.85
8.30
7.94
7.93
8.41
9.53
11.31
13.63
16.28
18.96
21.29
22.89
23.48
22.97
21.50
19.37
16.94
14.46
12.07
9.82
7.69
5.66
3.65
1.59
-0.58
-2.84
-5.04
-6.96
-8.39
-9.30
-9.88
-10.51
-11.58
-13.34
-15.85
-18.92
-22.22
-25.35
-27.84
-29.28
-29.28
-27.60
-24.19
-19.21
-13.06
-6.25
0.63
7.07
12.60
16.93
19.87
21.43
21.74
21.03
19.56
17.56
15.19
12.55
9.70
6.73
3.75
0.88
-1.79
-4.20
-6.32
-8.22
-9.97
-11.69
-13.48
-15.44
-17.57
-19.84
-22.16
-24.39
-26.38
-27.95
-28.85
-28.73
-27.20
-23.92
-18.75
-11.84
-3.63
5.13
13.63
21.08
26.99
31.12
33.60
34.73
34.90
34.39
33.36
31.88
30.02
27.91
25.77
23.84
22.31
21.24
20.50
19.93
19.34
18.62
17.74
16.67
15.33
13.53
11.12
7.94
4.00
-0.60
-5.61
-10.72
-15.46
-19.25
-21.45
-21.55
-19.35
-15.14
-9.60
-3.62
2.03
6.89
10.88
14.10
16.60
18.26
18.86
18.26
16.56
14.15
11.58
9.38
7.86
7.03
6.67
6.40
5.86
4.84
3.34
1.51
-0.44
-2.40
-4.41
-6.74
-9.73
-13.64
-18.54
-24.22
-30.22
-35.91
-40.60
-43.65
-44.48
-42.70
-38.24
-31.33
-22.63
-13.01
-3.44
5.22
12.38
17.75
21.37
23.42
24.16
23.82
22.63
20.83
18.70
16.56
14.70
13.35
12.60
12.43
12.77
13.55
14.75
16.36
18.27
20.19
21.66
22.15
21.25
18.85
15.16
10.77
6.31
2.42
-0.41
-1.77
-1.31
1.26
6.10
13.02
21.39
30.20
38.26
44.53
48.35
49.55
48.35
45.20
40.49
34.56
27.63
19.94
11.79
3.61
-4.08
-10.81
-16.20
-20.11
-22.65
-24.15
-25.17
-26.35
-28.32
-31.45
-35.69
-40.47
-44.94
-48.18
-49.71
-49.64
-48.54
-47.13
-45.82
-44.51
-42.63
-39.50
-34.63
-27.98
-19.85
-10.68
-0.95
8.98
18.73
27.86
35.82
42.02
46.10
47.93
47.73
45.87
42.72
38.62
33.84
28.71
23.66
19.25
15.98
14.17
13.87
14.81
16.60
18.73
20.74
22.16
22.63
21.84
19.64
16.08
11.41
6.03
0.46
-4.70
-8.90
-11.62
-12.52
-11.48
-8.68
-4.49
0.54
5.83
10.79
14.87
17.64
18.78
18.24
16.18
12.97
9.11
5.06
1.20
-2.24
-5.12
-7.35
-8.80
-9.34
-8.81
-7.18
-4.58
-1.25
2.49
6.35
10.15
13.82
17.26
20.26
22.42
23.24
22.21
18.98
13.45
5.81
-3.44
-13.51
-23.40
-31.96
-38.19
-41.42
-41.53
-39.00
-34.72
-29.70
-24.80
-20.60
-17.42
-15.38
-14.51
-14.76
-15.93
-17.71
-19.66
-21.48
-23.01
-24.38
-25.81
-27.47
-29.28
-30.87
-31.77
-31.64
-30.55
-29.00
-27.64
-27.03
-27.25
-27.99
-28.71
-29.02
-28.88
-28.52
-28.22
-28.02
-27.57
-26.26
-23.54
-19.18
-13.35
-6.56
0.50
7.21
13.08
17.80
21.24
23.45
24.63
25.05
25.05
24.83
24.50
24.08
23.53
22.87
22.14
21.36
20.54
19.61
18.49
17.20
15.80
14.44
13.15
11.90
10.50
8.73
6.42
3.55
0.24
-3.29
-6.82
-10.13
-13.01
-15.16
-16.24
-15.87
-13.82
-10.21
-5.53
-0.56
3.85
7.06
8.77
9.11
8.37
6.91
4.94
2.60
0.01
-2.65
-5.12
-7.24
-9.00
-10.59
-12.25
-14.12
-16.15
-18.20
-20.14
-22.00
-23.94
-26.16
-28.74
-31.62
-34.72
-37.95
-41.39
-45.16
-49.21
-53.25
-56.67
-58.65
-58.44
-55.57
-50.05
-42.36
-33.29
-23.76
-14.55
-6.12
1.38
8.12
14.37
20.38
26.19
31.55
35.93
38.67
39.24
37.49
33.73
28.70
23.37
18.51
14.53
11.40
8.83
6.58
4.61
3.12
2.30
2.05
1.84
0.83
-1.80
-6.46
-12.86
-20.12
-27.00
-32.41
-35.62
-36.43
-35.11
-32.15
-28.13
-23.62
-19.08
-14.82
-10.99
-7.50
-4.12
-0.55
3.34
7.42
11.38
14.87
17.80
20.55
23.95
29.12
37.02
47.98
61.41
75.93
89.79
101.49
110.23
116.03
119.58
121.68
122.81
122.75
120.78
116.03
108.05
97.29
85.10
73.41
63.97
57.80
54.89
54.35
55.11
56.41
58.03
59.99
62.03
63.17
61.89
56.66
46.71
32.51
15.56
-2.19
-19.05
-34.14
-47.43
-59.20
-69.71
-78.81
-85.95
-90.49
-92.05
-90.89
-87.95
-84.76
-82.92
-83.65
-87.39
-93.66
-101.38
-109.28
-116.31
-121.84
-125.45
-126.58
-124.35
-117.69
-105.64
-87.90
-65.04
-38.41
-9.71
19.39
47.47
73.30
95.82
114.39
129.23
141.82
154.54
169.61
187.40
205.22
217.90
219.55
206.51
179.36
143.07
105.04
72.31
49.42
37.82
36.56
43.32
54.94
67.47
76.27
76.71
65.49
41.79
7.37
-34.64
-81.47
-131.49
-183.77
-236.58
-286.24
-327.23
-353.68
-361.31
-349.03
-319.37
-277.68
-230.71
-184.79
-143.95
-108.87
-76.75
-42.60
-1.60
48.24
104.61
161.16
209.86
243.88
259.78
257.95
241.50
214.77
182.12
147.40
114.04
84.86
61.58
44.34
31.53
20.24
7.42
-8.96
-29.10
-51.35
-72.91
-90.81
-102.97
-108.72
-108.66
-104.13
-96.49
-86.60
-74.90
-61.63
-47.31
-32.85
-19.35
-7.80
1.30
7.95
12.49
15.43
17.32
18.79
20.51
23.05
26.68
31.20
35.92
39.97
42.61
43.57
43.06
41.58
39.58
37.24
34.34
30.48
25.31
18.82
11.46
4.09
-2.41
-7.34
-10.59
-12.55
-14.07
-16.08
-19.35
-24.40
-31.37
-40.07
-49.98
-60.26
-69.93
-78.12
-84.41
-88.96
-92.38
-95.24
-97.60
-98.70
-97.25
-92.07
-82.87
-70.52
-56.73
-43.20
-30.85
-19.46
-8.20
3.56
15.42
25.85
32.73
34.29
29.84
19.85
5.55
-11.75
-30.94
-50.88
-70.12
-86.64
-98.17
-102.89
-100.14
-90.76
-76.82
-60.99
-45.63
-32.24
-21.19
-11.85
-2.86
7.43
20.50
37.10
56.83
78.04
98.14
114.23
123.84
125.52
119.24
106.29
88.97
70.10
52.33
37.57
26.57
18.97
13.60
9.08
4.26
-1.59
-8.77
-17.43
-27.50
-38.48
-49.27
-58.21
-63.58
-64.16
-59.79
-51.34
-40.25
-27.91
-15.19
-2.38
10.43
22.84
33.98
42.62
47.71
48.86
46.55
42.12
37.35
34.07
33.70
36.95
43.64
52.76
62.62
71.44
77.80
81.14
81.80
80.72
78.81
76.28
72.38
65.53
54.10
37.13
15.03
-10.37
-36.16
-59.15
-76.74
-87.45
-91.19
-88.90
-82.10
-72.40
-61.19
-49.54
-38.31
-28.13
-19.43
-12.39
-7.01
-3.12
-0.48
1.03
1.52
1.06
-0.24
-2.16
-4.39
-6.64
-8.65
-10.32
-11.67
-12.81
-13.84
-14.91
-16.15
-17.66
-19.52
-21.73
-24.24
-27.01
-30.07
-33.60
-37.79
-42.65
-47.75
-52.20
-54.77
-54.30
-50.12
-42.26
-31.51
-19.08
-6.24
5.91
16.66
25.65
32.78
38.19
42.17
45.15
47.57
49.80
52.02
54.21
56.16
57.56
58.12
57.62
55.96
53.10
49.13
44.22
38.68
32.81
26.96
21.36
16.09
11.04
5.98
0.66
-5.07
-11.27
-17.87
-24.61
-31.11
-36.84
-41.10
-43.15
-42.32
-38.28
-31.16
-21.63
-10.71
0.46
10.91
20.02
27.46
33.16
37.10
39.26
39.60
38.24
35.40
31.53
27.15
22.76
18.69
15.10
12.00
9.34
7.16
5.51
4.46
4.02
4.02
4.18
4.23
3.99
3.46
2.67
1.60
0.06
-2.30
-5.85
-10.72
-16.61
-22.76
-28.07
-31.41
-31.88
-29.11
-23.24
-14.91
-5.08
5.22
15.04
23.64
30.52
35.42
38.31
39.29
38.57
36.46
33.26
29.25
24.69
19.86
15.05
10.58
6.75
3.76
1.65
0.30
-0.50
-0.95
-1.21
-1.41
-1.71
-2.30
-3.36
-5.03
-7.31
-10.09
-13.28
-16.85
-20.90
-25.51
-30.62
-35.88
-40.58
-43.84
-44.78
-42.79
-37.66
-29.59
-19.14
-7.15
5.45
17.63
28.47
37.23
43.49
47.23
48.74
48.50
46.90
44.26
40.71
36.37
31.42
26.14
20.84
15.78
11.11
6.95
3.40
0.61
-1.28
-2.22
-2.38
-2.14
-2.01
-2.48
-3.83
-6.11
-9.21
-12.94
-17.15
-21.72
-26.46
-30.96
-34.58
-36.52
-36.05
-32.74
-26.71
-18.55
-9.20
0.31
9.09
16.57
22.47
26.78
29.57
30.90
30.78
29.23
26.36
22.40
17.76
12.92
8.35
4.41
1.30
-0.97
-2.56
-3.76
-4.95
-6.51
-8.67
-11.44
-14.57
-17.58
-19.92
-21.12
-20.93
-19.52
-17.45
-15.62
-14.99
-16.25
-19.55
-24.51
-30.34
-36.23
-41.55
-45.88
-48.87
-50.19
-49.61
-47.22
-43.68
-40.16
-37.92
-37.68
-39.21
-41.26
-42.06
-40.00
-34.09
-24.29
-11.29
3.75
19.36
33.91
45.72
53.42
56.35
54.96
50.71
45.73
42.00
40.74
42.12
45.49
49.84
54.21
57.82
60.00
60.03
57.20
51.15
42.23
31.59
20.99
12.31
6.92
5.22
6.62
9.79
13.29
16.19
18.19
19.56
20.67
21.53
21.81
21.02
18.83
15.27
10.64
5.26
-0.75
-7.32
-14.24
-20.99
-26.78
-31.03
-33.68
-35.32
-36.71
-38.29
-39.72
-40.10
-38.49
-34.63
-29.29
-23.96
-20.26
-19.21
-20.83
-24.25
-28.15
-31.33
-32.97
-32.64
-30.14
-25.32
-18.14
-8.85
1.78
12.55
22.10
29.44
34.28
37.10
38.81
40.27
41.83
43.23
43.83
42.95
40.34
36.36
31.93
28.34
26.85
28.31
32.93
40.13
48.65
56.85
63.09
66.00
64.79
59.17
49.38
36.21
20.98
5.49
-8.22
-18.29
-23.68
-24.43
-21.61
-16.82
-11.48
-6.36
-1.41
3.80
9.53
15.49
20.93
24.90
26.70
26.13
23.45
19.16
13.84
8.02
2.23
-3.02
-7.39
-10.72
-13.21
-15.23
-17.14
-19.14
-21.17
-23.06
-24.72
-26.25
-27.87
-29.84
-32.29
-35.15
-38.28
-41.50
-44.67
-47.65
-50.24
-52.19
-53.29
-53.62
-53.53
-53.60
-54.35
-55.93
-58.02
-60.05
-61.42
-61.80
-61.21
-59.83
-57.93
-55.62
-53.02
-50.29
-47.77
-45.89
-44.96
-45.06
-45.98
-47.33
-48.64
-49.49
-49.52
-48.46
-46.16
-42.76
-38.69
-34.62
-31.17
-28.75
-27.42
-26.88
-26.77
-26.69
-26.35
-25.38
-23.24
-19.36
-13.25
-4.85
5.36
16.42
27.20
36.72
44.44
50.33
54.62
57.61
59.47
60.20
59.63
57.69
54.46
50.23
45.46
40.65
36.18
32.20
28.68
25.45
22.32
19.20
16.09
12.98
9.86
6.59
2.92
-1.51
-6.99
-13.68
-21.48
-29.94
-38.27
-45.46
-50.53
-52.78
-51.99
-48.58
-43.46
-37.81
-32.82
-29.39
-28.01
-28.82
-31.61
-36.07
-41.76
-48.31
-55.38
-62.70
-70.05
-77.10
-83.27
-87.74
-89.60
-88.18
-83.35
-75.71
-66.41
-56.71
-47.56
-39.34
-31.95
-25.12
-18.74
-12.94
-8.02
-4.22
-1.50
0.55
2.61
5.48
9.85
16.05
23.89
32.56
40.88
47.63
52.01
53.99
54.29
54.05
54.36
55.84
58.57
62.28
66.75
72.04
78.55
86.68
96.54
107.67
119.12
129.65
138.09
143.56
145.60
144.14
139.39
131.77
121.86
110.36
98.03
85.60
73.68
62.79
53.29
45.41
39.21
34.55
31.11
28.52
26.56
25.14
24.39
24.45
25.30
26.67
28.03
28.83
28.61
27.20
24.77
21.76
18.63
15.68
12.97
10.30
7.36
3.94
0.19
-3.43
-6.18
-7.38
-6.61
-3.99
-0.07
4.30
8.32
11.51
13.83
15.67
17.59
20.08
23.40
27.58
32.48
37.93
43.69
49.32
54.21
57.88
60.40
62.74
66.70
74.12
85.91
101.25
117.67
131.99
141.74
146.50
148.07
149.59
153.70
160.87
168.68
172.43
166.83
147.94
114.50
68.52
14.66
-40.75
-91.08
-130.64
-155.76
-165.74
-163.33
-154.40
-146.52
-146.40
-157.26
-177.40
-200.71
-219.29
-226.86
-221.32
-205.29
-184.46
-164.86
-150.35
-141.64
-136.80
-132.54
-125.55
-113.31
-94.61
-69.80
-41.16
-12.92
9.48
20.67
17.00
-2.28
-34.43
-73.74
-112.67
-143.68
-161.04
-162.36
-149.02
-125.45
-97.43
-70.08
-46.38
-26.90
-10.50
4.27
18.06
30.26
39.24
42.98
39.84
29.16
11.70
-10.08
-32.19
-49.82
-58.65
-56.25
-43.02
-22.13
1.41
22.37
36.90
43.52
43.28
38.78
32.91
27.54
23.05
18.82
14.23
9.55
5.92
4.64
6.14
9.55
13.05
14.75
13.62
9.72
3.94
-2.60
-9.14
-15.54
-22.07
-29.05
-36.51
-44.09
-51.05
-56.42
-59.42
-59.59
-57.21
-53.37
-49.68
-47.73
-48.52
-52.06
-57.26
-62.18
-64.63
-62.97
-56.67
-46.69
-35.26
-25.18
-18.79
-17.22
-20.25
-26.71
-35.34
-45.36
-56.68
-69.38
-82.78
-94.78
-102.05
-101.16
-90.32
-70.67
-46.21
-22.38
-3.88
7.26
12.19
14.26
17.18
23.31
32.96
44.77
56.78
67.59
76.69
84.30
90.63
95.33
97.31
95.24
88.29
76.79
62.46
47.94
35.79
27.57
23.31
21.79
21.27
20.53
19.47
19.08
20.80
25.54
32.95
41.38
48.49
52.40
52.57
50.00
46.71
44.57
44.34
45.30
45.70
43.75
38.44
29.96
19.39
8.23
-2.25
-11.20
-18.10
-22.73
-25.03
-25.29
-24.11
-22.36
-20.84
-19.95
-19.64
-19.59
-19.53
-19.65
-20.54
-22.91
-27.06
-32.45
-37.71
-41.05
-41.01
-37.02
-29.59
-20.05
-9.84
0.05
9.36
18.23
26.93
35.36
43.10
49.69
54.88
58.75
61.44
62.95
63.07
61.65
58.86
55.27
51.66
48.49
45.78
43.17
40.44
37.92
36.49
37.12
40.09
44.60
48.77
50.42
47.84
40.55
29.39
16.16
3.03
-8.14
-16.14
-20.48
-21.20
-18.54
-12.80
-4.30
6.36
18.16
29.56
38.79
44.41
45.85
43.69
39.41
34.86
31.48
29.98
30.48
32.77
36.78
42.52
49.87
58.40
67.38
76.00
83.73
90.40
96.03
100.62
103.84
105.08
103.77
99.74
93.41
85.82
78.43
72.66
69.42
68.78
69.89
71.20
70.96
67.64
60.29
48.45
32.12
11.83
-11.31
-35.71
-59.78
-82.70
-104.84
-127.43
-151.47
-176.29
-198.77
-213.81
-216.00
-201.44
-168.85
-119.66
-57.33
13.14
85.59
152.96
208.26
246.07
264.36
265.51
255.54
241.99
231.04
225.45
223.90
222.21
215.39
199.90
174.94
142.59
106.82
71.95
41.22
15.93
-4.40
-21.22
-36.01
-49.67
-62.52
-74.60
-86.08
-97.18
-107.89
-117.84
-126.74
-135.05
-144.24
-156.02
-170.66
-185.71
-196.44
-197.92
-188.01
-169.16
-147.53
-130.04
-120.69
-118.68
-119.46
-118.00
-111.94
-102.98
-95.62
-94.39
-101.32
-115.02
-131.76
-147.44
-159.46
-167.37
-172.17
-174.92
-175.37
-171.51
-160.50
-140.36
-111.69
-78.21
-45.59
-19.31
-2.35
5.78
8.25
9.02
10.84
14.40
18.75
22.44
24.61
25.41
25.83
26.90
29.21
32.71
36.88
40.99
44.33
46.35
46.67
45.17
41.95
37.40
32.25
27.28
23.11
19.87
17.13
14.10
10.06
4.93
-0.45
-4.40
-4.97
-0.67
8.85
22.75
39.42
57.24
75.30
93.73
113.58
136.47
164.22
198.41
239.93
288.31
341.16
394.02
441.07
476.55
496.56
500.26
489.90
469.63
443.62
414.68
383.80
350.93
316.02
279.85
243.86
209.39
176.91
145.71
114.40
81.75
47.35
11.70
-24.32
-60.05
-95.27
-129.91
-163.51
-194.76
-221.80
-242.89
-257.38
-266.15
-271.31
-275.31
-279.83
-285.21
-290.54
-294.36
-295.47
-293.38
-288.24
-280.46
-270.39
-258.21
-244.22
-229.01
-213.52
-198.79
-185.60
-174.08
-163.80
-153.99
-143.98
-133.59
-123.18
-113.52
-105.37
-99.22
-94.91
-91.65
-88.02
-82.28
-72.75
-58.27
-38.64
-14.74
11.57
37.80
61.33
79.80
91.38
95.13
91.19
80.90
66.71
51.55
38.14
28.23
22.34
20.04
20.55
23.31
28.09
34.82
43.09
51.88
59.61
64.54
65.33
61.37
52.99
41.23
27.45
12.90
-1.64
-15.96
-30.24
-44.62
-58.76
-71.74
-82.19
-88.82
-90.90
-88.57
-82.80
-75.05
-66.72
-58.79
-51.76
-45.70
-40.49
-36.09
-32.56
-30.05
-28.74
-28.72
-30.01
-32.48
-35.79
-39.33
-42.20
-43.44
-42.36
-38.86
-33.51
-27.35
-21.51
-16.69
-13.11
-10.58
-8.82
-7.79
-7.73
-8.96
-11.53
-15.02
-18.59
-21.35
-22.82
-23.14
-22.95
-22.97
-23.60
-24.72
-25.86
-26.58
-26.85
-27.17
-28.29
-30.83
-34.96
-40.30
-46.13
-51.71
-56.40
-59.89
-62.09
-63.15
-63.38
-63.10
-62.56
-61.67
-60.06
-57.13
-52.26
-45.16
-36.14
-26.19
-16.82
-9.70
-6.13
-6.55
-10.35
-15.81
-20.46
-21.72
-17.55
-7.12
8.98
28.83
49.79
69.19
85.21
97.39
106.73
115.26
125.01
137.05
150.79
164.08
174.00
178.07
175.33
166.56
153.97
140.18
127.08
115.22
103.71
90.64
73.84
51.79
24.32
-7.09
-39.54
-69.41
-93.48
-109.86
-118.36
-120.30
-117.78
-112.93
-107.43
-102.47
-98.74
-96.61
-95.93
-95.99
-95.51
-92.99
-87.21
-77.77
-65.36
-51.58
-38.42
-27.61
-20.00
-15.33
-12.52
-10.24
-7.53
-4.15
-0.62
2.25
3.85
4.15
3.64
3.10
3.07
3.73
4.81
5.93
6.81
7.45
8.06
8.94
10.21
11.69
12.93
13.43
12.87
11.28
9.00
6.56
4.46
3.02
2.46
2.89
4.37
6.91
10.34
14.37
18.54
22.51
26.24
30.05
34.45
39.77
45.78
51.51
55.59
56.74
54.41
49.28
43.23
38.92
39.10
45.85
60.19
81.90
109.65
141.18
173.41
202.70
225.32
238.18
239.53
229.43
209.62
182.97
152.63
121.37
91.16
63.19
38.16
16.35
-2.13
-17.40
-29.68
-39.16
-45.99
-50.29
-52.38
-52.90
-52.82
-53.12
-54.53
-57.28
-61.07
-65.32
-69.45
-73.06
-76.04
-78.44
-80.32
-81.68
-82.43
-82.45
-81.70
-80.28
-78.41
-76.40
-74.50
-72.78
-71.16
-69.51
-67.82
-66.31
-65.35
-65.33
-66.35
-68.15
-70.20
-71.86
-72.53
-71.80
-69.44
-65.27
-59.21
-51.33
-41.94
-31.57
-20.95
-10.84
-1.85
5.66
11.58
16.01
19.13
21.10
22.03
21.90
20.62
18.22
14.81
10.69
6.31
2.15
-1.38
-4.13
-6.09
-7.47
-8.50
-9.32
-10.06
-10.74
-11.46
-12.37
-13.74
-15.83
-18.79
-22.61
-26.97
-31.28
-34.71
-36.38
-35.55
-31.89
-25.47
-16.85
-6.80
3.79
14.12
23.50
31.28
36.97
40.25
41.08
39.76
36.85
33.04
28.90
24.81
20.94
17.27
13.75
10.36
7.25
4.62
2.59
1.20
0.24
-0.64
-1.82
-3.55
-5.89
-8.75
-12.07
-15.87
-20.25
-25.33
-31.01
-36.85
-42.03
-45.55
-46.49
-44.26
-38.77
-30.44
-20.09
-8.75
2.57
13.02
22.01
29.15
34.27
37.36
38.52
37.94
35.88
32.63
28.53
24.02
19.56
15.68
12.83
11.26
10.96
11.58
12.61
13.43
13.61
12.92
11.41
9.30
6.94
4.67
2.77
1.35
0.22
-1.09
-3.18
-6.55
-11.24
-16.65
-21.65
-24.81
-24.94
-21.39
-14.29
-4.43
6.96
18.55
29.18
37.99
44.52
48.64
50.49
50.39
48.77
46.10
42.89
39.59
36.60
34.20
32.55
31.71
31.64
32.22
33.13
33.89
33.89
32.45
29.14
23.81
16.85
8.99
1.14
-5.97
-12.00
-17.15
-22.05
-27.42
-33.76
-41.08
-48.69
-55.34
-59.35
-58.97
-52.96
-40.92
-23.54
-2.48
20.14
42.35
62.79
80.78
96.02
108.03
115.95
118.54
114.69
104.01
87.14
65.72
42.06
18.62
-2.35
-19.13
-30.74
-37.10
-38.96
-37.74
-35.22
-32.98
-32.17
-33.30
-36.32
-40.96
-46.92
-54.08
-62.54
-72.50
-84.02
-96.83
-110.19
-122.89
-133.64
-141.34
-145.47
-146.00
-143.27
-137.58
-129.15
-118.13
-104.96
-90.49
-75.97
-62.65
-51.28
-41.87
-33.81
-26.29
-18.75
-11.16
-3.91
2.58
8.05
12.58
16.34
19.37
21.43
22.26
21.89
20.87
20.14
20.64
22.74
25.97
29.23
31.34
31.54
29.72
26.24
21.45
15.37
7.84
-1.04
-10.37
-18.33
-22.59
-21.15
-13.12
0.86
18.85
38.34
57.10
73.71
87.68
99.01
107.79
113.72
116.21
114.65
108.84
99.19
86.73
72.75
58.46
44.75
32.17
21.03
11.57
4.06
-1.30
-4.55
-5.94
-5.96
-5.17
-3.99
-2.56
-0.75
1.68
4.84
8.51
12.17
15.08
16.62
16.59
15.31
13.56
12.34
12.61
15.01
19.78
26.73
35.26
44.55
53.63
61.56
67.53
70.96
71.50
69.04
63.76
56.21
47.23
37.77
28.69
20.47
13.13
6.42
0.06
-6.02
-11.51
-16.04
-19.31
-21.29
-22.29
-22.74
-23.07
-23.58
-24.45
-25.81
-27.78
-30.42
-33.71
-37.45
-41.30
-44.78
-47.34
-48.40
-47.49
-44.30
-38.87
-31.59
-23.17
-14.50
-6.36
0.70
6.46
10.93
14.15
16.15
16.86
16.26
14.52
12.01
9.26
6.73
4.68
3.07
1.64
0.15
-1.50
-3.16
-4.64
-5.75
-6.50
-7.08
-7.69
-8.45
-9.40
-10.47
-11.68
-13.07
-14.84
-17.17
-20.20
-23.88
-27.85
-31.50
-34.00
-34.54
-32.52
-27.76
-20.60
-11.73
-2.07
7.50
16.26
23.69
29.45
33.32
35.21
35.24
33.72
31.15
28.02
24.73
21.48
18.32
15.23
12.22
9.41
6.97
5.02
3.56
2.41
1.29
-0.04
-1.74
-3.79
-6.14
-8.70
-11.47
-14.55
-18.08
-22.24
-27.08
-32.51
-38.15
-43.38
-47.32
-49.06
-47.89
-43.45
-35.91
-25.93
-14.49
-2.67
8.49
18.17
25.85
31.26
34.44
35.62
35.13
33.36
30.63
27.23
23.34
19.18
14.95
10.91
7.28
4.23
1.81
0.01
-1.29
-2.22
-2.96
-3.74
-4.78
-6.24
-8.18
-10.54
-13.18
-16.04
-19.13
-22.56
-26.43
-30.65
-34.93
-38.69
-41.16
-41.61
-39.48
-34.53
-26.95
-17.33
-6.54
4.45
14.72
23.54
30.44
35.17
37.73
38.31
37.26
34.95
31.74
27.92
23.78
19.58
15.64
12.31
9.77
8.11
7.21
6.83
6.68
6.58
6.34
5.85
5.00
3.70
1.93
-0.25
-2.74
-5.45
-8.37
-11.58
-15.20
-19.29
-23.76
-28.31
-32.39
-35.33
-36.38
-34.98
-30.84
-24.15
-15.49
-5.80
3.91
12.72
19.96
25.32
28.76
30.42
30.56
29.46
27.33
24.40
20.84
16.89
12.82
9.00
5.76
3.34
1.80
1.01
0.76
0.83
1.03
1.21
1.18
0.78
-0.16
-1.70
-3.79
-6.24
-8.86
-11.53
-14.30
-17.33
-20.80
-24.70
-28.78
-32.44
-34.86
-35.19
-32.83
-27.62
-19.92
-10.53
-0.42
9.46
18.36
25.81
31.50
35.24
36.91
36.55
34.36
30.77
26.37
21.75
17.34
13.37
9.90
6.98
4.64
2.99
2.08
1.80
1.90
2.02
1.84
1.22
0.20
-1.09
-2.59
-4.40
-6.86
-10.32
-15.02
-20.90
-27.54
-34.19
-39.97
-44.05
-45.80
-44.91
-41.38
-35.51
-27.77
-18.82
-9.42
-0.39
7.47
13.49
17.23
18.62
17.92
15.60
12.22
8.24
3.96
-0.48
-5.08
-9.99
-15.40
-21.52
-28.42
-35.86
-43.22
-49.59
-54.05
-56.00
-55.39
-52.81
-49.33
-46.13
-44.17
-43.92
-45.25
-47.53
-49.86
-51.39
-51.52
-50.10
-47.30
-43.36
-38.44
-32.46
-25.21
-16.63
-7.00
3.01
12.51
20.73
27.23
31.93
35.04
36.80
37.30
36.55
34.50
31.26
27.10
22.49
17.89
13.71
10.20
7.35
5.04
3.02
1.02
-1.15
-3.54
-6.08
-8.59
-10.80
-12.50
-13.57
-14.11
-14.48
-15.28
-17.11
-20.44
-25.30
-31.23
-37.28
-42.27
-45.06
-44.85
-41.38
-34.96
-26.45
-16.96
-7.76
0.15
6.26
10.71
14.28
18.00
22.67
28.38
34.39
39.42
42.24
42.22
39.55
35.05
29.68
24.16
18.88
13.98
9.68
6.34
4.35
3.84
4.53
5.78
6.96
7.64
7.59
6.57
4.02
-0.94
-9.15
-20.74
-34.73
-49.03
-61.09
-68.84
-71.40
-69.23
-63.71
-56.25
-47.73
-38.32
-27.85
-16.38
-4.49
6.68
15.92
22.40
26.00
27.32
27.30
26.84
26.44
26.10
25.52
24.41
22.77
20.91
19.37
18.63
18.78
19.53
20.24
20.28
19.19
16.84
13.42
9.23
4.50
-0.68
-6.41
-12.83
-19.94
-27.48
-34.85
-41.21
-45.72
-47.80
-47.28
-44.51
-40.12
-34.85
-29.24
-23.57
-17.81
-11.85
-5.58
0.89
7.41
13.78
19.98
26.16
32.51
39.12
45.85
52.33
58.10
62.73
65.95
67.70
68.06
67.12
65.05
62.02
58.25
54.01
49.50
44.87
40.05
34.86
29.05
22.55
15.58
8.67
2.62
-1.76
-3.80
-3.15
0.15
5.71
12.80
20.42
27.49
33.13
36.87
38.77
39.29
39.00
38.26
37.06
35.18
32.47
29.02
25.24
21.65
18.62
16.26
14.37
12.66
10.94
9.16
7.41
5.78
4.32
2.98
1.67
0.29
-1.26
-3.07
-5.32
-8.18
-11.73
-15.85
-20.10
-23.74
-25.87
-25.70
-22.81
-17.20
-9.40
-0.22
9.41
18.58
26.60
32.98
37.50
40.13
41.00
40.38
38.57
35.91
32.67
29.09
25.36
21.66
18.22
15.23
12.86
11.23
10.31
9.94
9.84
9.70
9.27
8.43
7.20
5.61
3.68
1.36
-1.51
-4.99
-9.07
-13.49
-17.79
-21.38
-23.64
-24.00
-22.08
-17.81
-11.56
-4.17
3.21
9.48
13.88
16.23
16.83
16.26
14.96
13.08
10.46
6.86
2.20
-3.31
-9.26
-15.18
-20.71
-25.64
-29.81
-33.08
-35.25
-36.05
-35.28
-32.79
-28.58
-22.78
-15.69
-7.73
0.63
8.89
16.65
23.54
29.29
33.70
36.72
38.55
39.68
40.84
42.72
45.80
50.12
55.25
60.53
65.24
68.88
71.18
72.04
71.41
69.23
65.51
60.39
54.20
47.40
40.48
33.85
27.79
22.44
17.88
14.09
11.06
8.72
6.97
5.68
4.67
3.78
2.82
1.67
0.25
-1.42
-3.28
-5.28
-7.48
-10.03
-13.10
-16.76
-20.80
-24.64
-27.50
-28.59
-27.42
-23.90
-18.42
-11.64
-4.31
2.90
9.43
14.86
18.90
21.40
22.34
21.87
20.21
17.61
14.35
10.69
6.92
3.35
0.26
-2.18
-3.94
-5.08
-5.72
-5.98
-5.98
-5.81
-5.58
-5.44
-5.54
-6.00
-6.85
-8.07
-9.59
-11.32
-13.25
-15.39
-17.74
-20.18
-22.42
-23.99
-24.36
-23.06
-19.87
-14.90
-8.54
-1.43
5.79
12.52
18.29
22.81
25.87
27.40
27.39
25.98
23.40
19.99
16.17
12.28
8.64
5.41
2.69
0.51
-1.13
-2.23
-2.83
-3.04
-3.04
-3.07
-3.31
-3.94
-5.01
-6.54
-8.49
-10.78
-13.32
-16.00
-18.68
-21.25
-23.57
-25.46
-26.72
-27.06
-26.15
-23.75
-19.77
-14.37
-7.96
-1.16
5.34
10.91
15.11
17.79
19.00
18.94
17.88
16.04
13.61
10.76
7.71
4.67
1.87
-0.49
-2.27
-3.44
-4.02
-4.11
-3.94
-3.77
-3.85
-4.37
-5.34
-6.65
-8.08
-9.47
-10.75
-12.00
-13.41
-15.21
-17.53
-20.36
-23.42
-26.25
-28.28
-28.94
-27.78
-24.63
-19.59
-13.05
-5.66
1.86
8.78
14.51
18.69
21.16
22.01
21.47
19.80
17.26
14.07
10.44
6.61
2.87
-0.54
-3.41
-5.65
-7.30
-8.45
-9.21
-9.66
-9.87
-9.86
-9.72
-9.54
-9.44
-9.49
-9.72
-10.07
-10.48
-10.99
-11.69
-12.76
-14.35
-16.47
-18.90
-21.20
-22.76
-22.96
-21.33
-17.69
-12.23
-5.45
1.91
9.07
15.38
20.43
24.01
26.08
26.70
26.01
24.18
21.48
18.24
14.79
11.43
8.35
5.68
3.50
1.84
0.71
0.04
-0.31
-0.47
-0.51
-0.41
-0.15
0.25
0.63
0.79
0.53
-0.20
-1.26
-2.42
-3.47
-4.35
-5.15
-5.94
-6.68
-7.09
-6.70
-4.99
-1.54
3.81
10.93
19.36
28.39
37.03
44.14
48.54
49.20
45.51
37.44
25.67
11.41
-3.81
-18.49
-31.47
-42.01
-49.85
-55.04
-57.83
-58.53
-57.45
-54.99
-51.57
-47.67
-43.75
-40.18
-37.13
-34.64
-32.58
-30.80
-29.21
-27.83
-26.75
-26.15
-26.11
-26.59
-27.34
-27.91
-27.82
-26.60
-24.00
-20.00
-14.81
-8.85
-2.58
3.51
8.97
13.47
16.77
18.75
19.45
19.04
17.78
15.96
13.87
11.72
9.64
7.72
6.02
4.60
3.57
2.98
2.81
2.98
3.31
3.62
3.79
3.75
3.51
3.10
2.54
1.81
0.88
-0.33
-1.93
-3.98
-6.43
-9.07
-11.50
-13.23
-13.82
-12.97
-10.68
-7.14
-2.75
2.06
6.85
11.20
14.77
17.29
18.61
18.73
17.80
16.05
13.72
11.02
8.10
5.08
2.16
-0.47
-2.61
-4.12
-5.01
-5.40
-5.50
-5.49
-5.50
-5.55
-5.59
-5.58
-5.47
-5.28
-5.15
-5.27
-5.88
-7.21
-9.32
-12.00
-14.76
-16.92
-17.77
-16.79
-13.85
-9.24
-3.58
2.39
8.03
12.92
16.82
19.65
21.33
21.79
21.00
19.06
16.20
12.79
9.18
5.69
2.51
-0.23
-2.44
-4.05
-5.05
-5.53
-5.64
-5.60
-5.56
-5.60
-5.70
-5.81
-5.94
-6.17
-6.67
-7.62
-9.14
-11.24
-13.73
-16.35
-18.71
-20.46
-21.25
-20.79
-18.91
-15.55
-10.84
-5.11
1.13
7.27
12.67
16.86
19.56
20.75
20.57
19.32
17.29
14.72
11.84
8.80
5.80
3.04
0.75
-0.90
-1.87
-2.23
-2.20
-1.99
-1.82
-1.78
-1.91
-2.18
-2.55
-3.03
-3.70
-4.67
-6.03
-7.88
-10.17
-12.74
-15.26
-17.30
-18.44
-18.31
-16.69
-13.54
-9.02
-3.45
2.71
8.91
14.57
19.21
22.49
24.29
24.66
23.76
21.82
19.07
15.75
12.14
8.56
5.36
2.77
0.89
-0.36
-1.18
-1.76
-2.26
-2.73
-3.18
-3.68
-4.30
-5.14
-6.25
-7.61
-9.15
-10.84
-12.70
-14.84
-17.27
-19.91
-22.44
-24.40
-25.31
-24.77
-22.61
-18.92
-14.04
-8.43
-2.63
2.85
7.59
11.28
13.76
14.99
15.03
14.04
12.22
9.80
7.00
4.07
1.21
-1.35
-3.42
-4.90
-5.74
-6.05
-5.95
-5.62
-5.20
-4.78
-4.37
-4.00
-3.68
-3.48
-3.50
-3.90
-4.81
-6.29
-8.28
-10.58
-12.83
-14.63
-15.54
-15.25
-13.53
-10.39
-6.02
-0.83
4.62
9.71
13.91
16.91
18.60
19.12
18.69
17.53
15.78
13.52
10.88
8.05
5.31
2.99
1.26
0.17
-0.42
-0.70
-0.86
-1.00
-1.13
-1.23
-1.31
-1.41
-1.60
-1.97
-2.60
-3.57
-4.90
-6.57
-8.45
-10.30
-11.80
-12.60
-12.40
-10.94
-8.14
-4.11
0.88
6.32
11.62
16.19
19.65
21.80
22.65
22.34
21.03
18.85
15.95
12.51
8.79
5.10
1.78
-0.93
-2.92
-4.20
-4.94
-5.38
-5.74
-6.20
-6.79
-7.45
-8.09
-8.70
-9.40
-10.41
-12.03
-14.38
-17.39
-20.75
-23.99
-26.61
-28.18
-28.42
-27.19
-24.49
-20.43
-15.26
-9.33
-3.09
2.99
8.53
13.33
17.34
20.63
23.34
25.48
27.01
27.79
27.73
26.86
25.38
23.58
21.72
19.97
18.31
16.58
14.60
12.22
9.38
6.13
2.56
-1.18
-4.96
-8.66
-12.19
-15.48
-18.47
-21.07
-23.20
-24.73
-25.54
-25.47
-24.35
-22.05
-18.54
-13.96
-8.62
-2.99
2.39
7.15
11.07
14.19
16.65
18.58
19.99
20.75
20.69
19.78
18.19
16.30
14.48
13.01
11.92
11.01
10.05
8.83
7.34
5.72
4.21
3.00
2.22
1.90
2.01
2.53
3.40
4.49
5.67
6.87
8.24
10.20
13.37
18.36
25.45
34.48
44.79
55.41
65.25
73.33
78.89
81.44
80.74
76.89
70.26
61.44
51.13
39.97
28.48
17.07
6.17
-3.73
-12.08
-18.49
-22.85
-25.43
-26.79
-27.50
-27.93
-28.15
-28.02
-27.48
-26.64
-25.88
-25.60
-26.04
-27.17
-28.76
-30.56
-32.49
-34.61
-37.06
-39.86
-42.80
-45.46
-47.35
-48.07
-47.47
-45.67
-42.94
-39.63
-36.03
-32.36
-28.82
-25.59
-22.95
-21.20
-20.59
-21.16
-22.70
-24.79
-26.90
-28.56
-29.47
-29.53
-28.79
-27.39
-25.54
-23.50
-21.49
-19.69
-18.23
-17.08
-16.17
-15.35
-14.55
-13.74
-13.04
-12.63
-12.67
-13.27
-14.36
-15.74
-17.05
-17.89
-17.86
-16.66
-14.12
-10.29
-5.42
-0.03
5.31
10.04
13.77
16.42
18.10
19.06
19.51
19.58
19.28
18.61
17.62
16.43
15.17
13.99
13.00
12.28
11.79
11.53
11.36
11.19
10.93
10.57
10.22
10.00
9.99
10.11
10.14
9.74
8.60
6.66
4.06
1.12
-1.75
-4.24
-6.15
-7.35
-7.71
-7.06
-5.26
-2.30
1.54
5.78
9.83
13.18
15.58
17.02
17.61
17.49
16.73
15.34
13.33
10.87
8.22
5.70
3.57
1.94
0.83
0.16
-0.12
-0.04
0.41
1.18
2.15
3.14
3.92
4.26
4.10
3.48
2.59
1.64
0.68
-0.38
-1.82
-3.96
-6.96
-10.74
-14.86
-18.61
-21.28
-22.32
-21.50
-18.95
-15.15
-10.70
-6.27
-2.40
0.50
2.24
2.81
2.36
1.14
-0.54
-2.41
-4.25
-5.97
-7.51
-8.84
-9.96
-10.89
-11.62
-12.18
-12.53
-12.51
-11.93
-10.58
-8.45
-5.80
-3.12
-1.12
-0.34
-0.97
-2.59
-4.26
-4.81
-3.30
0.47
5.81
11.37
15.81
18.44
19.66
20.90
23.98
30.39
40.67
54.31
69.85
85.14
97.50
104.03
102.25
91.03
71.42
46.88
22.41
2.82
-9.01
-13.13
-12.20
-9.94
-9.48
-12.17
-17.50
-23.94
-29.98
-34.81
-38.38
-41.02
-42.94
-44.03
-43.99
-42.60
-40.10
-37.24
-34.95
-33.98
-34.42
-35.63
-36.52
-36.13
-34.08
-30.71
-26.79
-22.99
-19.48
-15.93
-11.80
-6.81
-1.17
4.48
9.44
13.24
15.81
17.31
17.93
17.74
16.70
14.78
12.12
9.04
5.87
2.81
-0.16
-3.23
-6.62
-10.40
-14.42
-18.35
-21.76
-24.31
-25.80
-26.27
-25.91
-24.95
-23.68
-22.26
-20.79
-19.29
-17.86
-16.57
-15.49
-14.59
-13.66
-12.35
-10.27
-7.13
-2.89
2.30
8.06
13.99
19.71
24.89
29.26
32.63
34.87
35.98
35.99
34.94
32.84
29.75
25.82
21.38
16.92
12.96
9.85
7.69
6.29
5.38
4.70
4.10
3.57
3.09
2.61
1.97
1.02
-0.37
-2.21
-4.50
-7.21
-10.31
-13.76
-17.41
-20.93
-23.84
-25.56
-25.62
-23.80
-20.24
-15.44
-10.10
-4.95
-0.51
2.95
5.39
6.95
7.72
7.75
6.99
5.45
3.19
0.42
-2.58
-5.54
-8.23
-10.46
-12.13
-13.09
-13.24
-12.57
-11.14
-9.19
-7.02
-4.95
-3.26
-2.06
-1.33
-0.98
-0.93
-1.17
-1.77
-2.90
-4.66
-7.05
-9.86
-12.73
-15.18
-16.72
-16.99
-15.85
-13.31
-9.56
-4.93
0.20
5.36
10.05
13.84
16.40
17.69
17.87
17.36
16.59
15.90
15.37
14.82
13.95
12.50
10.37
7.80
5.30
3.51
2.99
4.00
6.42
9.75
13.30
16.42
18.69
20.00
20.48
20.42
20.08
19.66
19.32
19.16
19.25
19.64
20.33
21.32
22.69
24.59
27.29
31.02
35.82
41.35
46.83
51.08
52.75
50.66
44.22
33.65
20.04
5.09
-9.36
-21.79
-31.39
-38.08
-42.28
-44.57
-45.41
-45.05
-43.68
-41.57
-39.13
-36.90
-35.31
-34.54
-34.40
-34.50
-34.37
-33.76
-32.75
-31.68
-31.04
-31.10
-31.89
-33.07
-34.15
-34.62
-34.19
-32.83
-30.75
-28.21
-25.42
-22.45
-19.28
-15.86
-12.25
-8.64
-5.30
-2.43
-0.16
1.53
2.73
3.54
3.96
3.93
3.39
2.37
1.06
-0.23
-1.20
-1.64
-1.53
-1.06
-0.48
-0.06
0.01
-0.33
-1.07
-2.09
-3.28
-4.54
-5.82
-7.12
-8.49
-9.98
-11.55
-13.06
-14.24
-14.75
-14.31
-12.74
-10.06
-6.46
-2.31
2.00
6.07
9.58
12.32
14.19
15.20
15.45
15.11
14.40
13.55
12.74
11.98
11.23
10.29
9.04
7.50
5.86
4.46
3.63
3.51
4.02
4.88
5.74
6.33
6.51
6.26
5.54
4.28
2.42
-0.05
-2.96
-5.97
-8.65
-10.58
-11.48
-11.20
-9.70
-7.05
-3.39
0.96
5.50
9.67
13.02
15.29
16.52
16.87
16.52
15.55
13.97
11.80
9.19
6.38
3.66
1.27
-0.73
-2.31
-3.50
-4.32
-4.80
-5.01
-5.10
-5.27
-5.68
-6.44
-7.61
-9.20
-11.25
-13.78
-16.75
-20.04
-23.45
-26.73
-29.56
-31.61
-32.58
-32.25
-30.57
-27.77
-24.30
-20.76
-17.74
-15.68
-14.76
-14.94
-15.99
-17.58
-19.36
-20.99
-22.14
-22.52
-21.92
-20.14
-17.08
-12.69
-6.98
-0.12
7.61
15.78
23.89
31.47
38.10
43.47
47.33
49.51
49.94
48.67
45.88
41.88
37.06
31.79
26.44
21.41
17.12
14.06
12.69
13.25
15.74
19.76
24.66
29.66
34.05
37.34
39.26
39.82
39.19
37.60
35.32
32.56
29.51
26.30
23.06
19.91
17.00
14.48
12.43
10.83
9.59
8.56
7.60
6.63
5.64
4.66
3.68
2.63
1.39
-0.20
-2.25
-4.86
-7.94
-11.32
-14.59
-17.21
-18.57
-18.11
-15.55
-10.93
-4.66
2.63
10.20
17.36
23.56
28.41
31.68
33.32
33.46
32.40
30.48
28.07
25.37
22.47
19.35
15.96
12.36
8.68
5.13
1.89
-0.99
-3.60
-6.09
-8.56
-10.98
-13.22
-15.06
-16.40
-17.28
-17.93
-18.68
-19.80
-21.40
-23.30
-25.12
-26.30
-26.31
-24.74
-21.41
-16.44
-10.15
-3.09
4.07
10.68
16.16
20.14
22.44
23.11
22.35
20.47
17.84
14.76
11.49
8.22
5.04
2.03
-0.72
-3.10
-5.00
-6.33
-7.11
-7.46
-7.61
-7.76
-8.10
-8.67
-9.51
-10.59
-11.96
-13.68
-15.78
-18.23
-20.80
-23.15
-24.82
-25.36
-24.38
-21.69
-17.29
-11.36
-4.26
3.51
11.40
18.81
25.15
29.94
32.83
33.69
32.57
29.66
25.33
20.01
14.23
8.57
3.53
-0.50
-3.35
-5.01
-5.69
-5.60
-5.01
-4.10
-3.08
-2.16
-1.56
-1.56
-2.40
-4.20
-6.94
-10.37
-14.04
-17.37
-19.75
-20.65
-19.77
-17.00
-12.54
-6.75
-0.21
6.44
12.57
17.66
21.36
23.55
24.26
23.64
21.85
18.99
15.25
10.88
6.29
1.99
-1.53
-4.00
-5.43
-6.09
-6.33
-6.43
-6.47
-6.39
-6.09
-5.58
-5.03
-4.74
-5.06
-6.23
-8.39
-11.45
-15.10
-18.84
-22.00
-23.84
-23.77
-21.45
-16.95
-10.76
-3.62
3.66
10.39
16.12
20.61
23.71
25.36
25.50
24.16
21.50
17.81
13.52
9.06
4.86
1.23
-1.63
-3.67
-4.94
-5.59
-5.78
-5.67
-5.39
-5.05
-4.78
-4.75
-5.17
-6.28
-8.23
-11.04
-14.55
-18.35
-21.88
-24.52
-25.68
-24.98
-22.30
-17.76
-11.71
-4.66
2.80
10.03
16.42
21.48
24.89
26.53
26.48
24.94
22.23
18.70
14.72
10.66
6.84
3.54
0.94
-0.92
-2.10
-2.78
-3.13
-3.34
-3.52
-3.69
-3.82
-3.89
-3.97
-4.25
-4.97
-6.40
-8.63
-11.50
-14.66
-17.55
-19.56
-20.14
-18.92
-15.79
-10.90
-4.65
2.38
9.50
16.07
21.47
25.27
27.21
27.23
25.54
22.53
18.71
14.61
10.66
7.10
4.01
1.36
-0.87
-2.73
-4.17
-5.17
-5.73
-5.96
-5.98
-5.96
-6.04
-6.32
-6.92
-7.89
-9.36
-11.40
-14.04
-17.10
-20.22
-22.81
-24.21
-23.87
-21.51
-17.24
-11.48
-4.86
1.95
8.36
13.90
18.21
21.02
22.23
21.89
20.24
17.65
14.55
11.29
8.11
5.16
2.53
0.28
-1.49
-2.79
-3.66
-4.23
-4.65
-4.96
-5.18
-5.28
-5.32
-5.43
-5.85
-6.77
-8.34
-10.58
-13.39
-16.52
-19.62
-22.19
-23.72
-23.66
-21.71
-17.81
-12.31
-5.82
0.90
7.12
12.32
16.21
18.72
19.93
19.92
18.83
16.78
13.97
10.70
7.36
4.32
1.83
0.00
-1.21
-1.93
-2.27
-2.35
-2.22
-1.97
-1.69
-1.50
-1.49
-1.75
-2.37
-3.44
-5.07
-7.33
-10.12
-13.16
-15.95
-17.85
-18.30
-16.93
-13.69
-8.88
-3.03
3.23
9.31
14.76
19.23
22.51
24.41
24.80
23.63
21.05
17.42
13.26
9.18
5.66
2.97
1.07
-0.28
-1.33
-2.25
-3.07
-3.73
-4.15
-4.37
-4.52
-4.73
-5.11
-5.68
-6.48
-7.59
-9.16
-11.33
-14.12
-17.24
-20.11
-21.98
-22.15
-20.21
-16.20
-10.56
-3.94
2.91
9.34
14.85
19.08
21.80
22.92
22.52
20.82
18.19
15.06
11.79
8.67
5.86
3.46
1.53
0.12
-0.77
-1.18
-1.28
-1.29
-1.42
-1.80
-2.42
-3.16
-3.88
-4.52
-5.12
-5.90
-7.07
-8.76
-10.97
-13.46
-15.85
-17.66
-18.39
-17.63
-15.16
-11.02
-5.51
0.87
7.46
13.59
18.70
22.38
24.47
25.03
24.26
22.48
19.96
16.94
13.60
10.07
6.55
3.33
0.69
-1.12
-2.02
-2.12
-1.66
-0.93
-0.17
0.45
0.81
0.75
0.15
-1.10
-2.98
-5.39
-8.14
-11.07
-14.07
-17.10
-20.05
-22.66
-24.46
-24.88
-23.45
-20.00
-14.74
-8.21
-1.13
5.83
12.10
17.28
21.09
23.37
24.07
23.28
21.28
18.41
15.05
11.52
8.10
4.99
2.38
0.40
-0.85
-1.39
-1.35
-0.92
-0.30
0.29
0.68
0.72
0.26
-0.73
-2.19
-3.96
-5.84
-7.72
-9.60
-11.58
-13.78
-16.21
-18.65
-20.66
-21.70
-21.28
-19.08
-15.13
-9.79
-3.65
2.56
8.20
12.82
16.20
18.38
19.45
19.53
18.68
16.97
14.54
11.63
8.64
5.98
3.94
2.63
1.93
1.56
1.26
0.90
0.46
0.09
-0.13
-0.18
-0.13
-0.12
-0.27
-0.68
-1.39
-2.44
-3.89
-5.84
-8.34
-11.31
-14.49
-17.46
-19.71
-20.70
-20.05
-17.56
-13.35
-7.84
-1.66
4.51
10.12
14.82
18.47
21.04
22.50
22.81
21.94
19.95
17.07
13.63
10.01
6.51
3.31
0.47
-1.95
-3.87
-5.18
-5.80
-5.76
-5.25
-4.51
-3.78
-3.24
-2.91
-2.80
-2.95
-3.43
-4.36
-5.78
-7.60
-9.61
-11.50
-12.94
-13.65
-13.35
-11.77
-8.72
-4.10
1.95
8.97
16.27
22.99
28.32
31.68
32.83
31.90
29.38
25.95
22.35
19.18
16.74
15.05
13.87
12.94
12.14
11.64
11.79
12.97
15.26
18.36
21.55
24.05
25.28
25.21
24.29
23.29
22.95
23.76
25.88
29.18
33.29
37.62
41.50
44.31
45.79
46.40
47.26
49.86
55.35
63.82
73.95
83.23
88.82
88.51
81.54
68.78
52.35
34.90
18.87
5.93
-3.23
-8.78
-11.49
-12.31
-12.06
-11.26
-10.13
-8.76
-7.36
-6.28
-6.09
-7.46
-11.17
-18.18
-29.56
-46.23
-68.47
-95.43
-124.89
-153.64
-178.46
-197.03
-208.61
-213.86
-214.15
-210.68
-204.09
-194.55
-182.30
-168.06
-152.85
-137.67
-122.92
-108.21
-92.69
-75.67
-56.98
-37.18
-17.32
1.52
18.44
32.85
44.32
52.61
57.73
60.07
60.52
60.32
60.84
62.98
66.94
72.05
76.94
80.02
79.99
76.23
68.99
59.23
48.36
37.78
28.62
21.35
15.67
10.48
4.10
-5.12
-18.13
-34.65
-53.01
-70.66
-85.11
-94.78
-99.44
-99.92
-97.30
-92.25
-84.63
-73.87
-59.65
-42.41
-23.40
-4.08
14.59
32.69
51.07
70.81
92.26
114.57
135.80
153.56
165.82
171.67
171.48
166.67
159.14
150.73
142.85
136.38
131.73
129.00
128.05
128.68
130.73
134.30
139.86
148.06
159.36
173.54
189.49
205.37
219.10
229.03
234.18
234.27
229.49
220.21
207.12
191.19
173.76
156.16
139.32
123.34
107.46
90.41
70.93
48.05
21.21
-9.91
-45.05
-82.74
-119.52
-149.69
-166.48
-164.34
-141.72
-102.67
-56.12
-12.88
18.43
34.40
37.29
32.73
26.24
20.60
15.35
8.45
-1.54
-14.24
-27.86
-40.74
-52.67
-65.11
-79.99
-98.18
-118.51
-137.98
-153.03
-161.06
-161.49
-155.87
-147.22
-138.80
-133.04
-130.89
-131.68
-133.66
-134.94
-134.21
-131.26
-126.84
-122.00
-117.49
-113.30
-108.82
-103.37
-96.69
-89.22
-82.03
-76.19
-72.31
-70.14
-68.71
-66.80
-63.59
-59.03
-53.80
-48.94
-45.48
-44.04
-44.84
-47.79
-52.60
-58.83
-65.85
-72.91
-79.10
-83.57
-85.66
-85.08
-82.00
-77.10
-71.48
-66.35
-62.68
-60.83
-60.41
-60.44
-59.93
-58.31
-55.76
-53.00
-50.92
-50.15
-50.79
-52.39
-54.25
-55.69
-56.21
-55.55
-53.54
-50.02
-44.82
-38.00
-29.96
-21.40
-12.93
-4.63
4.15
14.49
27.00
41.08
54.70
65.16
70.37
70.02
65.75
60.36
56.34
54.73
54.90
55.28
54.48
52.06
48.61
45.14
42.38
40.40
38.64
36.48
33.52
29.82
25.74
21.67
17.77
13.91
9.77
5.02
-0.46
-6.45
-12.51
-18.05
-22.63
-26.08
-28.57
-30.46
-32.08
-33.56
-34.71
-35.20
-34.74
-33.26
-31.11
-28.87
-27.26
-26.81
-27.71
-29.77
-32.46
-35.16
-37.32
-38.61
-38.93
-38.36
-37.06
-35.25
-33.17
-31.15
-29.44
-28.27
-27.63
-27.36
-27.17
-26.88
-26.45
-26.00
-25.76
-25.88
-26.30
-26.79
-27.02
-26.68
-25.55
-23.55
-20.72
-17.18
-13.17
-8.95
-4.84
-1.05
2.42
5.80
9.38
13.37
17.65
21.84
25.37
27.81
29.01
29.17
28.68
27.88
27.00
26.01
24.87
23.49
21.85
19.96
17.82
15.42
12.77
9.87
6.77
3.48
0.09
-3.33
-6.69
-9.91
-12.95
-15.79
-18.32
-20.33
-21.45
-21.26
-19.51
-16.18
-11.63
-6.41
-1.07
3.97
8.46
12.33
15.51
17.92
19.46
20.08
19.85
18.94
17.58
15.97
14.32
12.81
11.61
10.90
10.74
11.03
11.54
11.95
11.99
11.57
10.77
9.79
8.78
7.72
6.41
4.59
2.10
-1.01
-4.44
-7.73
-10.43
-12.19
-12.80
-12.16
-10.32
-7.34
-3.45
1.06
5.81
10.40
14.52
17.96
20.60
22.45
23.52
23.94
23.81
23.23
22.27
20.95
19.36
17.60
15.91
14.52
13.53
12.91
12.43
11.82
10.89
9.61
8.07
6.40
4.64
2.77
0.67
-1.72
-4.39
-7.26
-10.17
-12.95
-15.37
-17.15
-17.94
-17.40
-15.36
-11.87
-7.26
-1.97
3.55
9.01
14.26
19.25
23.92
28.18
31.88
34.85
36.94
38.08
38.22
37.37
35.62
33.17
30.31
27.37
24.70
22.54
21.00
19.98
19.25
18.50
17.45
16.00
14.22
12.26
10.28
8.27
6.08
3.51
0.38
-3.36
-7.62
-12.16
-16.63
-20.58
-23.47
-24.79
-24.15
-21.49
-17.14
-11.80
-6.33
-1.49
2.27
4.86
6.51
7.56
8.27
8.74
8.91
8.59
7.57
5.73
3.16
0.19
-2.56
-4.23
-3.96
-1.05
4.73
13.04
22.93
33.05
41.94
48.51
52.24
53.33
52.48
50.49
47.97
45.08
41.69
37.55
32.65
27.27
21.97
17.40
14.13
12.59
13.10
15.79
20.61
27.09
34.48
41.76
47.98
52.48
54.95
55.43
54.13
51.39
47.55
43.01
38.23
33.63
29.50
25.93
22.83
20.00
17.24
14.46
11.58
8.62
5.63
2.63
-0.32
-3.20
-6.08
-9.08
-12.40
-16.14
-20.23
-24.46
-28.55
-32.32
-35.75
-38.98
-42.08
-44.99
-47.49
-49.26
-50.02
-49.59
-47.88
-44.90
-40.70
-35.50
-29.71
-23.91
-18.73
-14.61
-11.58
-9.31
-7.20
-4.72
-1.63
1.90
5.53
8.86
11.71
14.10
16.09
17.62
18.46
18.29
16.88
14.32
11.01
7.50
4.33
1.72
-0.37
-2.23
-4.20
-6.55
-9.37
-12.57
-15.86
-18.77
-20.66
-20.76
-18.42
-13.25
-5.40
4.44
15.17
25.64
34.88
42.34
47.85
51.40
53.07
52.90
51.02
47.76
43.66
39.36
35.33
31.78
28.62
25.66
22.73
19.90
17.42
15.58
14.55
14.22
14.17
13.89
12.90
11.01
8.36
5.31
2.31
-0.35
-2.67
-4.81
-7.02
-9.40
-11.86
-14.13
-15.96
-17.15
-17.61
-17.29
-16.04
-13.71
-10.23
-5.73
-0.66
4.36
8.67
11.82
13.58
13.97
13.13
11.25
8.52
5.23
1.69
-1.64
-4.38
-6.22
-7.10
-7.09
-6.44
-5.44
-4.40
-3.58
-3.17
-3.24
-3.75
-4.56
-5.44
-6.22
-6.83
-7.34
-7.84
-8.42
-9.03
-9.54
-9.71
-9.40
-8.60
-7.41
-5.99
-4.50
-3.00
-1.51
0.03
1.61
3.19
4.57
5.49
5.68
4.97
3.40
1.20
-1.29
-3.74
-5.90
-7.66
-8.97
-9.85
-10.31
-10.40
-10.25
-10.01
-9.82
-9.74
-9.83
-10.05
-10.43
-10.94
-11.49
-11.96
-12.17
-12.08
-11.81
-11.62
-11.72
-12.12
-12.56
-12.64
-11.95
-10.36
-7.97
-5.13
-2.20
0.50
2.79
4.59
5.84
6.53
6.66
6.24
5.34
4.06
2.55
0.97
-0.54
-1.85
-2.89
-3.65
-4.13
-4.33
-4.22
-3.82
-3.23
-2.61
-2.15
-1.96
-2.05
-2.35
-2.74
-3.20
-3.77
-4.53
-5.52
-6.73
-8.02
-9.17
-9.90
-9.98
-9.25
-7.73
-5.57
-3.05
-0.45
2.06
4.40
6.55
8.50
10.13
11.30
11.87
11.83
11.27
10.35
9.18
7.84
6.39
4.93
3.63
2.70
2.32
2.52
3.19
4.08
4.97
5.69
6.21
6.53
6.67
6.59
6.21
5.44
4.27
2.74
0.98
-0.85
-2.56
-3.96
-4.82
-4.96
-4.28
-2.81
-0.75
1.59
3.90
5.89
7.38
8.30
8.64
8.50
7.98
7.23
6.38
5.49
4.56
3.55
2.44
1.28
0.21
-0.60
-0.99
-0.86
-0.26
0.67
1.69
2.53
2.95
2.79
2.05
0.86
-0.58
-2.03
-3.37
-4.57
-5.73
-6.95
-8.24
-9.50
-10.49
-10.90
-10.43
-8.96
-6.50
-3.29
0.30
3.88
7.07
9.61
11.36
12.32
12.64
12.49
12.10
11.62
11.18
10.83
10.59
10.42
10.24
9.95
9.43
8.67
7.72
6.80
6.10
5.74
5.68
5.74
5.70
5.47
5.09
4.71
4.47
4.36
4.25
3.92
3.27
2.37
1.51
1.12
1.54
2.99
5.42
8.56
12.03
15.43
18.48
20.97
22.75
23.67
23.51
22.15
19.62
16.24
12.45
8.72
5.31
2.27
-0.53
-3.23
-5.86
-8.32
-10.47
-12.29
-13.90
-15.55
-17.45
-19.69
-22.14
-24.56
-26.68
-28.35
-29.58
-30.56
-31.51
-32.62
-33.86
-34.96
-35.54
-35.20
-33.69
-30.99
-27.29
-22.90
-18.20
-13.55
-9.26
-5.55
-2.55
-0.27
1.41
2.66
3.61
4.32
4.76
4.91
4.81
4.61
4.50
4.64
5.08
5.82
6.76
7.82
8.93
10.02
11.03
11.90
12.59
13.05
13.34
13.48
13.53
13.53
13.52
13.55
13.66
13.89
14.21
14.67
15.32
16.31
17.78
19.83
22.40
25.32
28.29
30.97
33.00
33.93
33.34
30.83
26.31
20.10
12.95
5.86
-0.24
-4.84
-7.88
-9.68
-10.53
-10.49
-9.36
-6.85
-2.88
2.20
7.72
12.95
17.35
20.79
23.48
25.84
28.32
31.27
34.92
39.22
43.83
47.91
50.29
49.76
45.59
37.96
28.02
17.51
8.14
1.00
-3.69
-6.36
-7.67
-8.19
-8.35
-8.53
-9.29
-11.28
-15.07
-20.78
-28.01
-35.98
-43.85
-51.15
-57.82
-64.23
-70.76
-77.62
-84.67
-91.51
-97.74
-103.14
-107.75
-111.89
-115.94
-120.25
-125.01
-130.12
-135.25
-139.77
-142.94
-144.07
-142.82
-139.38
-134.58
-129.61
-125.70
-123.46
-122.58
-121.88
-119.70
-114.70
-106.50
-95.81
-84.08
-72.76
-62.57
-53.28
-44.05
-34.08
-23.25
-12.16
-1.83
6.95
14.02
19.87
25.29
30.85
36.71
42.59
48.00
52.57
56.14
58.76
60.57
61.72
62.33
62.54
62.55
62.63
63.15
64.44
66.69
69.87
73.67
77.53
80.76
82.70
82.90
81.25
78.01
73.71
68.94
64.18
59.61
55.21
50.85
46.45
42.05
37.72
33.53
29.41
25.26
21.06
17.11
13.99
12.35
12.58
14.44
17.12
19.49
20.62
20.27
18.76
16.62
14.00
10.36
4.78
-3.47
-14.16
-25.87
-36.44
-43.82
-46.99
-46.19
-42.66
-37.87
-32.91
-28.22
-23.89
-19.94
-16.63
-14.31
-13.16
-12.95
-13.06
-12.65
-10.97
-7.59
-2.53
3.85
10.91
18.01
24.60
30.45
35.63
40.38
44.97
49.43
53.57
57.02
59.49
60.89
61.40
61.29
60.81
60.12
59.31
58.48
57.81
57.46
57.48
57.78
58.17
58.42
58.47
58.35
58.16
57.95
57.71
57.45
57.30
57.61
58.82
61.26
64.92
69.21
73.06
75.21
74.69
71.22
65.37
58.22
50.85
43.83
36.97
29.53
20.62
9.53
-3.98
-19.66
-36.66
-53.60
-68.59
-79.71
-85.56
-85.86
-81.76
-75.58
-69.99
-67.02
-67.25
-69.57
-71.75
-71.47
-67.39
-59.75
-50.26
-41.35
-35.11
-32.54
-33.35
-36.45
-40.91
-46.80
-55.51
-69.23
-89.79
-117.19
-148.74
-179.15
-201.75
-210.55
-202.18
-176.60
-136.50
-85.83
-28.43
32.29
92.80
148.69
194.85
226.68
241.90
241.65
230.22
213.44
196.56
182.84
173.19
166.95
162.95
159.99
156.96
152.35
144.17
130.35
109.64
82.44
51.03
19.15
-9.31
-31.60
-47.00
-56.69
-62.88
-67.54
-71.48
-74.20
-74.52
-71.59
-65.62
-57.92
-50.34
-44.39
-40.67
-38.75
-37.55
-35.95
-33.26
-29.16
-23.36
-15.16
-3.48
12.75
33.82
58.64
84.80
109.22
129.19
143.36
151.99
156.60
159.04
160.61
161.51
160.96
157.74
150.96
140.45
126.93
111.71
96.27
81.89
69.37
58.99
50.67
44.07
38.69
33.97
29.34
24.42
19.22
14.22
10.40
8.67
9.34
11.70
14.05
14.38
11.20
4.21
-5.78
-17.46
-29.85
-42.92
-57.44
-74.44
-94.53
-117.38
-141.63
-165.19
-185.58
-200.47
-208.13
-207.79
-199.72
-185.08
-165.51
-142.71
-118.47
-94.59
-72.98
-55.31
-42.48
-34.21
-29.10
-25.33
-21.63
-17.68
-13.88
-10.77
-8.70
-8.04
-9.63
-14.89
-25.23
-41.09
-61.23
-82.66
-101.61
-114.66
-119.70
-116.23
-105.08
-87.99
-67.45
-46.42
-27.90
-14.19
-6.14
-2.73
-1.66
-0.38
2.80
8.33
15.60
23.59
31.42
38.64
45.17
50.90
55.58
58.72
59.84
58.76
55.73
51.32
46.15
40.47
34.07
26.48
17.35
6.79
-4.61
-15.97
-26.57
-35.97
-44.03
-50.71
-55.72
-58.60
-58.95
-56.77
-52.65
-47.68
-43.03
-39.46
-37.16
-35.79
-34.80
-33.80
-32.76
-31.96
-31.77
-32.39
-33.63
-34.98
-35.82
-35.74
-34.69
-33.06
-31.40
-30.10
-29.15
-28.13
-26.35
-23.28
-18.81
-13.38
-7.82
-3.09
0.08
1.36
0.85
-1.15
-4.23
-8.00
-12.06
-15.92
-19.00
-20.71
-20.67
-18.83
-15.57
-11.60
-7.71
-4.57
-2.55
-1.67
-1.73
-2.44
-3.61
-5.14
-6.99
-9.03
-10.95
-12.27
-12.51
-11.34
-8.74
-5.08
-0.98
2.92
6.13
8.43
9.88
10.76
11.39
12.04
12.84
13.74
14.56
15.07
15.08
14.54
13.55
12.31
10.97
9.63
8.30
6.95
5.56
4.18
2.85
1.61
0.44
-0.71
-1.92
-3.26
-4.83
-6.70
-8.93
-11.53
-14.35
-17.09
-19.35
-20.62
-20.42
-18.47
-14.70
-9.36
-2.96
3.79
10.17
15.56
19.64
22.38
23.99
24.76
24.96
24.72
24.07
23.05
21.73
20.29
18.90
17.68
16.61
15.58
14.37
12.89
11.15
9.25
7.32
5.41
3.50
1.52
-0.59
-2.81
-5.03
-7.09
-8.77
-9.79
-9.91
-8.90
-6.68
-3.47
0.34
4.24
7.73
10.51
12.45
13.57
13.97
13.70
12.81
11.36
9.50
7.43
5.37
3.48
1.76
0.22
-1.19
-2.37
-3.16
-3.38
-2.99
-2.16
-1.24
-0.60
-0.45
-0.72
-1.09
-1.18
-0.72
0.34
1.92
3.87
6.15
8.79
11.78
15.03
18.27
21.19
23.53
25.20
26.33
27.09
27.62
27.93
27.86
27.24
25.96
24.09
21.85
19.54
17.42
15.63
14.14
12.81
11.50
10.09
8.54
6.89
5.20
3.48
1.67
-0.33
-2.61
-5.21
-8.01
-10.78
-13.22
-15.03
-15.98
-15.98
-15.07
-13.33
-10.89
-7.88
-4.46
-0.84
2.73
5.92
8.49
10.25
11.14
11.23
10.67
9.66
8.38
7.01
5.69
4.50
3.51
2.75
2.21
1.88
1.70
1.60
1.48
1.26
0.85
0.19
-0.71
-1.88
-3.26
-4.85
-6.59
-8.34
-9.88
-10.85
-10.89
-9.72
-7.32
-3.92
0.01
3.94
7.49
10.44
12.81
14.72
16.20
17.24
17.69
17.45
16.53
15.12
13.51
12.00
10.78
9.92
9.33
8.88
8.46
8.01
7.51
6.89
6.00
4.68
2.81
0.40
-2.37
-5.25
-8.00
-10.49
-12.65
-14.44
-15.75
-16.40
-16.14
-14.84
-12.47
-9.16
-5.20
-0.90
3.45
7.57
11.24
14.23
16.34
17.40
17.36
16.27
14.36
12.00
9.53
7.31
5.50
4.16
3.20
2.48
1.88
1.24
0.49
-0.49
-1.70
-3.09
-4.62
-6.21
-7.88
-9.62
-11.42
-13.14
-14.51
-15.24
-15.16
-14.21
-12.53
-10.28
-7.53
-4.25
-0.40
3.93
8.43
12.62
15.99
18.22
19.23
19.19
18.39
17.15
15.68
14.09
12.44
10.73
8.98
7.26
5.60
4.09
2.75
1.62
0.71
0.03
-0.49
-0.95
-1.53
-2.46
-3.92
-5.99
-8.57
-11.43
-14.16
-16.33
-17.50
-17.33
-15.69
-12.69
-8.70
-4.23
0.24
4.37
8.02
11.17
13.80
15.79
16.93
17.08
16.21
14.46
12.12
9.52
6.95
4.65
2.76
1.32
0.27
-0.50
-1.16
-1.82
-2.55
-3.34
-4.19
-5.11
-6.17
-7.47
-9.08
-11.05
-13.35
-15.91
-18.56
-21.03
-22.91
-23.74
-23.12
-20.87
-17.16
-12.43
-7.28
-2.31
2.08
5.70
8.52
10.58
11.92
12.50
12.33
11.48
10.18
8.75
7.45
6.40
5.58
4.83
4.02
3.15
2.36
1.88
1.84
2.18
2.61
2.75
2.31
1.18
-0.55
-2.68
-4.96
-7.19
-9.15
-10.62
-11.33
-11.03
-9.59
-7.00
-3.46
0.71
5.13
9.43
13.37
16.76
19.58
21.78
23.33
24.19
24.29
23.64
22.29
20.25
17.38
13.45
8.20
1.54
-6.36
-15.07
-24.11
-33.07
-41.67
-49.76
-57.07
-63.14
-67.17
-68.13
-65.00
-57.17
-44.73
-28.75
-11.14
5.76
19.75
29.36
34.20
34.80
32.31
28.01
23.03
18.23
14.18
11.19
9.28
8.11
7.08
5.59
3.20
-0.11
-4.03
-8.06
-11.75
-14.82
-17.18
-18.79
-19.62
-19.58
-18.64
-16.89
-14.54
-11.85
-9.02
-6.18
-3.45
-1.06
0.60
1.13
0.34
-1.55
-3.85
-5.62
-5.96
-4.36
-0.88
3.94
9.37
14.71
19.54
23.73
27.31
30.32
32.74
34.47
35.36
35.38
34.65
33.53
32.41
31.62
31.23
30.91
30.08
28.08
24.51
19.49
13.63
7.74
2.33
-2.69
-7.89
-13.92
-20.97
-28.56
-35.64
-41.05
-43.78
-43.22
-39.19
-31.97
-22.43
-12.06
-2.78
3.62
6.19
5.23
2.19
-1.01
-2.88
-2.89
-1.42
0.84
3.33
5.94
8.91
12.48
16.78
21.62
26.60
31.22
34.92
37.29
38.19
37.86
36.91
36.14
36.27
37.73
40.59
44.72
49.89
55.88
62.36
68.91
75.02
80.23
84.31
87.32
89.63
91.85
94.57
98.07
102.12
105.82
107.79
106.54
100.99
90.87
76.90
60.47
43.14
26.11
9.87
-5.67
-20.93
-36.12
-51.00
-64.85
-76.70
-85.71
-91.50
-94.32
-94.97
-94.57
-94.32
-95.28
-98.19
-103.34
-110.22
-117.45
-122.88
-124.16
-119.47
-108.28
-91.60
-71.77
-51.66
-33.82
-19.88
-10.19
-4.03
-0.06
3.18
6.65
10.46
13.90
15.84
15.40
12.56
8.32
4.26
1.76
1.21
1.82
2.11
0.73
-2.85
-8.04
-13.62
-18.40
-21.82
-24.08
-25.76
-27.32
-28.74
-29.59
-29.37
-27.96
-25.83
-23.79
-22.65
-22.62
-23.26
-23.55
-22.45
-19.40
-14.61
-8.93
-3.55
0.52
2.72
3.06
1.93
-0.12
-2.59
-5.12
-7.42
-9.26
-10.43
-10.78
-10.35
-9.38
-8.32
-7.61
-7.55
-8.16
-9.18
-10.26
-11.06
-11.48
-11.57
-11.56
-11.62
-11.88
-12.35
-13.00
-13.71
-14.37
-14.78
-14.80
-14.30
-13.18
-11.42
-9.03
-6.11
-2.79
0.64
3.82
6.47
8.41
9.73
10.70
11.62
12.66
13.72
14.53
14.78
14.33
13.26
11.84
10.36
9.01
7.83
6.77
5.76
4.81
3.95
3.23
2.59
1.86
0.84
-0.64
-2.58
-4.83
-7.12
-9.18
-10.84
-12.12
-13.14
-14.02
-14.79
-15.31
-15.28
-14.44
-12.63
-9.97
-6.85
-3.82
-1.36
0.25
1.02
1.22
1.16
1.09
1.06
0.94
0.59
-0.07
-0.97
-1.90
-2.74
-3.39
-3.91
-4.35
-4.69
-4.76
-4.30
-3.14
-1.23
1.22
3.86
6.25
8.07
9.18
9.66
9.76
9.76
9.92
10.40
11.21
12.33
13.67
15.18
16.77
18.28
19.46
20.10
20.12
19.79
19.67
20.28
21.80
23.70
24.91
24.18
20.76
14.78
7.32
-0.08
-5.99
-9.67
-11.16
-11.05
-10.06
-8.68
-7.13
-5.33
-3.07
-0.15
3.51
7.77
12.20
16.15
18.90
20.05
19.79
19.00
18.96
20.74
24.72
30.30
36.16
40.91
43.69
44.65
44.82
45.63
48.31
53.35
60.30
67.70
73.36
74.78
69.99
58.38
41.39
22.31
5.41
-5.65
-9.19
-5.95
1.45
9.83
16.53
20.03
19.46
13.88
1.78
-18.93
-50.36
-94.05
-150.20
-216.75
-288.71
-358.18
-415.58
-452.21
-463.15
-449.07
-415.96
-372.46
-326.30
-281.67
-238.73
-195.34
-149.64
-101.88
-54.23
-9.37
31.45
69.24
106.86
147.55
193.90
247.40
308.13
374.73
443.79
509.53
564.31
600.41
612.55
599.81
566.03
518.12
463.32
406.86
351.01
295.76
240.34
184.47
128.85
74.95
24.55
-20.61
-58.88
-88.96
-110.20
-122.93
-128.25
-127.93
-123.85
-117.79
-111.30
-105.79
-102.34
-101.52
-102.99
-105.57
-107.61
-107.70
-105.30
-100.89
-95.68
-91.00
-87.64
-85.52
-83.83
-81.51
-77.78
-72.58
-66.44
-60.28
-54.86
-50.53
-47.14
-44.24
-41.43
-38.59
-35.89
-33.67
-32.13
-31.23
-30.65
-29.88
-28.46
-26.11
-22.85
-18.96
-14.97
-11.51
-9.16
-8.30
-8.98
-10.88
-13.46
-16.08
-18.21
-19.60
-20.20
-20.12
-19.48
-18.38
-16.87
-15.07
-13.23
-11.74
-11.09
-11.68
-13.73
-17.08
-21.18
-25.18
-28.10
-29.06
-27.55
-23.50
-17.42
-10.15
-2.70
4.05
9.53
13.48
15.94
17.11
17.32
16.92
16.27
15.63
15.08
14.54
13.78
12.54
10.75
8.54
6.20
4.05
2.32
1.05
0.11
-0.66
-1.44
-2.34
-3.44
-4.79
-6.40
-8.24
-10.21
-12.18
-14.05
-15.77
-17.34
-18.80
-20.09
-21.07
-21.54
-21.26
-20.05
-17.85
-14.74
-10.94
-6.82
-2.73
1.00
4.19
6.75
8.66
9.88
10.32
9.94
8.83
7.30
5.80
4.73
4.34
4.51
4.97
5.41
5.58
5.41
4.90
4.00
2.63
0.70
-1.72
-4.38
-6.83
-8.62
-9.55
-9.71
-9.50
-9.41
-9.77
-10.61
-11.63
-12.39
-12.48
-11.74
-10.27
-8.36
-6.34
-4.42
-2.77
-1.47
-0.62
-0.33
-0.66
-1.58
-2.90
-4.33
-5.55
-6.36
-6.70
-6.65
-6.41
-6.17
-6.08
-6.25
-6.73
-7.55
-8.72
-10.22
-11.96
-13.77
-15.47
-16.86
-17.83
-18.32
-18.39
-18.18
-17.79
-17.28
-16.64
-15.75
-14.52
-12.84
-10.70
-8.08
-5.04
-1.66
1.91
5.45
8.66
11.25
12.99
13.82
13.84
13.28
12.39
11.35
10.26
9.10
7.88
6.57
5.18
3.73
2.27
0.91
-0.23
-1.04
-1.53
-1.88
-2.39
-3.36
-4.96
-7.12
-9.58
-11.99
-14.01
-15.45
-16.20
-16.22
-15.53
-14.20
-12.34
-10.13
-7.71
-5.16
-2.50
0.29
3.07
5.62
7.65
8.92
9.33
9.00
8.18
7.16
6.17
5.31
4.60
3.97
3.36
2.72
2.06
1.43
0.90
0.49
0.21
-0.05
-0.42
-1.08
-2.11
-3.50
-5.12
-6.83
-8.49
-10.08
-11.67
-13.31
-14.95
-16.39
-17.36
-17.59
-16.95
-15.45
-13.21
-10.42
-7.23
-3.84
-0.41
2.81
5.57
7.67
8.97
9.50
9.34
8.71
7.84
6.98
6.34
6.03
6.06
6.29
6.51
6.52
6.19
5.50
4.53
3.46
2.41
1.49
0.67
-0.11
-0.99
-2.06
-3.38
-4.93
-6.68
-8.56
-10.48
-12.37
-14.07
-15.42
-16.22
-16.35
-15.68
-14.20
-11.93
-8.91
-5.24
-1.11
3.18
7.24
10.68
13.18
14.62
15.03
14.63
13.68
12.47
11.19
10.00
8.96
8.08
7.34
6.70
6.12
5.54
4.91
4.21
3.44
2.65
1.93
1.26
0.58
-0.23
-1.34
-2.84
-4.72
-6.88
-9.18
-11.49
-13.74
-15.88
-17.81
-19.35
-20.22
-20.17
-19.05
-16.92
-14.02
-10.71
-7.31
-3.98
-0.72
2.50
5.62
8.40
10.44
11.41
11.23
10.17
8.77
7.53
6.82
6.63
6.77
6.97
7.01
6.85
6.58
6.28
6.01
5.71
5.28
4.63
3.76
2.70
1.52
0.28
-1.05
-2.52
-4.22
-6.14
-8.25
-10.41
-12.44
-14.17
-15.38
-15.89
-15.57
-14.36
-12.36
-9.70
-6.59
-3.25
0.17
3.52
6.69
9.56
12.01
13.93
15.20
15.74
15.54
14.69
13.41
12.00
10.81
10.08
9.89
10.11
10.49
10.71
10.50
9.67
8.19
6.24
4.19
2.59
2.04
2.91
5.17
8.28
11.28
13.07
12.77
9.96
4.90
-1.63
-8.55
-14.80
-19.54
-22.28
-22.89
-21.52
-18.49
-14.21
-9.15
-3.82
1.27
5.64
8.96
11.08
12.07
12.11
11.43
10.22
8.60
6.68
4.58
2.45
0.47
-1.24
-2.59
-3.58
-4.27
-4.73
-5.02
-5.23
-5.47
-5.85
-6.44
-7.30
-8.45
-9.82
-11.38
-13.08
-14.87
-16.73
-18.65
-20.59
-22.53
-24.34
-25.83
-26.77
-26.90
-26.07
-24.26
-21.57
-18.18
-14.33
-10.24
-6.11
-2.20
1.27
4.09
6.14
7.42
8.03
8.13
7.91
7.54
7.17
7.02
7.22
7.86
8.85
9.98
10.90
11.34
11.15
10.37
9.25
8.06
7.03
6.23
5.63
5.08
4.47
3.69
2.68
1.37
-0.34
-2.43
-4.73
-6.75
-7.80
-7.16
-4.39
0.46
6.84
13.91
20.84
27.11
32.59
37.48
42.11
46.68
51.22
55.55
59.47
62.86
65.75
68.36
70.95
73.73
76.69
79.66
82.37
84.73
86.83
89.08
91.88
95.55
100.03
104.89
109.54
113.39
116.17
117.93
118.85
118.99
118.08
115.53
110.85
104.00
95.65
86.91
78.76
71.58
64.99
58.28
51.23
44.53
39.55
37.37
37.81
39.08
38.43
33.59
24.07
11.58
-0.70
-9.69
-13.75
-13.11
-9.33
-4.13
1.41
7.04
12.87
18.75
24.20
28.86
33.48
40.30
52.65
73.29
102.61
137.49
171.91
199.02
213.87
215.33
206.22
191.69
176.90
165.13
157.16
152.16
148.95
146.94
146.24
146.98
148.70
150.14
149.70
146.12
139.03
129.11
117.75
106.33
95.77
86.17
77.02
67.58
57.38
46.57
35.90
26.43
19.09
14.18
11.33
9.57
7.78
5.10
1.26
-3.42
-8.25
-12.64
-16.42
-20.09
-24.57
-30.89
-39.73
-51.07
-64.13
-77.76
-90.83
-102.84
-114.05
-125.47
-138.27
-153.29
-170.57
-189.25
-208.07
-225.86
-242.15
-257.35
-272.52
-289.03
-308.19
-331.08
-358.28
-389.31
-422.00
-452.36
-475.27
-486.00
-482.17
-464.85
-438.42
-408.97
-382.06
-361.10
-346.83
-338.00
-332.55
-328.49
-324.12
-317.99
-308.86
-296.20
-280.67
-264.41
-250.44
-241.57
-239.40
-243.57
-251.89
-260.95
-267.03
-267.03
-259.22
-243.75
-222.75
-199.77
-178.57
-161.55
-148.69
-137.19
-122.64
-100.97
-70.35
-32.39
8.29
45.68
74.60
92.44
99.73
99.40
94.92
88.46
79.93
67.27
47.81
20.12
-14.56
-52.44
-88.71
-119.85
-145.36
-167.59
-189.76
-213.40
-236.67
-254.86
-262.82
-257.86
-241.48
-218.71
-195.64
-176.57
-162.36
-150.89
-139.04
-124.84
-108.43
-91.62
-76.46
-64.07
-54.17
-45.44
-36.32
-25.90
-14.32
-2.58
7.98
16.33
22.11
25.75
28.20
30.52
33.41
37.10
41.38
45.84
50.05
53.82
57.23
60.63
64.57
69.64
76.33
84.94
95.39
107.24
119.72
131.99
143.46
154.00
164.07
174.54
186.29
199.83
214.98
231.02
246.97
262.07
276.17
289.80
304.08
320.44
340.47
365.50
395.94
430.43
465.34
495.07
513.34
515.33
499.44
468.15
427.07
382.96
341.44
305.57
275.69
250.42
227.99
207.10
187.04
167.44
147.94
128.17
108.12
88.38
70.08
54.62
43.02
35.43
31.06
28.49
26.23
23.28
19.43
15.21
11.56
9.28
8.62
9.00
9.11
7.36
2.50
-5.74
-16.50
-27.93
-37.89
-44.70
-47.65
-47.11
-44.12
-39.86
-35.10
-30.08
-24.61
-18.52
-11.98
-5.66
-0.60
2.27
2.57
0.74
-2.10
-4.56
-5.59
-4.96
-3.21
-1.41
-0.58
-1.22
-3.06
-5.21
-6.43
-5.63
-2.11
4.22
12.80
22.58
32.24
40.47
46.36
49.58
50.27
48.88
45.70
40.80
34.06
25.61
16.11
6.78
-0.98
-6.14
-8.50
-8.72
-7.95
-7.30
-7.56
-9.11
-12.16
-16.80
-22.90
-29.87
-36.56
-41.52
-43.47
-41.85
-36.90
-29.45
-20.48
-10.76
-0.81
8.82
17.39
23.95
27.59
27.84
24.96
19.93
14.11
8.81
4.72
1.64
-1.45
-5.97
-13.03
-22.79
-34.17
-45.10
-53.27
-56.94
-55.65
-50.14
-42.03
-33.02
-24.37
-16.68
-9.97
-4.10
0.99
5.08
7.80
8.77
7.98
5.80
3.00
0.41
-1.29
-1.87
-1.45
-0.37
1.08
2.83
4.97
7.70
11.08
15.00
19.15
23.09
26.38
28.68
29.81
29.70
28.41
26.11
23.09
19.69
16.16
12.72
9.51
6.56
3.95
1.74
0.01
-1.26
-2.23
-3.23
-4.65
-6.82
-9.93
-13.94
-18.54
-23.32
-27.71
-31.18
-33.27
-33.72
-32.53
-29.92
-26.27
-21.98
-17.31
-12.47
-7.53
-2.61
2.11
6.34
9.75
12.06
13.11
12.88
11.55
9.38
6.73
3.96
1.37
-0.83
-2.57
-3.92
-5.04
-6.07
-7.14
-8.26
-9.46
-10.77
-12.28
-14.12
-16.36
-18.99
-21.90
-24.89
-27.78
-30.35
-32.36
-33.47
-33.24
-31.28
-27.38
-21.69
-14.69
-7.11
0.29
6.92
12.46
16.80
19.93
21.87
22.59
22.08
20.46
17.97
15.02
12.00
9.19
6.73
4.59
2.72
1.08
-0.37
-1.65
-2.86
-4.14
-5.64
-7.49
-9.79
-12.58
-15.82
-19.43
-23.21
-26.93
-30.38
-33.37
-35.80
-37.56
-38.49
-38.36
-36.85
-33.74
-29.03
-22.93
-15.88
-8.43
-1.11
5.63
11.44
16.04
19.21
20.86
21.02
19.90
17.82
15.30
12.74
10.51
8.72
7.28
5.98
4.57
2.93
1.12
-0.65
-2.16
-3.27
-4.06
-4.78
-5.73
-7.20
-9.33
-12.20
-15.78
-19.95
-24.43
-28.66
-31.88
-33.31
-32.36
-28.91
-23.35
-16.44
-9.02
-1.79
4.91
10.92
16.25
20.82
24.48
27.01
28.28
28.22
27.00
24.89
22.27
19.54
17.04
14.96
13.35
12.10
11.05
9.97
8.71
7.18
5.40
3.44
1.40
-0.64
-2.69
-4.82
-7.19
-10.00
-13.47
-17.69
-22.45
-27.20
-31.07
-33.09
-32.56
-29.29
-23.70
-16.73
-9.42
-2.58
3.45
8.75
13.57
17.97
21.71
24.32
25.40
24.89
23.12
20.72
18.33
16.29
14.62
13.05
11.31
9.29
7.10
4.91
2.88
1.05
-0.71
-2.60
-4.81
-7.49
-10.73
-14.53
-18.84
-23.57
-28.62
-33.92
-39.42
-45.06
-50.72
-56.22
-61.18
-65.09
-67.30
-67.05
-63.69
-56.80
-46.53
-33.66
-19.58
-5.93
5.85
14.93
21.19
25.07
27.21
28.08
27.96
27.00
25.37
23.45
21.74
20.67
20.44
20.92
21.75
22.50
22.84
22.68
22.14
21.56
21.34
21.82
23.13
25.11
27.28
28.90
29.05
27.03
22.56
16.25
9.56
4.62
3.55
7.71
17.17
30.57
45.63
59.85
71.34
79.10
82.97
83.33
80.73
75.71
68.82
60.73
52.23
44.08
36.86
30.76
25.52
20.63
15.54
10.02
4.24
-1.23
-5.66
-8.52
-9.69
-9.61
-9.13
-9.20
-10.61
-13.71
-18.40
-24.24
-30.65
-37.05
-42.97
-48.12
-52.23
-55.09
-56.45
-56.02
-53.56
-48.96
-42.38
-34.26
-25.32
-16.38
-8.19
-1.30
4.03
7.78
10.04
10.97
10.72
9.50
7.56
5.23
2.90
0.95
-0.40
-1.08
-1.27
-1.28
-1.52
-2.30
-3.78
-5.87
-8.32
-10.81
-13.10
-15.05
-16.69
-18.11
-19.51
-21.12
-23.18
-25.94
-29.44
-33.45
-37.42
-40.55
-42.04
-41.28
-38.13
-32.89
-26.26
-19.01
-11.87
-5.28
0.61
5.80
10.41
14.42
17.64
19.77
20.46
19.63
17.51
14.70
11.95
9.88
8.80
8.61
8.91
9.22
9.15
8.55
7.48
6.02
4.25
2.15
-0.31
-3.12
-6.15
-9.25
-12.35
-15.49
-18.80
-22.27
-25.61
-28.16
-29.13
-27.91
-24.38
-19.02
-12.64
-6.12
-0.03
5.45
10.39
14.86
18.79
21.93
23.98
24.81
24.48
23.32
21.69
19.93
18.25
16.72
15.33
14.02
12.74
11.43
10.06
8.60
7.07
5.45
3.78
2.03
0.12
-2.01
-4.46
-7.29
-10.51
-14.08
-17.83
-21.44
-24.45
-26.33
-26.58
-24.90
-21.32
-16.15
-9.92
-3.25
3.34
9.44
14.76
19.10
22.26
24.09
24.53
23.71
21.99
19.85
17.75
15.97
14.52
13.17
11.65
9.83
7.77
5.79
4.25
3.49
3.57
4.31
5.29
5.98
5.93
4.83
2.64
-0.51
-4.42
-8.79
-13.28
-17.40
-20.49
-21.87
-21.02
-17.80
-12.63
-6.30
0.20
6.08
10.88
14.59
17.44
19.73
21.61
23.03
23.78
23.64
22.47
20.44
17.90
15.34
13.15
11.55
10.49
9.75
9.05
8.20
7.11
5.81
4.31
2.56
0.51
-1.93
-4.75
-7.84
-11.00
-14.03
-16.71
-18.92
-20.56
-21.56
-21.84
-21.32
-19.89
-17.51
-14.21
-10.10
-5.42
-0.44
4.52
9.14
13.15
16.31
18.38
19.23
18.81
17.30
15.02
12.47
10.09
8.20
6.88
5.97
5.23
4.41
3.40
2.26
1.14
0.18
-0.58
-1.21
-1.94
-2.98
-4.52
-6.66
-9.35
-12.49
-15.88
-19.28
-22.43
-25.03
-26.83
-27.62
-27.30
-25.86
-23.44
-20.22
-16.42
-12.22
-7.78
-3.28
1.09
5.02
8.17
10.14
10.68
9.81
7.81
5.28
2.93
1.32
0.73
1.05
1.84
2.55
2.69
1.98
0.44
-1.72
-4.23
-6.82
-9.28
-11.46
-13.29
-14.75
-15.89
-16.92
-18.11
-19.73
-21.91
-24.49
-27.03
-28.83
-29.29
-27.99
-24.92
-20.49
-15.31
-10.02
-5.11
-0.80
2.91
6.10
8.82
11.00
12.49
13.08
12.63
11.20
9.03
6.61
4.43
2.87
1.99
1.59
1.30
0.78
-0.13
-1.34
-2.60
-3.67
-4.42
-4.87
-5.23
-5.76
-6.75
-8.42
-10.82
-13.81
-16.92
-19.55
-20.97
-20.71
-18.59
-14.89
-10.20
-5.17
-0.42
3.74
7.20
10.04
12.31
14.03
15.09
15.37
14.87
13.68
12.05
10.31
8.71
7.41
6.42
5.65
4.96
4.29
3.59
2.88
2.18
1.42
0.47
-0.83
-2.59
-4.78
-7.30
-9.93
-12.54
-15.06
-17.47
-19.69
-21.50
-22.49
-22.28
-20.58
-17.49
-13.40
-8.91
-4.60
-0.79
2.46
5.31
7.93
10.36
12.39
13.64
13.68
12.32
9.64
6.14
2.55
-0.34
-1.99
-2.19
-1.14
0.75
3.00
5.26
7.28
8.94
10.09
10.58
10.25
9.03
7.04
4.54
1.87
-0.72
-3.10
-5.26
-7.23
-8.94
-10.18
-10.68
-10.25
-8.83
-6.55
-3.64
-0.37
3.05
6.39
9.42
11.84
13.35
13.76
13.06
11.47
9.34
7.04
4.90
3.09
1.71
0.77
0.23
0.05
0.12
0.33
0.55
0.72
0.78
0.71
0.46
-0.09
-1.12
-2.80
-5.24
-8.38
-11.97
-15.65
-19.02
-21.68
-23.35
-23.81
-22.94
-20.71
-17.27
-12.91
-8.07
-3.16
1.44
5.55
9.02
11.80
13.74
14.72
14.62
13.47
11.49
9.03
6.59
4.54
3.11
2.32
2.04
2.06
2.14
2.08
1.74
1.04
-0.09
-1.60
-3.44
-5.45
-7.47
-9.34
-10.97
-12.42
-13.85
-15.44
-17.31
-19.35
-21.23
-22.44
-22.49
-21.09
-18.24
-14.21
-9.46
-4.43
0.50
5.06
9.04
12.18
14.30
15.21
14.92
13.62
11.68
9.58
7.76
6.51
5.84
5.59
5.46
5.19
4.63
3.78
2.71
1.50
0.19
-1.27
-2.99
-5.06
-7.53
-10.33
-13.30
-16.25
-19.03
-21.59
-23.94
-26.02
-27.64
-28.46
-28.11
-26.35
-23.16
-18.82
-13.75
-8.43
-3.23
1.51
5.53
8.58
10.50
11.19
10.74
9.33
7.29
4.97
2.76
0.99
-0.12
-0.51
-0.33
0.08
0.36
0.20
-0.45
-1.43
-2.40
-3.07
-3.34
-3.35
-3.46
-4.01
-5.22
-7.22
-9.96
-13.31
-16.97
-20.46
-23.14
-24.37
-23.77
-21.35
-17.61
-13.28
-8.99
-5.10
-1.59
1.77
5.11
8.43
11.47
13.94
15.61
16.42
16.47
15.96
15.16
14.28
13.50
12.90
12.51
12.22
11.93
11.53
10.99
10.38
9.73
9.06
8.24
7.07
5.39
3.10
0.20
-3.19
-6.91
-10.69
-14.17
-16.91
-18.42
-18.34
-16.55
-13.29
-9.04
-4.37
0.29
4.73
8.89
12.75
16.20
19.03
20.98
21.86
21.65
20.54
18.86
17.00
15.26
13.84
12.80
12.14
11.80
11.71
11.76
11.82
11.72
11.30
10.45
9.20
7.70
6.20
4.96
4.17
3.91
4.06
4.41
4.70
4.72
4.39
3.69
2.65
1.26
-0.58
-2.98
-6.04
-9.70
-13.70
-17.55
-20.63
-22.33
-22.23
-20.22
-16.58
-11.85
-6.65
-1.50
3.34
7.82
11.99
15.84
19.14
21.54
22.69
22.45
21.00
18.80
16.40
14.26
12.64
11.57
10.93
10.55
10.32
10.09
9.75
9.18
8.28
7.04
5.52
3.79
1.88
-0.21
-2.53
-5.08
-7.83
-10.70
-13.57
-16.33
-18.76
-20.52
-21.21
-20.44
-18.00
-14.04
-8.97
-3.39
2.13
7.21
11.66
15.43
18.43
20.51
21.52
21.43
20.38
18.72
16.84
15.08
13.63
12.50
11.62
10.95
10.41
10.01
9.75
9.59
9.48
9.37
9.13
8.64
7.71
6.20
4.04
1.32
-1.78
-5.05
-8.30
-11.41
-14.30
-16.84
-18.79
-19.78
-19.46
-17.63
-14.37
-10.01
-5.04
0.04
4.88
9.27
13.16
16.44
18.97
20.59
21.19
20.81
19.68
18.17
16.68
15.50
14.78
14.48
14.45
14.43
14.14
13.34
11.90
9.80
7.22
4.44
1.76
-0.63
-2.74
-4.74
-6.89
-9.39
-12.36
-15.76
-19.41
-23.06
-26.34
-28.81
-30.01
-29.62
-27.57
-24.09
-19.66
-14.77
-9.79
-4.87
0.00
4.86
9.59
13.86
17.22
19.27
19.81
18.96
17.19
15.09
13.27
12.15
11.91
12.49
13.58
14.71
15.29
14.74
12.63
8.86
3.69
-2.36
-8.64
-14.64
-20.04
-24.70
-28.56
-31.64
-34.02
-35.90
-37.56
-39.25
-40.91
-42.10
-42.10
-40.18
-36.00
-29.81
-22.39
-14.74
-7.76
-1.90
2.80
6.55
9.62
12.13
14.02
15.15
15.47
15.09
14.32
13.52
12.99
12.86
13.07
13.46
13.82
14.01
13.98
13.74
13.31
12.68
11.79
10.57
9.01
7.15
5.13
3.03
0.89
-1.42
-4.10
-7.34
-11.07
-14.87
-17.97
-19.55
-19.02
-16.32
-11.97
-6.83
-1.79
2.60
6.23
9.32
12.13
14.72
16.87
18.19
18.40
17.50
15.87
14.08
12.61
11.70
11.25
10.98
10.63
10.13
9.62
9.33
9.37
9.67
9.94
9.83
9.07
7.53
5.28
2.43
-0.88
-4.52
-8.39
-12.34
-16.13
-19.40
-21.71
-22.70
-22.16
-20.13
-16.90
-12.87
-8.43
-3.84
0.75
5.24
9.49
13.27
16.29
18.29
19.14
18.90
17.83
16.25
14.55
13.01
11.81
11.01
10.51
10.16
9.78
9.26
8.52
7.56
6.42
5.12
3.65
2.01
0.22
-1.74
-3.88
-6.24
-8.82
-11.64
-14.63
-17.58
-20.18
-22.01
-22.68
-21.91
-19.68
-16.21
-11.89
-7.15
-2.33
2.34
6.71
10.63
13.87
16.20
17.45
17.61
16.83
15.41
13.67
11.93
10.41
9.31
8.66
8.38
8.25
8.00
7.37
6.25
4.68
2.83
0.88
-1.06
-2.99
-5.02
-7.30
-9.98
-13.13
-16.70
-20.50
-24.24
-27.46
-29.70
-30.55
-29.76
-27.34
-23.47
-18.51
-12.88
-6.99
-1.24
4.03
8.54
12.01
14.29
15.28
15.07
13.85
11.96
9.80
7.74
6.08
4.94
4.25
3.77
3.24
2.44
1.28
-0.15
-1.73
-3.34
-4.98
-6.79
-8.93
-11.51
-14.46
-17.60
-20.74
-23.72
-26.48
-28.94
-30.95
-32.18
-32.29
-30.93
-28.03
-23.76
-18.56
-12.98
-7.48
-2.41
2.09
5.93
8.98
11.06
11.96
11.61
10.17
8.11
6.05
4.54
3.83
3.80
4.05
4.09
3.54
2.27
0.37
-1.97
-4.54
-7.17
-9.71
-12.01
-13.99
-15.56
-16.77
-17.83
-19.04
-20.60
-22.53
-24.56
-26.10
-26.50
-25.21
-22.06
-17.24
-11.30
-4.86
1.46
7.23
12.16
16.01
18.59
19.72
19.33
17.56
14.76
11.52
8.53
6.46
5.74
6.42
8.13
10.15
11.68
12.16
11.44
9.81
7.81
5.95
4.47
3.30
2.09
0.46
-1.85
-4.96
-8.76
-13.01
-17.27
-20.96
-23.38
-23.89
-22.06
-17.83
-11.53
-3.88
4.24
11.99
18.76
24.28
28.47
31.37
33.02
33.37
32.42
30.31
27.40
24.18
21.15
18.59
16.48
14.57
12.55
10.23
7.70
5.28
3.31
1.97
1.16
0.53
-0.34
-1.84
-4.22
-7.56
-11.82
-16.75
-21.92
-26.67
-30.19
-31.68
-30.62
-26.97
-21.14
-13.90
-6.12
1.46
8.33
14.25
19.05
22.60
24.78
25.53
24.88
23.08
20.57
17.86
15.43
13.55
12.24
11.23
10.18
8.77
6.94
4.87
2.88
1.28
0.18
-0.58
-1.37
-2.63
-4.75
-7.95
-12.28
-17.63
-23.64
-29.72
-34.99
-38.45
-39.23
-36.89
-31.54
-23.86
-14.83
-5.49
3.33
11.14
17.72
23.01
26.99
29.63
30.89
30.81
29.52
27.27
24.38
21.19
18.03
15.12
12.61
10.52
8.81
7.33
5.94
4.51
2.96
1.28
-0.53
-2.55
-4.94
-7.92
-11.70
-16.36
-21.76
-27.56
-33.13
-37.67
-40.37
-40.54
-37.87
-32.48
-24.91
-15.99
-6.55
2.68
11.21
18.67
24.80
29.32
32.01
32.86
32.05
30.00
27.22
24.21
21.28
18.66
16.39
14.49
12.92
11.62
10.45
9.21
7.75
5.98
3.96
1.82
-0.37
-2.69
-5.39
-8.78
-13.18
-18.70
-25.19
-32.11
-38.58
-43.51
-45.78
-44.61
-39.85
-32.03
-22.31
-12.05
-2.37
6.06
13.12
18.94
23.61
26.96
28.60
28.13
25.46
21.01
15.64
10.43
6.46
4.43
4.62
6.77
10.26
14.16
17.50
19.39
19.27
16.95
12.71
7.16
1.04
-4.94
-10.32
-14.91
-18.82
-22.36
-25.84
-29.36
-32.66
-35.11
-35.86
-34.14
-29.56
-22.35
-13.27
-3.42
6.13
14.63
21.76
27.56
32.13
35.47
37.42
37.72
36.29
33.37
29.52
25.47
21.79
18.76
16.27
14.06
11.85
9.57
7.36
5.42
3.84
2.56
1.32
-0.17
-2.11
-4.59
-7.61
-11.22
-15.43
-20.26
-25.45
-30.42
-34.27
-36.02
-34.93
-30.83
-24.12
-15.72
-6.71
1.95
9.64
16.06
21.17
25.02
27.65
29.07
29.28
28.33
26.41
23.83
21.01
18.33
16.09
14.41
13.17
12.11
10.96
9.52
7.80
5.99
4.32
2.95
1.81
0.63
-0.97
-3.39
-6.92
-11.64
-17.42
-23.80
-30.02
-35.05
-37.78
-37.37
-33.46
-26.39
-17.09
-6.77
3.38
12.54
20.33
26.72
31.80
35.63
38.14
39.15
38.55
36.39
33.00
28.90
24.66
20.82
17.64
15.19
13.36
11.93
10.72
9.56
8.31
6.85
5.03
2.73
-0.18
-3.73
-7.95
-12.81
-18.27
-24.26
-30.59
-36.78
-42.14
-45.72
-46.62
-44.25
-38.56
-30.08
-19.83
-9.03
1.28
10.41
18.09
24.27
28.98
32.25
33.98
34.15
32.80
30.12
26.47
22.28
18.04
14.19
11.06
8.76
7.14
5.87
4.58
3.02
1.17
-0.79
-2.67
-4.43
-6.26
-8.48
-11.44
-15.29
-20.02
-25.48
-31.37
-37.28
-42.64
-46.67
-48.47
-47.30
-42.83
-35.28
-25.44
-14.39
-3.22
7.25
16.52
24.35
30.58
35.06
37.64
38.22
36.87
33.96
30.05
25.88
22.16
19.38
17.69
16.90
16.58
16.27
15.65
14.62
13.27
11.74
10.10
8.31
6.20
3.61
0.35
-3.69
-8.60
-14.37
-20.83
-27.57
-33.91
-38.92
-41.66
-41.38
-37.79
-31.17
-22.24
-12.03
-1.62
8.11
16.55
23.37
28.45
31.77
33.34
33.23
31.57
28.61
24.73
20.39
16.12
12.34
9.39
7.37
6.21
5.63
5.29
4.79
3.88
2.46
0.68
-1.24
-3.10
-4.89
-6.80
-9.13
-12.20
-16.25
-21.30
-27.21
-33.56
-39.67
-44.62
-47.37
-47.04
-43.22
-36.13
-26.66
-16.06
-5.59
3.80
11.63
17.79
22.36
25.45
27.04
27.08
25.59
22.83
19.34
15.76
12.68
10.44
9.03
8.24
7.76
7.39
7.04
6.77
6.54
6.28
5.80
4.89
3.37
1.20
-1.64
-5.12
-9.25
-14.04
-19.46
-25.24
-30.85
-35.44
-38.04
-37.79
-34.33
-27.94
-19.54
-10.33
-1.44
6.44
13.14
18.74
23.41
27.08
29.46
30.30
29.49
27.28
24.20
20.87
17.81
15.30
13.43
12.11
11.22
10.57
10.02
9.37
8.49
7.26
5.66
3.67
1.32
-1.37
-4.39
-7.75
-11.56
-15.92
-20.92
-26.41
-31.92
-36.63
-39.48
-39.56
-36.36
-30.05
-21.44
-11.68
-1.98
6.81
14.23
20.22
24.88
28.27
30.36
31.01
30.19
28.04
24.98
21.56
18.31
15.57
13.44
11.81
10.48
9.29
8.19
7.18
6.25
5.35
4.37
3.17
1.66
-0.21
-2.46
-5.19
-8.54
-12.68
-17.66
-23.32
-29.14
-34.31
-37.87
-38.96
-37.10
-32.38
-25.38
-17.09
-8.53
-0.54
6.44
12.28
16.99
20.64
23.15
24.42
24.42
23.28
21.30
18.87
16.38
14.15
12.35
11.05
10.23
9.76
9.46
9.10
8.46
7.35
5.74
3.64
1.16
-1.57
-4.47
-7.49
-10.70
-14.21
-18.15
-22.61
-27.49
-32.39
-36.60
-39.22
-39.44
-36.80
-31.45
-24.09
-15.72
-7.36
0.24
6.73
12.05
16.30
19.50
21.63
22.62
22.50
21.41
19.66
17.60
15.53
13.70
12.21
11.07
10.24
9.64
9.16
8.62
7.87
6.71
5.05
2.86
0.27
-2.57
-5.53
-8.59
-11.84
-15.46
-19.60
-24.30
-29.36
-34.33
-38.50
-41.04
-41.21
-38.66
-33.50
-26.34
-18.07
-9.65
-1.88
4.74
10.03
14.06
17.07
19.40
21.31
22.96
24.30
25.16
25.35
24.80
23.68
22.30
20.97
19.86
18.88
17.77
16.23
14.15
11.62
8.92
6.28
3.78
1.28
-1.52
-4.84
-8.75
-13.15
-17.82
-22.58
-27.31
-31.84
-35.82
-38.67
-39.70
-38.33
-34.39
-28.17
-20.43
-12.07
-3.98
3.21
9.17
13.80
17.18
19.46
20.78
21.25
20.93
19.92
18.34
16.43
14.48
12.77
11.46
10.54
9.84
9.10
8.12
6.82
5.29
3.66
2.05
0.50
-1.06
-2.76
-4.73
-7.07
-9.89
-13.28
-17.28
-21.83
-26.61
-30.98
-34.12
-35.18
-33.61
-29.39
-22.97
-15.19
-6.93
1.06
8.32
14.59
19.74
23.66
26.19
27.25
26.87
25.30
22.91
20.14
17.38
14.90
12.84
11.21
9.92
8.82
7.78
6.73
5.63
4.51
3.39
2.21
0.91
-0.61
-2.40
-4.49
-6.89
-9.62
-12.83
-16.66
-21.12
-25.95
-30.49
-33.80
-34.95
-33.35
-28.96
-22.36
-14.50
-6.45
0.99
7.40
12.68
16.91
20.18
22.50
23.83
24.13
23.43
21.88
19.72
17.29
14.92
12.89
11.32
10.15
9.18
8.20
7.07
5.73
4.25
2.64
0.94
-0.91
-2.93
-5.15
-7.56
-10.24
-13.31
-16.93
-21.15
-25.82
-30.47
-34.41
-36.82
-37.06
-34.77
-30.03
-23.30
-15.35
-7.03
0.91
7.91
13.71
18.19
21.39
23.37
24.17
23.87
22.56
20.45
17.79
14.89
12.09
9.65
7.77
6.52
5.80
5.40
5.10
4.67
3.99
3.04
1.82
0.29
-1.60
-3.93
-6.74
-10.00
-13.66
-17.71
-22.12
-26.82
-31.51
-35.59
-38.23
-38.64
-36.36
-31.50
-24.69
-16.85
-8.84
-1.25
5.65
11.77
17.02
21.15
23.86
24.93
24.37
22.48
19.78
16.83
14.06
11.73
9.89
8.48
7.40
6.55
5.83
5.16
4.48
3.69
2.72
1.52
0.04
-1.75
-3.84
-6.26
-9.05
-12.27
-16.04
-20.39
-25.23
-30.18
-34.59
-37.64
-38.58
-36.98
-32.88
-26.78
-19.38
-11.38
-3.39
4.19
11.03
16.84
21.30
24.20
25.49
25.30
23.95
21.75
19.07
16.21
13.47
11.17
9.50
8.49
7.98
7.67
7.24
6.48
5.40
4.09
2.70
1.26
-0.31
-2.12
-4.24
-6.69
-9.47
-12.68
-16.48
-21.02
-26.19
-31.57
-36.33
-39.49
-40.25
-38.21
-33.58
-27.01
-19.36
-11.45
-3.87
3.01
8.98
13.85
17.49
19.86
21.00
21.11
20.45
19.23
17.66
15.88
14.05
12.39
11.03
10.05
9.34
8.70
7.88
6.77
5.40
3.94
2.59
1.37
0.19
-1.17
-2.96
-5.32
-8.36
-12.05
-16.31
-20.92
-25.38
-28.93
-30.69
-29.91
-26.31
-20.25
-12.69
-4.81
2.34
8.16
12.59
15.93
18.53
20.57
22.02
22.67
22.34
20.96
18.70
15.92
13.11
10.79
9.40
9.20
10.23
12.31
15.07
18.06
20.73
22.61
23.28
22.45
20.02
16.02
10.72
4.51
-2.11
-8.64
-14.66
-19.83
-23.89
-26.58
-27.65
-26.88
-24.22
-19.92
-14.46
-8.55
-2.82
2.34
6.84
10.84
14.48
17.75
20.37
21.98
22.28
21.27
19.26
16.80
14.42
12.53
11.18
10.27
9.52
8.70
7.64
6.33
4.78
3.03
1.08
-1.08
-3.47
-6.08
-8.92
-11.98
-15.28
-18.84
-22.62
-26.37
-29.63
-31.77
-32.18
-30.51
-26.82
-21.54
-15.38
-8.98
-2.84
2.81
7.87
12.34
16.13
19.13
21.17
22.18
22.18
21.35
19.95
18.26
16.59
15.14
14.04
13.26
12.66
12.01
11.05
9.66
7.77
5.49
2.91
0.12
-2.87
-6.09
-9.57
-13.30
-17.20
-21.18
-25.06
-28.55
-31.20
-32.49
-31.93
-29.30
-24.77
-18.87
-12.35
-5.93
-0.14
4.83
8.92
12.18
14.61
16.16
16.76
16.39
15.20
13.43
11.41
9.44
7.72
6.30
5.12
4.08
3.08
2.05
0.97
-0.16
-1.38
-2.74
-4.30
-6.10
-8.14
-10.41
-12.90
-15.62
-18.57
-21.64
-24.55
-26.86
-28.06
-27.70
-25.64
-22.00
-17.19
-11.72
-6.08
-0.62
4.41
8.79
12.36
14.93
16.34
16.52
15.55
13.67
11.25
8.79
6.71
5.29
4.51
4.14
3.80
3.20
2.31
1.31
0.47
-0.07
-0.41
-0.85
-1.72
-3.23
-5.38
-8.10
-11.25
-14.67
-18.17
-21.34
-23.62
-24.42
-23.33
-20.29
-15.63
-9.93
-3.87
2.02
7.34
11.88
15.52
18.20
19.90
20.57
20.29
19.20
17.61
15.89
14.41
13.36
12.72
12.24
11.61
10.63
9.28
7.76
6.28
5.00
3.87
2.72
1.33
-0.50
-2.85
-5.78
-9.25
-13.17
-17.28
-21.13
-24.09
-25.52
-24.94
-22.23
-17.75
-12.21
-6.43
-1.08
3.60
7.68
11.45
15.10
18.57
21.53
23.53
24.26
23.79
22.50
20.92
19.51
18.38
17.34
16.06
14.33
12.22
10.08
8.26
6.94
5.94
4.83
3.16
0.74
-2.32
-5.71
-9.11
-12.40
-15.60
-18.65
-21.27
-22.96
-23.15
-21.47
-17.95
-13.03
-7.28
-1.29
4.54
9.95
14.79
18.89
22.11
24.37
25.72
26.28
26.22
25.68
24.76
23.53
22.09
20.53
18.97
17.52
16.22
15.11
14.13
13.19
12.07
10.53
8.27
5.09
0.95
-3.96
-9.27
-14.47
-19.08
-22.72
-25.17
-26.33
-26.19
-24.81
-22.26
-18.69
-14.33
-9.45
-4.33
0.78
5.70
10.27
14.29
17.50
19.63
20.49
20.04
18.46
16.12
13.44
10.80
8.45
6.43
4.63
2.88
1.09
-0.72
-2.43
-3.95
-5.29
-6.62
-8.16
-10.07
-12.40
-15.01
-17.72
-20.36
-22.78
-24.79
-26.10
-26.35
-25.21
-22.53
-18.47
-13.50
-8.19
-3.05
1.64
5.82
9.55
12.78
15.37
16.98
17.39
16.52
14.62
12.19
9.79
7.89
6.63
5.87
5.27
4.44
3.20
1.55
-0.35
-2.26
-3.98
-5.45
-6.73
-7.99
-9.47
-11.39
-13.93
-17.10
-20.74
-24.45
-27.68
-29.79
-30.29
-28.91
-25.74
-21.15
-15.73
-10.06
-4.66
0.13
4.11
7.19
9.32
10.50
10.83
10.47
9.70
8.82
8.07
7.56
7.28
7.10
6.87
6.45
5.78
4.88
3.83
2.75
1.75
0.84
-0.04
-1.00
-2.19
-3.76
-5.86
-8.59
-11.93
-15.61
-19.13
-21.79
-22.89
-21.99
-19.09
-14.65
-9.36
-3.90
1.22
5.82
9.88
13.43
16.44
18.72
20.10
20.41
19.64
17.99
15.80
13.46
11.34
9.63
8.35
7.38
6.50
5.54
4.42
3.19
1.97
0.87
-0.08
-0.99
-2.05
-3.50
-5.49
-8.04
-11.00
-14.06
-16.81
-18.75
-19.43
-18.53
-15.96
-11.93
-6.88
-1.35
4.17
9.31
13.86
17.68
20.69
22.73
23.67
23.44
22.08
19.82
17.05
14.21
11.74
9.87
8.64
7.86
7.24
6.48
5.50
4.37
3.26
2.28
1.42
0.48
-0.76
-2.48
-4.68
-7.25
-10.01
-12.75
-15.21
-17.05
-17.91
-17.43
-15.48
-12.19
-7.95
-3.25
1.47
5.94
9.95
13.35
15.92
17.48
17.89
17.23
15.74
13.76
11.65
9.70
8.09
6.84
5.90
5.11
4.32
3.45
2.49
1.58
0.79
0.16
-0.41
-1.15
-2.25
-3.86
-6.02
-8.66
-11.70
-14.94
-18.10
-20.78
-22.50
-22.84
-21.58
-18.76
-14.67
-9.73
-4.43
0.83
5.68
9.86
13.16
15.43
16.66
16.95
16.46
15.41
14.07
12.70
11.56
10.84
10.57
10.56
10.54
10.20
9.39
8.15
6.68
5.15
3.58
1.82
-0.35
-3.05
-6.27
-9.79
-13.35
-16.70
-19.66
-22.05
-23.64
-24.15
-23.34
-21.16
-17.80
-13.67
-9.23
-4.84
-0.65
3.30
7.02
10.37
13.08
14.83
15.43
14.90
13.53
11.71
9.88
8.27
6.96
5.83
4.73
3.53
2.15
0.65
-0.90
-2.39
-3.78
-5.06
-6.31
-7.63
-9.13
-10.92
-13.10
-15.71
-18.72
-21.93
-24.95
-27.20
-28.09
-27.24
-24.63
-20.67
-16.06
-11.45
-7.27
-3.64
-0.43
2.50
5.13
7.27
8.62
9.00
8.44
7.22
5.73
4.28
3.03
1.96
0.97
-0.03
-1.03
-1.98
-2.75
-3.25
-3.48
-3.50
-3.47
-3.54
-3.89
-4.66
-5.95
-7.79
-10.14
-12.83
-15.58
-17.94
-19.38
-19.43
-17.82
-14.61
-10.23
-5.29
-0.44
3.92
7.64
10.79
13.41
15.49
16.86
17.34
16.88
15.59
13.80
11.87
10.15
8.81
7.86
7.17
6.58
5.97
5.33
4.67
4.05
3.47
2.87
2.12
1.04
-0.49
-2.59
-5.28
-8.54
-12.20
-15.94
-19.27
-21.58
-22.32
-21.18
-18.18
-13.70
-8.35
-2.76
2.56
7.33
11.44
14.85
17.56
19.46
20.47
20.54
19.72
18.26
16.49
14.79
13.44
12.54
11.95
11.43
10.74
9.77
8.55
7.23
5.96
4.78
3.64
2.42
1.00
-0.65
-2.57
-4.75
-7.24
-10.01
-12.90
-15.57
-17.51
-18.22
-17.33
-14.79
-10.85
-6.03
-0.90
4.02
8.35
11.92
14.68
16.72
18.12
18.91
19.12
18.74
17.77
16.32
14.58
12.75
10.98
9.37
7.92
6.63
5.52
4.60
3.86
3.14
2.16
0.59
-1.79
-4.93
-8.43
-11.71
-14.19
-15.58
-15.94
-15.63
-15.08
-14.58
-14.14
-13.52
-12.45
-10.74
-8.42
-5.67
-2.72
0.27
3.23
6.14
8.88
11.19
12.78
13.44
13.19
12.29
11.21
10.33
9.82
9.55
9.21
8.48
7.22
5.52
3.59
1.72
0.04
-1.43
-2.83
-4.36
-6.25
-8.68
-11.65
-14.94
-18.03
-20.19
-20.58
-18.58
-13.93
-6.97
1.47
10.24
18.17
24.32
28.12
29.49
28.73
26.47
23.44
20.31
17.54
15.32
13.53
11.93
10.29
8.45
6.38
4.13
1.76
-0.66
-3.01
-5.18
-7.03
-8.46
-9.49
-10.24
-10.92
-11.77
-13.01
-14.72
-16.90
-19.47
-22.30
-25.31
-28.35
-31.25
-33.73
-35.42
-35.96
-35.07
-32.75
-29.20
-24.77
-19.86
-14.76
-9.65
-4.62
0.14
4.40
7.83
10.06
10.88
10.28
8.49
6.05
3.57
1.61
0.42
-0.13
-0.43
-0.95
-1.94
-3.36
-4.84
-6.03
-6.75
-7.16
-7.61
-8.46
-9.89
-11.92
-14.45
-17.43
-20.77
-24.24
-27.36
-29.45
-29.84
-28.15
-24.47
-19.34
-13.47
-7.51
-1.82
3.42
8.20
12.43
15.95
18.56
20.14
20.70
20.37
19.42
18.11
16.65
15.17
13.69
12.20
10.68
9.10
7.47
5.84
4.27
2.80
1.42
0.07
-1.37
-3.06
-5.15
-7.78
-10.98
-14.71
-18.74
-22.65
-25.85
-27.66
-27.53
-25.19
-20.81
-14.92
-8.28
-1.61
4.54
9.83
14.06
17.11
18.92
19.52
19.10
17.98
16.56
15.17
14.05
13.20
12.51
11.80
10.92
9.78
8.41
6.89
5.32
3.82
2.47
1.25
0.11
-1.13
-2.66
-4.75
-7.57
-11.17
-15.37
-19.69
-23.42
-25.75
-26.01
-23.93
-19.67
-13.85
-7.21
-0.46
5.96
11.85
17.15
21.79
25.59
28.30
29.71
29.77
28.63
26.60
24.05
21.28
18.48
15.76
13.26
11.11
9.51
8.54
8.13
7.99
7.68
6.78
5.05
2.44
-0.93
-4.90
-9.34
-14.18
-19.26
-24.19
-28.33
-30.97
-31.42
-29.43
-25.16
-19.18
-12.27
-5.07
2.00
8.76
15.10
20.83
25.54
28.71
30.00
29.38
27.25
24.27
21.14
18.35
16.08
14.21
12.50
10.73
8.86
7.00
5.34
4.01
3.00
2.08
0.88
-0.95
-3.64
-7.18
-11.42
-16.15
-21.11
-26.04
-30.57
-34.07
-35.83
-35.21
-31.91
-26.16
-18.65
-10.30
-1.95
5.77
12.58
18.35
22.97
26.31
28.25
28.77
28.00
26.30
24.15
22.04
20.34
19.18
18.44
17.82
16.98
15.73
14.07
12.18
10.27
8.39
6.43
4.12
1.18
-2.54
-7.01
-12.04
-17.46
-22.99
-28.28
-32.81
-35.86
-36.72
-34.94
-30.51
-23.90
-15.97
-7.61
0.44
7.73
14.09
19.48
23.79
26.91
28.69
29.03
28.01
25.88
23.12
20.23
17.71
15.85
14.63
13.81
12.96
11.73
9.93
7.60
4.92
2.17
-0.50
-3.03
-5.55
-8.28
-11.47
-15.27
-19.74
-24.74
-29.85
-34.40
-37.49
-38.24
-36.06
-30.99
-23.63
-15.09
-6.48
1.38
8.14
13.91
18.87
23.06
26.28
28.21
28.64
27.69
25.78
23.51
21.36
19.59
18.18
16.94
15.71
14.39
13.03
11.69
10.42
9.15
7.73
5.98
3.71
0.83
-2.71
-6.95
-11.90
-17.48
-23.35
-28.90
-33.24
-35.47
-34.95
-31.59
-25.83
-18.49
-10.51
-2.62
4.67
11.12
16.57
20.86
23.83
25.38
25.50
24.39
22.40
19.95
17.47
15.29
13.62
12.47
11.68
11.04
10.33
9.44
8.36
7.17
5.92
4.59
3.06
1.15
-1.25
-4.27
-7.98
-12.38
-17.36
-22.57
-27.34
-30.79
-32.06
-30.63
-26.50
-20.22
-12.64
-4.59
3.29
10.67
17.36
23.16
27.82
31.05
32.67
32.71
31.40
29.20
26.57
23.97
21.70
19.87
18.45
17.26
16.11
14.85
13.44
11.92
10.40
8.91
7.40
5.69
3.57
0.83
-2.70
-7.09
-12.33
-18.25
-24.42
-30.12
-34.40
-36.32
-35.24
-31.06
-24.30
-15.93
-7.02
1.55
9.27
15.92
21.48
25.90
29.11
30.98
31.45
30.63
28.80
26.31
23.62
21.10
18.99
17.36
16.12
15.09
14.03
12.76
11.16
9.24
7.06
4.74
2.31
-0.27
-3.12
-6.37
-10.11
-14.31
-18.86
-23.52
-27.91
-31.54
-33.79
-34.08
-31.99
-27.54
-21.17
-13.74
-6.18
0.72
6.59
11.42
15.37
18.58
20.99
22.38
22.51
21.33
19.07
16.25
13.47
11.24
9.79
9.07
8.82
8.73
8.56
8.18
7.56
6.67
5.49
4.03
2.24
0.15
-2.30
-5.17
-8.60
-12.75
-17.65
-23.15
-28.73
-33.60
-36.84
-37.63
-35.54
-30.68
-23.71
-15.58
-7.28
0.39
7.01
12.43
16.68
19.84
21.95
22.97
22.90
21.83
19.95
17.57
15.09
12.86
11.12
9.93
9.15
8.55
7.86
6.93
5.71
4.24
2.60
0.85
-0.96
-2.82
-4.78
-6.96
-9.57
-12.84
-16.97
-21.94
-27.46
-32.88
-37.27
-39.70
-39.43
-36.19
-30.26
-22.40
-13.66
-5.08
2.54
8.77
13.53
16.97
19.26
20.54
20.83
20.17
18.66
16.57
14.24
12.09
10.38
9.17
8.34
7.67
6.99
6.25
5.50
4.80
4.18
3.52
2.63
1.35
-0.40
-2.64
-5.31
-8.45
-12.19
-16.64
-21.79
-27.20
-32.09
-35.35
-35.99
-33.47
-28.01
-20.47
-12.11
-4.07
2.95
8.82
13.73
17.89
21.28
23.63
24.58
24.00
22.07
19.28
16.19
13.26
10.75
8.72
7.23
6.29
5.96
6.10
6.45
6.56
6.05
4.73
2.74
0.44
-1.78
-3.69
-5.34
-7.03
-9.18
-12.15
-16.09
-20.79
-25.66
-29.82
-32.26
-32.21
-29.32
-23.86
-16.61
-8.55
-0.65
6.46
12.49
17.35
21.02
23.41
24.39
23.97
22.34
19.94
17.28
14.79
12.71
11.04
9.67
8.50
7.48
6.66
6.05
5.59
5.12
4.45
3.42
1.97
0.09
-2.22
-4.95
-8.14
-11.88
-16.18
-21.02
-26.18
-31.23
-35.50
-38.26
-38.84
-36.88
-32.44
-26.01
-18.34
-10.23
-2.33
4.92
11.31
16.70
20.97
23.94
25.48
25.53
24.20
21.82
18.85
15.78
13.02
10.80
9.12
7.88
6.90
6.06
5.30
4.54
3.72
2.74
1.49
-0.06
-1.84
-3.78
-5.85
-8.19
-11.07
-14.75
-19.33
-24.54
-29.68
-33.82
-36.00
-35.58
-32.43
-26.93
-19.81
-11.94
-4.08
3.19
9.53
14.78
18.85
21.70
23.37
23.90
23.41
22.09
20.21
18.04
15.87
13.93
12.33
11.10
10.18
9.53
9.08
8.70
8.24
7.50
6.28
4.45
1.99
-1.04
-4.55
-8.45
-12.66
-17.14
-21.84
-26.74
-31.71
-36.43
-40.41
-42.94
-43.30
-41.02
-36.06
-28.93
-20.49
-11.72
-3.43
3.88
9.99
14.87
18.53
20.95
22.11
22.01
20.76
18.65
16.02
13.28
10.79
8.75
7.22
6.14
5.39
4.84
4.37
3.84
3.17
2.22
0.94
-0.71
-2.75
-5.11
-7.75
-10.64
-13.81
-17.32
-21.18
-25.28
-29.23
-32.38
-33.95
-33.25
-29.94
-24.23
-16.81
-8.63
-0.67
6.39
12.24
16.88
20.46
23.07
24.67
25.10
24.26
22.24
19.43
16.39
13.78
12.05
11.30
11.30
11.58
11.68
11.26
10.28
8.93
7.47
6.15
5.07
4.12
3.03
1.43
-1.09
-4.98
-10.55
-17.91
-26.68
-35.93
-44.28
-50.19
-52.49
-50.66
-45.09
-36.83
-27.18
-17.35
-8.13
0.06
7.09
12.82
17.09
19.78
20.81
20.41
18.96
17.02
15.08
13.50
12.40
11.69
11.18
10.72
10.24
9.77
9.40
9.15
8.95
8.63
7.98
6.83
5.12
2.89
0.25
-2.72
-6.04
-9.80
-14.09
-18.92
-23.98
-28.67
-32.11
-33.38
-31.86
-27.50
-20.88
-13.02
-5.04
2.18
8.27
13.27
17.38
20.70
23.10
24.32
24.15
22.59
20.00
16.91
13.91
11.40
9.56
8.31
7.44
6.71
5.99
5.22
4.43
3.63
2.81
1.91
0.83
-0.51
-2.17
-4.22
-6.71
-9.73
-13.35
-17.55
-22.13
-26.66
-30.49
-32.87
-33.18
-31.13
-26.87
-20.96
-14.17
-7.27
-0.84
4.84
9.66
13.56
16.43
18.09
18.38
17.31
15.12
12.28
9.37
6.88
5.04
3.86
3.15
2.64
2.12
1.53
0.89
0.24
-0.37
-0.94
-1.51
-2.11
-2.82
-3.68
-4.76
-6.17
-8.00
-10.38
-13.42
-17.07
-21.06
-24.81
-27.56
-28.54
-27.25
-23.66
-18.24
-11.78
-5.06
1.37
7.25
12.54
17.12
20.81
23.29
24.36
24.03
22.59
20.47
18.13
15.84
13.74
11.85
10.17
8.74
7.60
6.73
6.02
5.28
4.33
3.04
1.42
-0.43
-2.33
-4.20
-6.11
-8.28
-11.04
-14.64
-19.02
-23.74
-28.01
-30.87
-31.55
-29.61
-25.15
-18.75
-11.24
-3.46
3.90
10.41
15.89
20.27
23.53
25.61
26.44
26.01
24.44
21.99
19.08
16.19
13.70
11.85
10.66
9.97
9.51
9.07
8.50
7.82
7.09
6.37
5.65
4.83
3.71
2.11
-0.18
-3.26
-7.16
-11.75
-16.74
-21.59
-25.61
-28.06
-28.31
-26.10
-21.61
-15.46
-8.51
-1.61
4.63
9.96
14.40
18.06
20.98
23.03
23.97
23.66
22.19
19.90
17.31
14.93
13.08
11.78
10.86
10.12
9.40
8.70
8.10
7.67
7.39
7.12
6.66
5.83
4.54
2.82
0.71
-1.75
-4.64
-8.08
-12.03
-16.25
-20.14
-22.83
-23.49
-21.61
-17.25
-11.03
-3.89
3.22
9.65
15.09
19.53
23.05
25.65
27.28
27.82
27.28
25.78
23.61
21.09
18.59
16.36
14.59
13.33
12.55
12.10
11.79
11.36
10.62
9.44
7.76
5.67
3.30
0.78
-1.78
-4.43
-7.34
-10.78
-14.93
-19.70
-24.66
-29.04
-31.93
-32.59
-30.65
-26.28
-20.11
-13.02
-5.84
0.81
6.62
11.51
15.41
18.29
20.02
20.50
19.76
18.05
15.78
13.41
11.31
9.61
8.25
7.02
5.81
4.60
3.53
2.79
2.48
2.53
2.67
2.53
1.79
0.28
-1.98
-4.83
-8.14
-11.86
-16.01
-20.59
-25.35
-29.76
-32.99
-34.25
-33.04
-29.39
-23.89
-17.45
-10.99
-5.16
-0.23
3.82
7.16
9.85
11.84
12.98
13.16
12.40
10.90
9.00
7.09
5.47
4.28
3.48
2.92
2.39
1.76
0.94
-0.07
-1.22
-2.51
-3.95
-5.63
-7.60
-9.89
-12.44
-15.18
-18.06
-21.09
-24.25
-27.44
-30.26
-32.12
-32.35
-30.45
-26.33
-20.41
-13.45
-6.30
0.38
6.23
11.20
15.30
18.54
20.76
21.80
21.58
20.16
17.86
15.12
12.43
10.17
8.54
7.54
6.98
6.66
6.39
6.12
5.84
5.53
5.09
4.33
3.06
1.19
-1.20
-3.99
-7.08
-10.54
-14.47
-18.84
-23.30
-27.10
-29.32
-29.18
-26.34
-21.13
-14.30
-6.88
0.32
6.79
12.31
16.83
20.33
22.72
23.90
23.86
22.74
20.83
18.51
16.14
13.98
12.16
10.66
9.39
8.21
7.04
5.89
4.87
4.09
3.58
3.18
2.57
1.42
-0.52
-3.25
-6.65
-10.54
-14.76
-19.14
-23.37
-26.89
-28.93
-28.75
-26.00
-20.82
-13.98
-6.52
0.56
6.62
11.48
15.31
18.38
20.88
22.79
23.88
23.92
22.79
20.63
17.80
14.82
12.18
10.17
8.87
8.16
7.85
7.75
7.70
7.60
7.33
6.75
5.74
4.23
2.22
-0.30
-3.30
-6.79
-10.74
-15.02
-19.32
-23.15
-25.89
-26.91
-25.78
-22.38
-17.05
-10.44
-3.39
3.32
9.18
14.02
17.94
21.08
23.47
24.94
25.18
24.03
21.58
18.30
14.83
11.81
9.57
8.12
7.18
6.41
5.56
4.63
3.67
2.75
1.79
0.57
-1.19
-3.62
-6.70
-10.29
-14.16
-18.21
-22.40
-26.63
-30.70
-34.08
-36.05
-35.91
-33.21
-28.06
-21.06
-13.19
-5.43
1.47
7.21
11.79
15.40
18.16
20.05
20.94
20.72
19.42
17.31
14.78
12.27
10.03
8.17
6.57
5.10
3.65
2.23
0.92
-0.23
-1.23
-2.27
-3.53
-5.21
-7.38
-9.97
-12.91
-16.09
-19.54
-23.23
-27.02
-30.55
-33.22
-34.35
-33.40
-30.22
-25.06
-18.59
-11.59
-4.81
1.29
6.50
10.76
14.03
16.17
17.03
16.54
14.86
12.40
9.73
7.38
5.70
4.74
4.33
4.15
3.90
3.43
2.74
1.91
1.08
0.31
-0.47
-1.38
-2.61
-4.34
-6.70
-9.76
-13.53
-17.85
-22.36
-26.47
-29.43
-30.51
-29.22
-25.55
-19.98
-13.29
-6.34
0.18
5.94
10.88
15.05
18.41
20.81
21.99
21.80
20.30
17.83
14.95
12.16
9.84
8.05
6.70
5.60
4.62
3.73
3.01
2.52
2.24
2.01
1.58
0.69
-0.87
-3.18
-6.19
-9.76
-13.73
-17.82
-21.64
-24.63
-26.17
-25.71
-22.99
-18.17
-11.81
-4.72
2.31
8.74
14.26
18.83
22.42
24.97
26.33
26.39
25.16
22.87
19.95
16.92
14.13
11.78
9.86
8.21
6.74
5.42
4.33
3.54
3.08
2.84
2.58
2.06
1.04
-0.66
-3.10
-6.28
-10.11
-14.38
-18.65
-22.35
-24.77
-25.29
-23.56
-19.64
-14.04
-7.56
-1.00
5.06
10.34
14.86
18.69
21.82
24.04
25.07
24.69
22.94
20.16
16.89
13.72
11.09
9.19
7.99
7.30
6.86
6.48
6.02
5.46
4.81
4.01
3.00
1.66
-0.17
-2.54
-5.52
-9.06
-13.11
-17.50
-21.94
-25.93
-28.83
-29.95
-28.81
-25.23
-19.54
-12.44
-4.79
2.57
9.09
14.47
18.69
21.78
23.74
24.52
24.04
22.39
19.82
16.83
13.93
11.56
9.88
8.80
8.05
7.37
6.62
5.79
5.02
4.39
3.86
3.21
2.12
0.31
-2.39
-5.95
-10.17
-14.86
-19.76
-24.59
-28.90
-32.06
-33.39
-32.36
-28.80
-23.04
-15.82
-7.99
-0.33
6.63
12.60
17.45
21.05
23.29
24.11
23.60
21.99
19.67
17.06
14.54
12.36
10.65
9.36
8.41
7.65
6.92
6.13
5.15
3.91
2.38
0.60
-1.40
-3.56
-5.88
-8.46
-11.45
-15.00
-19.17
-23.82
-28.56
-32.75
-35.58
-36.32
-34.53
-30.18
-23.74
-15.97
-7.75
0.18
7.32
13.44
18.41
22.13
24.46
25.33
24.81
23.15
20.76
18.09
15.54
13.34
11.60
10.25
9.18
8.27
7.42
6.57
5.69
4.72
3.59
2.22
0.52
-1.55
-3.97
-6.68
-9.63
-12.85
-16.48
-20.63
-25.25
-30.00
-34.16
-36.82
-37.15
-34.73
-29.71
-22.79
-14.91
-6.95
0.56
7.39
13.48
18.69
22.74
25.24
25.95
24.92
22.54
19.43
16.24
13.46
11.34
9.90
8.97
8.36
7.87
7.39
6.87
6.29
5.61
4.71
3.44
1.61
-0.83
-3.83
-7.28
-11.07
-15.24
-19.84
-24.84
-29.86
-34.14
-36.69
-36.57
-33.38
-27.31
-19.24
-10.31
-1.56
6.36
13.20
18.97
23.73
27.38
29.72
30.53
29.82
27.82
25.04
22.02
19.24
16.95
15.22
13.95
12.99
12.18
11.44
10.66
9.79
8.71
7.38
5.67
3.52
0.87
-2.36
-6.24
-10.85
-16.12
-21.88
-27.68
-32.85
-36.55
-38.01
-36.74
-32.65
-26.17
-18.06
-9.21
-0.50
7.46
14.28
19.75
23.80
26.44
27.68
27.62
26.44
24.40
21.87
19.20
16.72
14.61
12.91
11.55
10.42
9.44
8.54
7.65
6.62
5.31
3.55
1.24
-1.60
-4.87
-8.48
-12.42
-16.77
-21.60
-26.85
-32.12
-36.74
-39.78
-40.39
-38.10
-33.00
-25.69
-17.15
-8.34
0.02
7.59
14.31
20.20
25.18
29.00
31.36
32.03
31.00
28.60
25.35
21.88
18.76
16.33
14.70
13.71
13.08
12.50
11.82
11.00
10.11
9.19
8.16
6.85
5.03
2.58
-0.48
-4.00
-7.84
-11.89
-16.02
-19.94
-23.05
-24.46
-23.27
-18.89
-11.28
-1.01
10.97
23.65
36.19
48.01
58.71
67.95
75.52
81.34
85.52
88.42
90.51
92.23
93.99
96.09
98.72
101.86
105.19
108.04
109.44
108.40
104.25
96.86
86.57
73.88
59.04
41.87
22.05
-0.55
-25.47
-51.63
-77.71
-102.67
-126.02
-147.60
-166.95
-182.81
-193.06
-195.39
-188.25
-171.71
-147.52
-118.55
-87.66
-56.95
-27.48
0.30
25.86
48.11
65.52
76.72
81.27
80.23
76.04
71.89
70.68
74.19
82.56
94.57
108.45
122.82
137.45
153.27
171.76
194.09
220.37
249.43
279.23
307.31
331.31
349.18
359.17
360.00
351.26
333.73
309.45
281.35
252.45
225.08
200.46
178.82
159.76
142.80
127.63
113.98
101.53
89.81
78.27
66.47
54.22
41.71
29.41
17.81
7.24
-2.42
-11.70
-21.44
-32.44
-45.10
-59.23
-74.03
-88.43
-101.59
-113.31
-124.30
-135.93
-149.75
-166.85
-187.34
-210.36
-234.46
-258.22
-280.84
-302.48
-324.13
-347.42
-374.26
-406.50
-445.11
-489.15
-534.92
-575.89
-603.91
-611.72
-595.51
-556.59
-500.98
-437.30
-373.76
-315.96
-266.03
-223.41
-186.16
-152.15
-119.50
-86.70
-52.60
-16.72
20.49
57.55
92.43
123.13
148.33
167.66
181.57
190.90
196.56
199.28
199.57
197.65
193.39
186.31
175.90
162.04
145.51
128.11
112.16
99.55
90.79
84.56
78.30
69.42
56.54
40.13
22.03
4.21
-12.50
-28.81
-46.57
-67.55
-92.27
-119.54
-146.83
-171.22
-190.45
-203.44
-210.29
-211.63
-208.05
-199.66
-186.10
-167.13
-143.28
-116.47
-89.99
-67.82
-53.46
-48.61
-52.39
-61.44
-70.83
-75.68
-72.56
-60.36
-40.25
-14.91
12.63
39.96
65.62
89.09
110.32
129.35
146.01
159.92
170.63
177.72
181.03
180.83
177.80
173.02
167.67
162.61
158.02
152.93
145.14
131.47
108.44
73.71
27.47
-26.43
-80.52
-125.18
-151.15
-152.35
-127.98
-82.76
-25.48
33.53
85.06
122.58
142.68
144.54
129.16
98.82
56.76
6.85
-46.85
-100.89
-153.18
-203.22
-251.39
-297.73
-340.44
-375.32
-396.65
-399.14
-380.13
-340.64
-285.38
-221.25
-155.60
-94.62
-42.33
-0.51
30.99
53.43
68.38
77.14
80.54
79.33
74.65
68.28
62.11
57.32
53.51
48.78
40.68
27.71
10.22
-9.76
-29.68
-47.46
-61.73
-71.59
-76.24
-75.27
-69.36
-60.68
-52.36
-47.40
-47.29
-51.68
-59.24
-68.96
-81.23
-97.63
-119.77
-147.68
-179.16
-210.01
-235.46
-251.72
-256.86
-251.07
-236.16
-214.81
-189.75
-163.20
-136.71
-111.17
-87.09
-64.78
-44.30
-25.44
-7.58
10.12
28.46
47.72
67.52
86.81
104.33
119.09
130.86
140.25
148.44
156.75
166.00
176.34
187.28
198.20
208.79
219.43
231.31
246.00
264.69
287.25
311.73
334.53
351.43
359.01
355.89
343.24
324.12
302.29
280.86
261.56
244.82
230.24
217.15
204.86
192.47
178.72
162.05
141.05
115.11
85.01
53.00
22.43
-3.01
-20.39
-28.29
-27.19
-19.09
-6.85
6.65
19.17
29.32
36.50
40.65
42.14
41.60
39.81
37.59
35.51
33.72
31.99
29.83
26.84
22.96
18.55
14.18
10.45
7.72
6.04
5.22
4.94
4.84
4.67
4.20
3.28
1.93
0.41
-0.77
-0.86
0.87
4.82
10.92
18.58
26.84
34.73
41.56
47.11
51.60
55.53
59.40
63.54
67.92
72.18
75.71
77.95
78.50
77.41
75.18
72.65
70.83
70.45
71.80
74.59
78.02
81.17
83.22
83.79
83.01
81.47
80.09
79.83
81.42
84.97
89.77
94.22
96.23
93.80
85.76
72.33
55.09
36.41
18.67
3.46
-8.70
-18.25
-26.09
-33.13
-40.05
-47.24
-54.83
-62.75
-70.65
-77.98
-84.00
-88.00
-89.52
-88.50
-85.40
-81.03
-76.42
-72.60
-70.35
-70.00
-71.37
-73.79
-76.33
-78.04
-78.33
-77.03
-74.39
-70.87
-66.88
-62.64
-58.11
-53.08
-47.41
-41.15
-34.61
-28.32
-22.85
-18.63
-15.92
-14.67
-14.66
-15.52
-16.84
-18.28
-19.56
-20.52
-21.12
-21.39
-21.47
-21.54
-21.77
-22.25
-22.97
-23.76
-24.39
-24.72
-24.76
-24.74
-24.92
-25.50
-26.44
-27.50
-28.33
-28.63
-28.22
-27.08
-25.25
-22.73
-19.52
-15.72
-11.56
-7.43
-3.79
-1.04
0.64
1.33
1.29
0.84
0.23
-0.41
-1.08
-1.77
-2.54
-3.34
-4.17
-5.01
-5.94
-6.99
-8.20
-9.54
-10.91
-12.25
-13.52
-14.75
-15.99
-17.30
-18.62
-19.79
-20.61
-20.91
-20.58
-19.63
-18.12
-16.16
-13.83
-11.23
-8.45
-5.64
-2.99
-0.73
0.94
1.93
2.29
2.19
1.86
1.47
1.02
0.44
-0.43
-1.62
-3.02
-4.38
-5.41
-6.01
-6.23
-6.35
-6.68
-7.44
-8.69
-10.35
-12.26
-14.24
-16.13
-17.72
-18.76
-18.98
-18.17
-16.22
-13.25
-9.53
-5.48
-1.51
2.02
4.91
7.10
8.63
9.63
10.17
10.27
9.94
9.18
8.06
6.72
5.30
3.85
2.36
0.78
-0.89
-2.61
-4.27
-5.78
-7.14
-8.47
-9.89
-11.51
-13.34
-15.27
-17.12
-18.69
-19.80
-20.33
-20.22
-19.45
-18.01
-15.89
-13.13
-9.82
-6.19
-2.56
0.68
3.20
4.87
5.77
6.16
6.32
6.41
6.47
6.40
6.09
5.53
4.79
4.03
3.35
2.79
2.26
1.64
0.79
-0.30
-1.60
-3.02
-4.50
-6.04
-7.67
-9.42
-11.20
-12.80
-13.90
-14.22
-13.66
-12.25
-10.20
-7.79
-5.19
-2.48
0.33
3.27
6.19
8.87
11.01
12.39
12.90
12.65
11.82
10.69
9.47
8.29
7.21
6.25
5.40
4.68
4.09
3.62
3.20
2.72
2.08
1.17
-0.03
-1.51
-3.23
-5.14
-7.23
-9.37
-11.34
-12.83
-13.51
-13.15
-11.78
-9.60
-6.93
-4.03
-1.08
1.84
4.68
7.32
9.56
11.22
12.23
12.63
12.55
12.14
11.51
10.70
9.71
8.58
7.38
6.19
5.12
4.21
3.47
2.80
2.13
1.36
0.46
-0.60
-1.83
-3.25
-4.88
-6.72
-8.65
-10.45
-11.82
-12.42
-12.02
-10.58
-8.26
-5.32
-2.11
1.12
4.18
6.95
9.34
11.24
12.56
13.24
13.29
12.81
11.99
11.02
10.05
9.14
8.22
7.21
6.01
4.68
3.34
2.20
1.38
0.88
0.53
0.06
-0.80
-2.19
-4.10
-6.34
-8.62
-10.64
-12.15
-12.95
-12.97
-12.19
-10.66
-8.50
-5.82
-2.83
0.29
3.31
6.01
8.23
9.82
10.72
10.97
10.70
10.08
9.32
8.50
7.63
6.65
5.48
4.18
2.86
1.70
0.81
0.16
-0.37
-0.98
-1.75
-2.68
-3.74
-4.92
-6.28
-7.89
-9.74
-11.64
-13.26
-14.22
-14.23
-13.21
-11.26
-8.60
-5.51
-2.20
1.15
4.40
7.40
10.01
12.12
13.62
14.50
14.74
14.43
13.73
12.85
12.01
11.35
10.95
10.75
10.66
10.61
10.51
10.30
9.98
9.52
8.94
8.28
7.57
6.87
6.22
5.67
5.25
5.05
5.11
5.56
6.51
8.15
10.70
14.33
18.99
24.24
29.28
33.13
35.00
34.56
32.07
28.21
23.70
18.97
13.96
8.24
1.24
-7.44
-17.93
-30.06
-43.55
-58.03
-73.01
-87.74
-101.24
-112.62
-121.31
-127.50
-132.02
-135.78
-139.18
-141.59
-141.61
-137.82
-129.64
-117.83
-104.17
-90.60
-78.26
-67.07
-56.05
-44.02
-30.36
-15.15
1.11
18.05
35.72
54.45
74.31
94.62
113.90
130.32
142.50
150.16
154.25
156.55
158.81
161.94
165.77
169.21
170.83
169.36
164.08
154.77
141.78
125.90
108.37
90.70
74.22
59.53
46.14
32.68
17.71
0.64
-17.72
-35.27
-49.59
-59.05
-63.42
-63.80
-61.87
-58.95
-55.56
-51.53
-46.55
-40.71
-34.68
-29.39
-25.60
-23.49
-22.66
-22.48
-22.41
-22.28
-22.21
-22.45
-23.01
-23.56
-23.53
-22.39
-19.95
-16.49
-12.69
-9.41
-7.39
-7.20
-9.18
-13.54
-20.16
-28.45
-37.26
-44.97
-49.99
-51.29
-48.79
-43.39
-36.51
-29.49
-23.25
-18.14
-14.24
-11.62
-10.45
-10.84
-12.60
-15.10
-17.33
-18.31
-17.39
-14.58
-10.46
-6.05
-2.40
-0.15
0.65
0.54
0.34
0.82
2.21
4.14
5.66
5.73
3.55
-1.03
-7.49
-14.76
-21.64
-27.07
-30.38
-31.34
-30.04
-26.75
-21.72
-15.17
-7.40
1.09
9.53
16.91
22.36
25.35
26.04
25.07
23.27
21.26
19.21
16.93
14.20
11.14
8.23
6.05
4.86
4.35
3.78
2.40
-0.08
-3.29
-6.50
-8.96
-10.24
-10.20
-8.79
-5.85
-1.14
5.38
13.35
21.89
29.98
36.82
42.12
46.12
49.33
52.23
55.03
57.62
59.49
59.80
57.47
51.46
41.29
27.42
11.40
-4.56
-18.24
-28.19
-33.96
-35.97
-35.02
-31.78
-26.74
-20.40
-13.56
-7.37
-3.15
-1.85
-3.67
-7.97
-13.44
-18.64
-22.39
-24.14
-23.99
-22.48
-20.31
-18.05
-16.02
-14.31
-12.94
-12.04
-11.87
-12.73
-14.75
-17.74
-21.17
-24.40
-27.02
-29.03
-30.95
-33.39
-36.54
-39.73
-41.47
-39.93
-33.79
-22.90
-8.47
7.31
22.16
34.33
42.96
48.00
49.80
48.88
45.79
41.18
35.86
30.76
26.68
24.13
23.10
23.22
23.91
24.66
25.20
25.56
25.92
26.46
27.17
27.80
27.96
27.22
25.30
22.16
17.95
13.02
7.83
2.92
-1.20
-4.07
-5.48
-5.46
-4.25
-2.19
0.34
3.03
5.58
7.74
9.26
10.01
9.97
9.25
8.08
6.67
5.22
3.90
2.85
2.24
2.27
3.06
4.62
6.75
9.12
11.25
12.70
13.18
12.58
11.04
8.89
6.53
4.32
2.55
1.32
0.61
0.29
0.23
0.34
0.52
0.70
0.68
0.26
-0.78
-2.49
-4.71
-7.09
-9.19
-10.70
-11.40
-11.30
-10.50
-9.14
-7.40
-5.47
-3.54
-1.81
-0.37
0.82
1.90
3.08
4.47
6.06
7.63
8.94
9.78
10.02
9.67
8.81
7.59
6.14
4.64
3.23
2.03
1.04
0.13
-0.86
-2.07
-3.49
-4.93
-6.12
-6.90
-7.30
-7.55
-7.96
-8.76
-9.98
-11.37
-12.53
-13.01
-12.46
-10.74
-8.07
-4.97
-2.17
-0.35
0.12
-0.66
-2.11
-3.46
-4.05
-3.65
-2.56
-1.45
-1.07
-1.91
-3.91
-6.49
-8.69
-9.49
-8.20
-4.62
0.87
7.38
13.88
19.46
23.61
26.31
28.06
29.59
31.63
34.62
38.58
43.16
47.91
52.52
56.90
61.21
65.72
70.64
76.09
82.05
88.25
94.15
98.81
101.11
99.98
94.81
85.79
73.80
60.07
45.49
30.30
14.09
-3.76
-23.55
-44.93
-66.92
-88.26
-107.70
-124.13
-136.52
-143.95
-145.80
-142.15
-134.10
-123.64
-113.18
-104.67
-98.98
-95.73
-93.68
-91.41
-87.94
-83.00
-76.94
-70.40
-63.99
-58.08
-52.62
-47.29
-41.52
-34.78
-26.80
-17.65
-7.82
2.05
11.45
20.10
27.98
35.12
41.48
46.76
50.52
52.31
51.77
48.70
43.02
34.81
24.50
12.97
1.49
-8.61
-16.38
-21.67
-25.11
-27.80
-30.65
-33.93
-37.25
-39.95
-41.58
-42.20
-42.29
-42.50
-43.30
-44.96
-47.63
-51.35
-55.90
-60.64
-64.30
-65.28
-62.04
-53.72
-40.45
-23.39
-4.40
14.40
31.05
44.09
52.78
57.25
58.51
58.05
57.40
57.55
58.74
60.52
62.18
63.21
63.48
63.23
62.86
62.77
63.21
64.29
65.92
67.60
68.44
67.28
63.08
55.30
44.18
30.55
15.58
0.31
-14.36
-27.59
-38.41
-45.73
-48.80
-47.59
-43.21
-37.77
-33.68
-32.71
-35.18
-39.75
-44.00
-45.44
-42.59
-35.65
-26.27
-16.79
-9.15
-4.20
-1.60
-0.21
1.19
3.41
6.91
11.93
18.68
27.08
36.30
44.48
49.14
48.10
40.59
27.83
12.67
-1.55
-12.33
-18.72
-21.28
-21.18
-19.40
-16.31
-11.81
-5.86
1.22
8.81
16.34
23.66
31.01
38.62
46.16
52.41
55.48
53.50
45.51
32.03
15.10
-2.49
-18.14
-30.28
-38.67
-44.07
-47.54
-49.87
-51.29
-51.64
-50.68
-48.41
-45.11
-41.30
-37.46
-33.94
-30.85
-28.16
-25.80
-23.72
-21.90
-20.38
-19.14
-18.11
-17.10
-15.89
-14.28
-12.24
-9.92
-7.67
-5.89
-4.87
-4.62
-4.90
-5.25
-5.23
-4.50
-2.87
-0.35
2.95
6.80
10.85
14.68
17.93
20.48
22.54
24.61
27.30
31.01
35.79
41.30
47.02
52.46
57.40
61.93
66.36
71.14
76.63
83.02
90.26
98.21
106.68
115.55
124.80
134.43
144.43
154.70
165.05
175.25
184.95
193.68
200.78
205.54
207.35
206.00
201.87
195.78
188.57
180.57
171.28
159.47
143.79
123.65
99.78
74.35
50.15
29.35
12.60
-1.09
-13.59
-26.39
-39.96
-54.14
-69.00
-85.44
-104.63
-126.50
-148.40
-165.31
-171.74
-164.54
-144.76
-117.12
-87.40
-59.19
-32.15
-2.87
32.36
74.63
120.87
164.81
199.43
219.66
223.88
213.75
192.88
165.04
132.97
98.08
61.03
22.54
-16.02
-52.80
-86.13
-115.44
-141.83
-167.93
-197.13
-232.38
-274.76
-322.71
-371.83
-415.82
-448.16
-463.98
-461.47
-442.13
-410.02
-370.30
-327.78
-286.12
-247.70
-213.90
-185.41
-162.37
-144.27
-129.93
-117.73
-106.03
-93.66
-80.18
-65.96
-51.97
-39.34
-28.95
-21.08
-15.38
-11.02
-7.06
-2.83
1.83
6.52
10.48
12.89
13.15
11.10
7.05
1.69
-4.14
-9.67
-14.35
-17.90
-20.21
-21.32
-21.36
-20.43
-18.70
-16.27
-13.26
-9.76
-5.95
-2.07
1.58
4.71
7.17
8.99
10.41
11.74
13.25
15.07
17.22
19.58
22.06
24.53
26.91
29.06
30.75
31.73
31.72
30.59
28.42
25.45
22.13
18.93
16.26
14.33
13.22
12.78
12.71
12.65
12.20
11.13
9.47
7.54
5.95
5.35
6.22
8.69
12.52
17.22
22.25
27.18
31.74
35.84
39.48
42.64
45.32
47.50
49.22
50.49
51.32
51.65
51.37
50.29
48.31
45.38
41.65
37.28
32.44
27.14
21.30
14.83
7.84
0.74
-5.90
-11.42
-15.43
-17.82
-18.77
-18.58
-17.50
-15.72
-13.46
-11.07
-9.02
-7.71
-7.31
-7.64
-8.28
-8.81
-8.99
-8.85
-8.57
-8.29
-8.09
-7.92
-7.76
-7.69
-7.94
-8.73
-10.17
-12.21
-14.67
-17.31
-19.81
-21.50
-21.40
-18.30
-11.34
-0.54
12.87
26.64
38.32
46.23
50.18
51.49
52.39
55.01
60.49
68.53
77.58
85.54
90.69
92.31
91.03
88.43
86.33
85.88
86.96
88.18
87.34
82.05
70.46
51.85
27.17
-0.59
-26.61
-45.27
-51.97
-45.07
-27.08
-4.15
15.86
26.32
23.96
9.60
-12.81
-38.16
-61.87
-80.81
-93.14
-97.85
-94.59
-83.81
-67.11
-47.33
-27.93
-12.07
-1.53
3.79
5.60
6.40
8.30
12.27
17.89
23.82
28.41
30.47
29.74
26.88
23.18
20.06
18.62
19.32
21.90
25.63
29.66
33.33
36.36
38.75
40.61
41.98
42.68
42.55
41.46
39.53
36.98
34.05
30.82
27.33
23.80
20.81
19.33
20.48
25.28
34.50
48.56
67.66
91.62
119.74
150.48
181.39
209.31
230.77
242.74
243.08
230.86
206.45
171.33
127.69
78.00
24.73
-29.72
-83.07
-133.09
-177.50
-213.88
-239.73
-252.60
-250.34
-231.74
-197.02
-148.34
-89.72
-26.69
34.56
88.16
129.61
156.76
170.28
173.67
172.26
171.68
176.08
186.88
202.46
219.38
233.89
243.18
245.80
241.08
228.47
207.14
176.29
135.88
87.19
32.93
-23.25
-77.48
-126.59
-168.66
-203.16
-230.63
-251.90
-267.45
-276.98
-279.68
-274.93
-263.02
-245.56
-225.29
-205.16
-187.47
-173.19
-162.03
-152.88
-144.49
-135.97
-126.88
-117.21
-107.12
-96.85
-86.71
-77.00
-68.04
-60.10
-53.28
-47.57
-42.78
-38.70
-35.06
-31.68
-28.43
-25.25
-22.18
-19.40
-17.14
-15.65
-15.05
-15.28
-15.99
-16.68
-16.83
-16.07
-14.32
-11.80
-8.87
-5.89
-3.12
-0.64
1.56
3.51
5.19
6.49
7.29
7.54
7.30
6.67
5.84
4.94
4.05
3.21
2.44
1.74
1.13
0.62
0.22
-0.08
-0.33
-0.63
-1.08
-1.80
-2.81
-4.06
-5.37
-6.46
-7.03
-6.80
-5.58
-3.33
-0.18
3.61
7.59
11.31
14.34
16.37
17.35
17.43
16.90
16.07
15.17
14.26
13.28
12.14
10.80
9.25
7.58
5.85
4.11
2.47
1.06
0.02
-0.56
-0.70
-0.66
-0.73
-1.24
-2.29
-3.76
-5.32
-6.57
-7.22
-7.14
-6.32
-4.81
-2.68
-0.03
2.98
6.07
8.88
11.11
12.62
13.42
13.69
13.64
13.37
12.91
12.22
11.29
10.14
8.89
7.60
6.35
5.19
4.15
3.26
2.51
1.85
1.16
0.27
-0.96
-2.59
-4.56
-6.70
-8.69
-10.17
-10.77
-10.19
-8.35
-5.40
-1.74
2.15
5.77
8.82
11.17
12.83
13.84
14.26
14.14
13.58
12.74
11.84
11.01
10.23
9.38
8.31
6.98
5.49
4.09
3.04
2.45
2.24
2.12
1.74
0.86
-0.64
-2.65
-4.94
-7.18
-9.08
-10.40
-11.02
-10.87
-9.88
-8.08
-5.50
-2.29
1.20
4.55
7.37
9.36
10.44
10.75
10.52
9.95
9.17
8.20
7.04
5.69
4.22
2.70
1.19
-0.28
-1.70
-3.02
-4.26
-5.39
-6.44
-7.45
-8.48
-9.54
-10.64
-11.74
-12.79
-13.70
-14.32
-14.43
-13.79
-12.19
-9.58
-6.14
-2.27
1.54
4.81
7.24
8.75
9.43
9.49
9.10
8.39
7.42
6.18
4.72
3.11
1.48
-0.06
-1.47
-2.69
-3.79
-4.82
-5.81
-6.76
-7.62
-8.38
-9.06
-9.75
-10.59
-11.64
-12.84
-13.95
-14.64
-14.55
-13.49
-11.45
-8.58
-5.16
-1.47
2.26
5.80
8.99
11.61
13.50
14.54
14.76
14.26
13.25
11.93
10.51
9.08
7.72
6.45
5.28
4.22
3.24
2.36
1.55
0.83
0.19
-0.42
-1.10
-1.96
-3.12
-4.59
-6.27
-7.88
-9.07
-9.49
-8.88
-7.15
-4.38
-0.81
3.15
7.03
10.39
12.90
14.42
14.99
14.80
14.06
12.96
11.64
10.22
8.74
7.25
5.77
4.28
2.83
1.48
0.34
-0.48
-0.94
-1.14
-1.26
-1.52
-2.12
-3.18
-4.69
-6.53
-8.46
-10.17
-11.30
-11.52
-10.61
-8.52
-5.47
-1.83
1.93
5.41
8.33
10.58
12.23
13.35
14.01
14.20
13.88
13.08
11.89
10.50
9.10
7.80
6.60
5.43
4.25
3.07
2.04
1.28
0.84
0.65
0.51
0.13
-0.73
-2.22
-4.29
-6.66
-8.90
-10.48
-10.98
-10.16
-8.03
-4.83
-0.93
3.24
7.30
10.89
13.75
15.70
16.64
16.60
15.71
14.21
12.36
10.46
8.79
7.49
6.61
6.02
5.53
4.95
4.22
3.40
2.64
2.07
1.72
1.44
1.00
0.09
-1.51
-3.85
-6.75
-9.77
-12.33
-13.84
-13.89
-12.33
-9.34
-5.35
-0.90
3.45
7.30
10.40
12.64
14.03
14.64
14.56
13.92
12.84
11.48
9.97
8.43
6.94
5.55
4.28
3.17
2.27
1.65
1.36
1.30
1.34
1.27
0.92
0.24
-0.75
-1.97
-3.34
-4.84
-6.40
-7.91
-9.16
-9.88
-9.81
-8.77
-6.74
-3.83
-0.27
3.52
7.11
9.99
11.75
12.17
11.35
9.65
7.59
5.65
4.06
2.83
1.74
0.58
-0.78
-2.28
-3.73
-4.94
-5.78
-6.23
-6.39
-6.33
-6.13
-5.87
-5.68
-5.78
-6.40
-7.64
-9.32
-10.97
-12.03
-11.92
-10.35
-7.37
-3.31
1.28
5.89
10.07
13.51
16.01
17.52
18.09
17.87
17.13
16.14
15.12
14.20
13.38
12.56
11.61
10.45
9.12
7.71
6.41
5.39
4.69
4.23
3.83
3.29
2.41
1.08
-0.71
-2.85
-5.13
-7.27
-8.90
-9.70
-9.38
-7.89
-5.31
-1.96
1.79
5.54
8.99
11.90
14.19
15.82
16.78
17.06
16.68
15.73
14.36
12.79
11.21
9.76
8.44
7.20
5.93
4.63
3.39
2.32
1.53
1.03
0.70
0.39
-0.06
-0.76
-1.75
-3.07
-4.68
-6.47
-8.19
-9.49
-9.98
-9.34
-7.46
-4.44
-0.63
3.51
7.47
10.79
13.18
14.53
14.94
14.60
13.78
12.69
11.45
10.13
8.78
7.46
6.25
5.20
4.31
3.53
2.78
2.04
1.35
0.82
0.52
0.45
0.46
0.33
-0.17
-1.22
-2.87
-5.02
-7.51
-9.99
-12.07
-13.35
-13.46
-12.23
-9.69
-6.12
-1.96
2.27
6.09
9.14
11.25
12.42
12.75
12.38
11.50
10.25
8.78
7.25
5.81
4.59
3.62
2.87
2.26
1.70
1.21
0.84
0.64
0.55
0.44
0.10
-0.57
-1.60
-2.87
-4.21
-5.55
-6.88
-8.22
-9.62
-11.01
-12.20
-12.92
-12.91
-11.99
-10.13
-7.45
-4.21
-0.76
2.58
5.49
7.77
9.30
10.04
10.10
9.62
8.84
8.01
7.30
6.76
6.36
6.01
5.63
5.20
4.77
4.44
4.25
4.25
4.41
4.65
4.89
5.02
4.92
4.51
3.75
2.63
1.17
-0.58
-2.59
-4.71
-6.78
-8.54
-9.74
-10.16
-9.66
-8.19
-5.80
-2.61
1.08
4.92
8.47
11.39
13.49
14.77
15.34
15.36
14.92
14.06
12.77
11.12
9.21
7.19
5.24
3.48
1.98
0.74
-0.26
-1.06
-1.70
-2.18
-2.52
-2.71
-2.75
-2.70
-2.65
-2.77
-3.23
-4.16
-5.59
-7.46
-9.58
-11.72
-13.64
-15.12
-15.98
-16.03
-15.14
-13.22
-10.34
-6.70
-2.68
1.26
4.72
7.41
9.26
10.33
10.81
10.87
10.65
10.25
9.74
9.22
8.76
8.40
8.13
7.90
7.63
7.26
6.76
6.09
5.21
4.05
2.58
0.80
-1.19
-3.24
-5.18
-6.85
-8.21
-9.26
-10.13
-10.99
-12.03
-13.37
-14.99
-16.67
-18.00
-18.50
-17.79
-15.73
-12.49
-8.48
-4.22
-0.15
3.41
6.34
8.63
10.27
11.29
11.68
11.49
10.85
9.91
8.77
7.49
6.00
4.27
2.35
0.41
-1.29
-2.53
-3.16
-3.22
-2.92
-2.55
-2.36
-2.55
-3.15
-4.09
-5.17
-6.16
-6.88
-7.26
-7.42
-7.62
-8.16
-9.25
-10.87
-12.73
-14.40
-15.36
-15.21
-13.81
-11.24
-7.81
-3.98
-0.21
3.12
5.78
7.70
9.01
9.84
10.33
10.57
10.57
10.32
9.80
9.01
8.00
6.81
5.55
4.36
3.43
2.92
2.89
3.30
3.92
4.47
4.70
4.46
3.79
2.81
1.66
0.47
-0.76
-2.09
-3.56
-5.20
-6.97
-8.76
-10.42
-11.79
-12.64
-12.71
-11.84
-9.99
-7.25
-3.92
-0.34
3.15
6.24
8.74
10.56
11.67
12.17
12.20
11.87
11.28
10.40
9.16
7.56
5.71
3.86
2.27
1.16
0.53
0.24
0.06
-0.15
-0.44
-0.76
-1.02
-1.19
-1.34
-1.57
-2.05
-2.90
-4.15
-5.73
-7.49
-9.27
-10.95
-12.45
-13.74
-14.76
-15.35
-15.23
-14.16
-12.00
-8.89
-5.22
-1.53
1.67
4.12
5.77
6.84
7.52
7.92
7.97
7.47
6.29
4.46
2.19
-0.16
-2.24
-3.84
-4.92
-5.59
-5.97
-6.18
-6.25
-6.19
-6.05
-5.91
-5.93
-6.22
-6.81
-7.68
-8.72
-9.82
-10.95
-12.10
-13.31
-14.59
-15.84
-16.92
-17.63
-17.76
-17.10
-15.55
-13.10
-9.88
-6.15
-2.30
1.25
4.15
6.19
7.34
7.70
7.45
6.77
5.77
4.55
3.15
1.66
0.18
-1.20
-2.39
-3.35
-4.00
-4.34
-4.39
-4.21
-3.91
-3.61
-3.33
-3.07
-2.76
-2.40
-2.05
-1.91
-2.13
-2.82
-3.90
-5.11
-6.12
-6.61
-6.32
-5.16
-3.12
-0.27
3.32
7.52
12.19
17.11
22.05
26.76
31.02
34.63
37.50
39.59
41.00
41.98
42.85
43.95
45.48
47.44
49.60
51.71
53.69
55.70
58.24
61.83
66.80
73.09
80.26
87.68
94.96
102.16
109.88
119.07
130.71
145.39
163.17
183.34
204.46
224.44
240.76
250.99
253.56
248.46
237.55
224.07
211.50
202.07
195.99
191.49
185.89
176.94
163.86
147.45
129.51
111.74
94.95
78.69
61.58
42.09
19.30
-6.57
-34.13
-61.27
-85.95
-107.06
-124.82
-140.58
-156.08
-172.51
-189.86
-206.97
-222.29
-234.66
-244.07
-251.82
-260.04
-271.04
-286.92
-309.45
-339.81
-378.00
-421.67
-465.43
-501.09
-519.76
-514.95
-485.42
-435.95
-375.57
-313.94
-257.78
-209.28
-167.07
-128.76
-93.30
-61.61
-35.43
-15.34
0.36
15.25
32.91
55.17
81.22
108.15
132.62
152.49
167.50
178.98
188.80
198.29
207.58
215.64
220.86
221.80
217.77
209.22
197.45
184.24
171.09
158.77
147.25
135.98
124.49
112.80
101.45
91.15
82.29
74.71
67.69
60.34
51.94
42.17
31.10
18.90
5.89
-7.54
-20.76
-32.93
-43.25
-51.33
-57.45
-62.52
-67.54
-72.98
-78.45
-82.86
-85.01
-84.15
-80.27
-73.90
-65.75
-56.36
-46.16
-35.66
-25.54
-16.56
-9.21
-3.40
1.53
6.42
11.86
17.91
24.04
29.56
33.99
37.28
39.76
41.92
44.16
46.54
48.84
50.68
51.79
52.05
51.55
50.38
48.52
45.81
42.08
37.42
32.20
27.08
22.61
19.02
16.03
13.08
9.66
5.56
0.93
-3.91
-8.77
-13.71
-18.96
-24.71
-30.84
-36.89
-42.25
-46.40
-49.09
-50.36
-50.35
-49.15
-46.78
-43.24
-38.76
-33.80
-29.02
-25.01
-22.11
-20.33
-19.46
-19.25
-19.51
-20.14
-21.04
-22.04
-22.95
-23.64
-24.15
-24.65
-25.34
-26.20
-27.03
-27.56
-27.65
-27.44
-27.34
-27.83
-29.24
-31.67
-34.95
-38.77
-42.71
-46.24
-48.76
-49.68
-48.54
-45.27
-40.23
-34.14
-27.78
-21.72
-16.16
-11.03
-6.20
-1.72
2.08
4.75
5.93
5.50
3.70
1.02
-2.03
-4.99
-7.59
-9.72
-11.39
-12.66
-13.63
-14.36
-14.90
-15.18
-15.14
-14.75
-14.23
-13.95
-14.37
-15.87
-18.48
-21.95
-25.78
-29.50
-32.71
-35.16
-36.62
-36.80
-35.45
-32.38
-27.69
-21.74
-15.11
-8.45
-2.29
2.96
7.10
10.06
11.94
12.88
13.09
12.72
11.88
10.59
8.92
7.00
5.04
3.35
2.19
1.73
1.98
2.82
3.99
5.17
6.04
6.32
5.84
4.58
2.59
-0.04
-3.31
-7.25
-11.91
-17.20
-22.74
-27.87
-31.81
-33.86
-33.65
-31.21
-26.90
-21.26
-14.87
-8.27
-1.96
3.58
7.97
10.99
12.63
13.04
12.47
11.12
9.18
6.81
4.25
1.82
-0.16
-1.48
-2.14
-2.34
-2.38
-2.51
-2.86
-3.52
-4.50
-5.96
-8.11
-11.24
-15.48
-20.70
-26.55
-32.50
-38.06
-42.82
-46.53
-48.92
-49.67
-48.37
-44.67
-38.42
-29.86
-19.66
-8.76
1.86
11.41
19.39
25.63
30.13
33.03
34.48
34.65
33.70
31.93
29.70
27.41
25.40
23.82
22.65
21.74
20.89
20.01
19.06
18.07
17.06
15.99
14.68
12.93
10.56
7.36
3.19
-2.00
-8.21
-15.18
-22.41
-29.10
-34.26
-36.94
-36.53
-32.95
-26.64
-18.44
-9.25
0.22
9.51
18.38
26.56
33.69
39.37
43.21
45.06
45.00
43.37
40.63
37.26
33.71
30.33
27.39
25.06
23.31
22.03
21.01
20.01
18.82
17.30
15.34
12.92
10.02
6.68
2.88
-1.47
-6.49
-12.24
-18.60
-25.23
-31.53
-36.73
-40.07
-40.95
-39.05
-34.41
-27.36
-18.48
-8.46
1.96
12.09
21.36
29.33
35.74
40.50
43.61
45.20
45.38
44.28
42.09
39.06
35.55
31.94
28.64
25.88
23.73
22.03
20.52
18.93
17.06
14.86
12.34
9.57
6.60
3.40
-0.13
-4.15
-8.82
-14.28
-20.51
-27.27
-33.95
-39.66
-43.38
-44.24
-41.78
-36.12
-27.90
-18.03
-7.44
3.09
12.98
21.82
29.24
35.02
38.97
41.09
41.45
40.17
37.42
33.44
28.65
23.59
18.93
15.15
12.48
10.75
9.51
8.28
6.75
4.87
2.77
0.60
-1.62
-4.05
-6.94
-10.54
-14.98
-20.27
-26.25
-32.61
-38.83
-44.14
-47.56
-48.18
-45.40
-39.16
-29.98
-18.83
-6.79
5.15
16.24
25.98
34.03
40.13
44.19
46.21
46.38
45.01
42.50
39.31
35.84
32.48
29.45
26.89
24.75
22.91
21.23
19.61
17.98
16.29
14.42
12.20
9.44
6.03
1.94
-2.79
-8.08
-13.99
-20.49
-27.41
-34.22
-40.03
-43.72
-44.32
-41.35
-35.03
-26.20
-15.95
-5.31
5.04
14.75
23.54
31.11
37.01
40.83
42.41
41.95
39.98
37.11
33.85
30.41
26.83
23.12
19.40
15.93
12.96
10.63
8.88
7.48
6.10
4.45
2.33
-0.36
-3.67
-7.63
-12.29
-17.64
-23.62
-29.96
-36.16
-41.45
-44.97
-45.91
-43.76
-38.46
-30.40
-20.33
-9.19
2.14
12.92
22.60
30.80
37.26
41.80
44.34
44.96
43.89
41.48
38.08
34.06
29.74
25.46
21.59
18.49
16.39
15.24
14.70
14.21
13.28
11.64
9.33
6.58
3.61
0.44
-3.14
-7.47
-12.83
-19.31
-26.64
-34.20
-41.03
-45.97
-47.93
-46.17
-40.58
-31.78
-20.90
-9.25
2.04
12.27
21.17
28.65
34.62
38.85
41.11
41.31
39.63
36.49
32.43
27.97
23.53
19.44
16.00
13.39
11.63
10.50
9.62
8.59
7.15
5.26
3.03
0.54
-2.33
-5.89
-10.48
-16.26
-23.06
-30.35
-37.38
-43.28
-47.26
-48.67
-47.13
-42.59
-35.30
-25.89
-15.20
-4.15
6.42
15.91
23.96
30.38
35.10
38.05
39.19
38.57
36.42
33.11
29.17
25.20
21.63
18.71
16.41
14.52
12.76
10.95
9.05
7.14
5.30
3.50
1.56
-0.80
-3.86
-7.81
-12.65
-18.29
-24.41
-30.56
-36.12
-40.24
-42.09
-41.03
-36.88
-29.95
-21.02
-11.06
-0.94
8.69
17.40
24.84
30.64
34.49
36.17
35.74
33.56
30.17
26.15
21.96
17.94
14.31
11.19
8.61
6.49
4.70
3.07
1.51
0.02
-1.39
-2.79
-4.35
-6.39
-9.29
-13.35
-18.69
-25.25
-32.68
-40.35
-47.35
-52.64
-55.22
-54.41
-50.05
-42.58
-32.85
-21.91
-10.77
-0.26
9.11
17.03
23.40
28.22
31.54
33.36
33.63
32.36
29.67
25.90
21.56
17.28
13.59
10.85
9.14
8.32
8.08
8.03
7.82
7.10
5.63
3.25
-0.06
-4.22
-9.06
-14.43
-20.16
-26.06
-31.76
-36.69
-40.09
-41.20
-39.50
-34.90
-27.75
-18.70
-8.56
1.95
12.17
21.51
29.42
35.32
38.80
39.67
38.12
34.62
29.89
24.76
19.95
15.99
13.10
11.18
9.90
8.87
7.81
6.59
5.31
4.07
2.90
1.61
-0.16
-2.76
-6.45
-11.26
-17.01
-23.33
-29.73
-35.58
-40.12
-42.53
-42.13
-38.57
-32.01
-23.14
-12.96
-2.54
7.27
15.91
23.09
28.68
32.59
34.77
35.22
34.09
31.73
28.59
25.12
21.65
18.30
15.03
11.67
8.13
4.40
0.68
-2.78
-5.78
-8.30
-10.54
-12.83
-15.51
-18.82
-22.88
-27.67
-33.01
-38.52
-43.55
-47.27
-48.79
-47.47
-43.15
-36.20
-27.41
-17.70
-7.87
1.47
9.98
17.34
23.31
27.66
30.27
31.20
30.56
28.58
25.51
21.61
17.18
12.58
8.21
4.45
1.54
-0.45
-1.69
-2.46
-3.07
-3.77
-4.67
-5.78
-7.14
-8.92
-11.39
-14.88
-19.51
-25.11
-31.10
-36.57
-40.57
-42.27
-41.21
-37.35
-31.01
-22.83
-13.57
-4.00
5.23
13.60
20.73
26.39
30.47
32.90
33.75
33.12
31.27
28.50
25.16
21.61
18.11
14.88
12.03
9.66
7.76
6.34
5.34
4.65
4.09
3.41
2.24
0.26
-2.82
-7.07
-12.37
