1720805303.00
64.000000
-0.00
-0.00
-0.00
-0.00
-0.00
-0.00
-0.00
-0.00
-0.00
-0.00
0.00
0.01
0.01
-0.00
-0.03
-0.05
-0.05
0.00
0.13
0.36
0.66
1.01
1.37
1.72
2.06
2.40
2.79
3.24
3.80
4.42
5.06
5.66
6.20
6.68
7.15
7.68
8.31
9.14
10.09
11.04
11.88
12.56
13.14
13.76
14.65
15.96
17.91
20.32
22.90
25.38
27.58
29.57
31.68
34.32
37.81
42.54
48.15
54.10
59.83
64.97
69.58
74.14
79.34
85.71
93.76
103.00
112.62
121.73
129.77
136.75
143.30
150.75
157.77
166.64
177.95
191.79
206.97
220.57
228.25
225.36
208.53
176.87
132.76
80.05
23.07
-34.94
-92.44
-149.16
-205.23
-260.37
-313.74
-363.87
-409.83
-450.91
-486.50
-515.74
-537.23
-549.22
-549.96
-538.37
-514.21
-478.67
-433.88
-382.45
-327.02
-269.84
-212.63
-156.66
-102.95
-52.37
-5.90
35.58
71.43
101.36
125.50
144.38
158.69
169.14
176.37
180.77
182.62
182.13
179.56
175.23
169.53
162.89
155.67
148.17
140.53
132.84
125.13
117.40
109.71
102.11
94.67
87.48
80.59
74.02
67.78
61.85
56.17
50.71
45.45
40.40
35.64
31.24
27.26
23.70
20.47
17.41
14.37
11.28
8.19
5.26
2.73
0.74
-0.69
-1.79
-2.86
-4.23
-6.03
-8.18
-10.39
-12.24
-13.46
-14.03
-14.22
-14.50
-15.31
-16.89
-19.12
-21.58
-23.79
-25.38
-26.19
-26.34
-26.15
-26.00
-26.45
-28.26
-32.11
-37.90
-44.14
-47.98
-45.85
-34.96
-14.69
12.83
43.39
72.38
96.50
114.34
125.85
131.20
129.95
121.25
105.07
83.11
58.74
35.72
16.53
1.51
-10.64
-21.45
-31.38
-39.51
-44.29
-44.94
-42.10
-37.51
-32.78
-28.47
-24.05
-18.70
-12.26
-5.63
-0.27
2.64
3.04
1.93
0.70
0.38
1.23
2.73
4.08
4.73
4.60
4.03
3.61
3.86
5.17
7.73
11.42
15.63
19.35
21.45
21.31
19.19
16.37
14.48
14.71
16.93
19.72
21.14
19.93
16.24
11.48
7.53
5.25
4.19
2.87
-0.14
-5.16
-11.04
-15.80
-17.82
-16.74
-13.69
-10.58
-9.09
-9.83
-12.21
-14.93
-16.82
-17.39
-16.87
-15.91
-15.01
-14.01
-12.25
-9.14
-4.70
0.13
3.62
4.08
0.68
-5.81
-13.21
-18.86
-20.78
-18.72
-14.11
-9.32
-6.37
-5.95
-7.25
-8.72
-8.91
-7.29
-4.37
-1.06
1.88
4.48
7.39
11.45
16.96
23.30
29.14
32.95
33.75
31.53
27.09
21.64
16.08
10.85
5.93
1.06
-4.25
-10.50
-18.06
-26.88
-35.61
-42.47
-45.67
-44.23
-38.68
-31.00
-23.94
-19.83
-19.61
-22.53
-26.84
-30.73
-33.02
-33.04
-30.14
-23.65
-13.33
-0.26
12.96
22.85
26.78
24.49
18.37
12.31
9.63
11.43
16.34
21.83
25.78
27.60
27.98
27.76
27.06
25.14
21.36
15.94
10.14
5.62
3.62
4.42
7.25
10.86
14.00
15.74
15.55
13.32
9.48
4.93
0.89
-1.53
-1.77
0.02
3.01
6.16
8.64
10.01
10.16
9.09
6.88
3.70
-0.10
-3.89
-6.96
-8.70
-8.78
-7.34
-4.88
-2.04
0.78
3.50
6.38
9.65
13.19
16.57
19.07
20.03
19.10
16.50
12.92
9.35
6.77
5.94
7.20
10.50
15.21
20.16
23.77
24.44
21.07
13.55
2.96
-8.60
-18.70
-25.27
-27.41
-25.73
-22.09
-18.78
-17.45
-18.47
-20.80
-22.76
-23.00
-21.23
-18.50
-16.61
-17.19
-20.82
-26.76
-33.10
-37.59
-38.33
-34.11
-24.60
-10.34
6.92
24.10
37.09
41.96
36.58
21.90
1.95
-17.59
-31.68
-37.87
-36.83
-31.29
-24.23
-17.38
-10.96
-4.41
2.50
9.33
15.31
19.99
23.68
27.06
30.60
34.02
36.27
36.02
32.35
25.27
15.72
5.30
-4.30
-11.87
-16.92
-19.74
-21.10
-21.72
-21.97
-21.71
-20.50
-17.98
-14.34
-10.32
-7.15
-5.99
-7.41
-10.93
-14.95
-17.04
-14.61
-5.93
9.02
27.83
45.70
56.58
55.36
40.39
14.88
-13.67
-36.24
-45.95
-40.96
-24.94
-5.06
11.48
20.56
22.36
20.19
18.00
18.20
20.62
23.08
22.56
16.22
2.24
-19.53
-46.86
-74.89
-96.65
-104.97
-95.11
-67.12
-26.69
16.36
51.44
70.95
72.75
60.09
39.40
17.19
-2.12
-16.60
-25.96
-30.29
-29.41
-23.13
-12.05
1.75
15.01
24.18
26.74
22.00
11.01
-4.11
-21.04
-37.61
-51.78
-61.36
-63.94
-57.22
-39.94
-12.85
20.56
54.15
80.69
94.11
91.75
75.45
50.81
24.83
3.47
-10.17
-16.04
-15.93
-12.07
-6.08
0.94
7.98
13.74
17.02
17.26
14.81
10.67
5.62
-0.35
-7.98
-18.07
-30.60
-44.37
-57.01
-65.73
-67.83
-61.37
-45.58
-21.46
7.79
37.01
60.19
72.32
71.44
59.45
41.34
23.20
9.84
3.30
2.94
6.56
11.71
16.70
20.57
22.70
22.57
19.71
14.30
7.67
2.11
-0.04
2.57
9.22
17.15
22.61
22.41
15.37
2.83
-12.04
-25.55
-35.03
-39.69
-40.66
-40.36
-41.52
-46.23
-55.07
-66.99
-79.31
-88.42
-90.97
-84.93
-70.35
-49.65
-26.89
-6.63
7.45
13.79
13.31
9.02
4.88
4.16
8.23
16.30
26.13
35.14
41.60
45.02
45.72
44.31
41.31
37.12
32.29
27.65
24.21
22.89
24.14
27.67
32.47
36.86
38.95
37.25
31.35
22.26
12.09
3.20
-3.01
-6.63
-9.02
-11.87
-16.07
-21.30
-26.36
-30.14
-32.33
-33.62
-35.10
-37.52
-40.79
-44.01
-45.93
-45.42
-41.79
-34.91
-25.29
-13.89
-2.05
8.84
17.74
24.22
28.43
30.76
31.55
30.86
28.78
25.61
21.95
18.48
15.51
12.79
9.73
5.98
1.90
-1.36
-2.42
-0.33
4.85
12.09
19.89
26.81
31.74
33.92
32.91
28.57
21.35
12.37
3.19
-4.62
-10.03
-12.84
-13.63
-13.22
-12.31
-11.20
-9.94
-8.65
-7.67
-7.29
-7.49
-7.75
-7.25
-5.32
-1.98
2.04
5.58
7.55
7.49
5.70
2.95
0.03
-2.73
-5.47
-8.43
-11.51
-14.11
-15.27
-14.23
-10.87
-5.78
-0.09
5.04
8.90
11.24
12.17
11.62
9.32
4.92
-1.53
-9.33
-17.20
-23.74
-27.97
-29.55
-28.66
-25.80
-21.63
-16.81
-12.05
-7.98
-4.84
-2.39
0.03
3.05
6.72
10.16
11.90
10.64
6.22
0.07
-5.12
-6.54
-2.48
6.84
19.23
31.22
39.31
40.95
35.39
23.71
8.70
-5.67
-14.94
-15.35
-5.30
13.32
34.78
50.91
54.19
41.15
14.38
-18.17
-46.43
-62.53
-63.90
-53.70
-38.65
-25.70
-19.04
-19.01
-22.95
-26.74
-26.40
-19.04
-3.32
20.15
48.17
74.86
92.74
95.13
79.07
47.22
7.43
-29.93
-55.50
-63.82
-54.33
-30.67
0.84
32.80
57.88
70.11
66.35
47.58
19.06
-11.18
-35.33
-48.66
-50.77
-44.80
-35.27
-25.86
-18.56
-13.77
-11.10
-9.88
-9.37
-8.86
-7.91
-6.63
-5.72
-6.22
-8.88
-13.66
-19.60
-25.27
-29.44
-31.59
-31.98
-31.39
-30.70
-30.62
-31.66
-33.97
-37.09
-39.63
-39.17
-33.09
-20.12
-2.00
16.23
27.74
27.12
13.38
-8.95
-31.64
-46.49
-48.90
-39.33
-22.15
-2.85
14.42
27.76
36.90
42.07
43.31
40.63
34.60
26.63
18.72
12.79
10.19
11.58
17.07
26.35
38.67
52.69
66.52
78.04
85.48
87.95
85.34
78.01
66.10
49.36
27.65
2.03
-24.35
-46.26
-58.04
-56.15
-41.34
-18.90
3.26
17.98
21.68
14.97
1.29
-15.48
-32.57
-47.84
-58.64
-60.99
-50.51
-25.14
12.09
52.38
83.62
95.21
82.90
50.80
9.72
-27.32
-50.03
-53.91
-40.78
-17.05
8.84
28.80
36.82
30.23
10.16
-18.67
-49.19
-73.83
-86.60
-84.36
-66.97
-36.91
1.35
41.75
76.92
99.47
104.04
89.35
59.38
22.66
-10.24
-30.33
-33.13
-20.34
0.85
20.34
28.91
21.52
-0.96
-32.70
-65.62
-92.24
-107.53
-109.11
-96.61
-71.63
-38.17
-3.17
24.73
38.07
34.01
16.13
-6.84
-25.09
-32.54
-29.30
-20.96
-14.84
-15.65
-23.01
-31.92
-35.90
-30.29
-14.23
9.77
37.86
66.82
94.59
119.30
137.98
146.37
140.57
119.49
86.68
49.63
16.71
-6.49
-19.31
-25.38
-29.91
-36.51
-45.79
-55.81
-64.01
-68.74
-70.08
-69.36
-68.29
-68.05
-68.58
-68.49
-65.23
-55.95
-38.59
-12.92
18.74
51.59
79.38
96.21
98.48
86.09
62.59
34.08
7.58
-10.70
-16.56
-8.73
10.62
35.99
59.61
73.58
72.55
55.69
27.10
-5.79
-34.75
-53.15
-57.59
-48.18
-28.24
-3.43
19.27
33.16
33.88
21.16
-0.55
-23.31
-38.60
-40.90
-29.99
-10.97
8.22
20.15
20.72
10.20
-7.70
-27.61
-44.33
-53.86
-53.95
-44.34
-26.98
-5.89
13.72
27.15
31.93
28.58
20.04
9.92
1.00
-5.05
-7.08
-3.78
5.75
20.67
37.43
50.39
54.16
46.30
28.54
5.75
-16.49
-34.10
-45.08
-49.02
-45.96
-36.49
-22.32
-6.62
6.59
14.39
16.70
16.44
17.59
22.65
30.93
38.95
42.54
39.09
28.76
14.00
-1.96
-16.59
-28.70
-38.27
-45.73
-51.29
-54.46
-54.25
-49.52
-39.63
-25.15
-8.21
7.70
18.80
22.55
18.79
9.91
-0.25
-8.26
-12.50
-13.63
-13.74
-14.83
-17.49
-20.57
-21.96
-19.86
-13.91
-5.23
4.28
13.01
20.46
27.09
33.57
39.94
45.30
48.13
47.25
42.45
34.73
25.87
17.75
11.67
8.02
6.46
6.09
5.91
4.92
2.30
-2.42
-9.18
-17.33
-25.78
-33.37
-39.31
-43.30
-45.26
-45.07
-42.43
-37.12
-29.38
-20.33
-11.68
-5.31
-2.69
-4.68
-11.58
-23.40
-39.61
-58.59
-77.21
-91.12
-96.05
-89.59
-72.62
-49.24
-25.28
-5.78
7.31
15.77
23.84
35.57
52.05
70.11
83.33
84.81
70.43
40.81
1.25
-40.28
-75.77
-99.14
-106.70
-96.99
-70.46
-29.78
19.81
70.86
115.26
146.44
161.11
159.64
145.20
122.22
95.43
69.32
47.73
33.11
25.42
21.66
16.91
6.73
-10.41
-31.77
-51.45
-63.19
-63.32
-52.37
-34.55
-15.71
-1.13
5.97
4.82
-3.44
-16.46
-31.47
-45.88
-57.68
-65.63
-69.21
-68.55
-64.34
-57.85
-50.70
-44.45
-40.03
-37.25
-34.95
-31.63
-26.35
-19.39
-12.27
-6.98
-4.91
-6.24
-9.84
-14.00
-17.24
-18.89
-19.13
-18.58
-17.72
-16.66
-15.27
-13.48
-11.62
-10.34
-10.25
-11.35
-12.81
-13.11
-10.75
-5.03
3.46
13.02
21.44
26.85
28.40
26.38
21.95
16.52
11.33
7.12
4.18
2.56
2.31
3.55
6.38
10.81
16.69
23.77
31.85
41.18
52.64
67.47
86.54
109.31
133.46
155.54
172.25
181.91
185.03
183.48
179.01
171.96
161.05
144.46
121.36
92.96
62.22
32.80
7.85
-10.50
-20.99
-22.85
-15.92
-1.33
18.29
38.99
56.70
68.66
74.43
75.69
75.03
74.28
73.40
71.08
66.35
60.01
54.89
54.58
61.17
73.64
87.99
98.85
102.19
97.07
85.88
72.73
61.32
53.54
49.01
46.03
42.63
37.25
28.59
15.74
-1.51
-22.15
-44.02
-64.69
-82.96
-99.60
-116.51
-134.83
-153.08
-167.17
-172.47
-166.58
-151.00
-130.78
-111.92
-98.35
-90.49
-85.81
-81.10
-74.72
-67.30
-60.74
-56.58
-54.82
-54.20
-52.82
-49.22
-42.92
-34.36
-24.80
-15.92
-9.49
-6.68
-7.71
-11.88
-17.95
-24.50
-30.25
-34.25
-36.14
-36.28
-35.43
-34.53
-34.42
-35.99
-39.99
-46.69
-55.59
-65.43
-74.93
-82.97
-88.99
-92.60
-93.93
-93.15
-90.36
-85.93
-80.86
-77.59
-78.48
-84.43
-93.29
-101.97
-107.59
-108.96
-106.97
-103.98
-103.62
-107.63
-114.23
-117.38
-112.62
-97.92
-74.32
-44.35
-11.16
20.01
44.88
61.64
73.69
83.36
92.67
102.48
113.28
124.15
129.83
125.11
108.03
84.17
57.91
32.23
7.22
-18.25
-28.16
-11.82
30.27
66.61
90.54
101.73
107.32
106.63
98.49
83.96
64.06
41.80
21.69
11.42
13.26
26.09
45.99
68.80
89.82
102.10
100.28
83.68
59.92
37.48
23.97
22.75
32.93
49.49
64.25
70.18
63.74
46.33
19.68
-13.87
-51.18
-87.02
-115.20
-131.56
-134.98
-127.78
-113.59
-96.80
-80.40
-66.11
-55.26
-50.58
-56.02
-73.61
-100.31
-126.91
-141.66
-135.77
-108.26
-67.06
-25.94
1.24
5.75
-13.34
-49.88
-93.32
-131.95
-156.20
-161.00
-147.18
-120.93
-91.07
-64.72
-43.78
-24.23
0.42
34.10
74.44
112.56
137.01
139.96
121.37
88.90
53.59
24.21
3.11
-14.08
-34.39
-62.31
-96.24
-128.73
-150.08
-153.44
-138.14
-110.43
-80.42
-57.73
-47.41
-47.94
-52.82
-54.01
-45.53
-25.37
4.77
41.54
81.67
122.34
160.89
193.84
217.10
226.88
221.33
201.42
171.16
135.86
100.05
67.40
40.51
20.80
7.80
-0.82
-8.23
-16.26
-24.79
-32.96
-40.13
-47.59
-58.10
-74.55
-96.94
-120.99
-138.99
-144.04
-134.61
-114.21
-89.18
-64.40
-41.30
-18.42
3.54
23.25
44.10
66.09
87.81
104.56
114.33
117.34
115.68
112.67
112.07
116.34
124.82
135.35
145.47
153.81
159.85
163.60
165.29
165.43
164.28
160.84
153.69
141.07
121.81
95.71
64.42
31.56
1.62
-22.32
-40.60
-56.08
-72.24
-90.52
-109.15
-123.88
-130.03
-124.80
-108.80
-86.06
-62.24
-42.70
-30.85
-27.31
-30.23
-36.15
-41.28
-42.64
-38.75
-29.49
-15.71
1.22
19.53
36.90
50.64
58.11
57.51
48.70
33.40
14.82
-3.46
-18.67
-29.57
-36.40
-40.33
-42.73
-44.41
-45.53
-45.88
-45.39
-44.65
-45.01
-48.20
-55.66
-67.81
-83.65
-100.99
-117.16
-129.93
-138.05
-141.25
-139.87
-134.46
-125.80
-115.22
-104.73
-96.68
-92.58
-91.85
-91.26
-85.79
-70.62
-43.65
-6.72
34.71
73.82
104.92
125.24
134.95
135.97
130.28
119.13
103.31
84.11
63.97
46.10
33.05
25.22
20.24
13.97
2.76
-14.20
-33.85
-50.09
-56.66
-50.20
-31.98
-7.22
17.92
39.42
57.03
73.27
90.65
109.00
124.59
131.63
124.98
102.67
66.95
23.60
-19.81
-55.52
-76.79
-78.81
-59.57
-20.86
31.18
86.85
134.78
164.51
168.85
144.99
95.04
25.76
-52.32
-126.09
-181.98
-208.99
-201.97
-163.77
-104.98
-40.93
13.40
48.30
61.99
59.72
50.24
41.57
38.16
40.37
46.00
52.23
56.88
58.72
57.04
51.42
42.22
31.27
21.73
16.76
17.62
21.99
24.44
18.47
0.07
-29.38
-62.50
-87.97
-95.04
-78.41
-41.35
4.89
45.51
68.26
68.48
50.46
24.71
2.68
-8.49
-8.43
-2.39
2.64
2.11
-3.80
-11.09
-14.95
-13.08
-7.21
-1.98
-2.03
-9.09
-20.82
-31.79
-36.36
-31.19
-16.70
3.61
24.79
42.31
53.31
57.11
55.22
50.72
47.02
46.24
47.97
49.08
45.02
32.19
10.08
-17.71
-44.22
-61.40
-62.87
-46.47
-15.60
21.23
52.82
69.23
65.81
45.33
16.71
-9.20
-24.73
-28.60
-25.41
-22.19
-24.18
-32.35
-43.85
-54.19
-59.54
-57.69
-47.87
-30.32
-6.40
20.65
45.68
62.75
67.50
59.33
42.15
23.22
10.28
8.27
17.22
32.44
46.62
53.25
49.32
35.86
16.65
-4.04
-23.04
-38.51
-49.04
-53.21
-49.83
-39.29
-24.50
-10.53
-2.75
-4.03
-13.09
-24.79
-32.81
-32.69
-23.56
-7.92
10.36
28.14
44.26
59.32
74.52
90.23
105.03
115.86
119.21
113.00
98.06
78.30
59.23
45.49
38.81
37.26
36.33
31.06
18.08
-3.39
-31.73
-63.86
-95.75
-122.53
-138.63
-138.95
-121.45
-89.26
-50.76
-16.61
5.03
12.36
10.28
6.96
8.67
16.30
25.55
30.39
27.37
17.76
6.52
-1.06
-2.46
1.02
5.69
8.12
7.07
3.78
0.88
0.82
4.58
11.23
18.29
22.79
22.54
16.92
7.35
-3.47
-12.82
-19.46
-24.06
-28.45
-33.96
-40.09
-44.66
-45.29
-41.43
-35.19
-30.53
-30.89
-37.04
-46.42
-54.49
-57.07
-52.45
-41.85
-28.48
-15.74
-5.89
0.46
4.05
6.21
8.14
10.56
13.37
15.77
16.90
16.41
14.85
13.60
14.28
18.01
24.84
33.67
42.57
49.36
52.34
50.78
44.97
35.93
25.06
14.13
5.39
1.46
4.58
15.23
31.16
47.30
57.51
57.18
45.44
25.71
4.12
-13.49
-24.05
-28.05
-28.23
-27.50
-27.22
-26.97
-25.62
-22.62
-18.65
-15.27
-13.82
-14.56
-16.41
-17.73
-17.53
-16.51
-16.73
-20.50
-28.62
-39.19
-47.86
-49.71
-41.78
-24.88
-3.54
16.00
28.65
32.56
29.13
21.44
12.35
3.59
-3.91
-9.09
-10.32
-6.14
3.49
16.42
28.87
37.03
38.77
34.39
26.11
16.80
8.86
3.88
2.61
4.76
8.88
12.19
11.37
3.82
-10.85
-30.39
-50.59
-66.93
-76.17
-77.30
-71.50
-61.42
-50.18
-40.47
-33.94
-30.70
-29.23
-26.80
-20.47
-8.37
9.16
29.18
47.07
58.27
60.40
54.49
44.86
37.14
35.78
41.79
52.14
61.21
63.42
56.04
40.61
22.23
7.15
-0.24
0.70
6.76
12.55
13.00
5.24
-10.65
-31.99
-54.46
-73.02
-82.66
-79.42
-61.89
-32.56
1.78
31.65
48.41
47.89
32.07
7.63
-17.38
-36.84
-47.72
-49.26
-41.53
-25.03
-1.63
24.23
45.74
55.74
49.90
28.72
-2.69
-36.68
-65.75
-84.24
-88.66
-77.85
-53.44
-20.44
13.20
38.76
50.00
45.90
30.88
12.34
-2.94
-11.79
-14.99
-15.42
-15.35
-14.78
-11.67
-3.82
9.11
24.79
39.08
47.94
49.32
43.73
33.50
21.12
7.92
-6.13
-21.50
-37.72
-52.46
-61.76
-61.33
-48.30
-22.81
11.37
47.38
77.12
93.68
93.66
78.31
53.05
25.39
2.16
-12.85
-19.55
-20.63
-19.63
-19.14
-20.10
-22.37
-25.61
-29.75
-34.56
-38.79
-39.76
-34.05
-19.32
3.91
31.57
57.26
74.79
80.65
75.05
60.82
41.41
19.10
-4.88
-28.82
-48.90
-59.10
-53.50
-30.05
6.60
45.39
72.65
77.80
57.90
18.72
-28.02
-69.31
-95.28
-101.77
-90.53
-67.74
-41.60
-19.77
-7.18
-4.78
-9.62
-16.33
-19.77
-17.47
-10.58
-2.90
1.66
1.40
-2.10
-4.84
-2.17
9.19
29.97
57.78
87.36
111.40
122.22
114.17
85.89
41.56
-9.62
-55.83
-86.15
-93.97
-79.12
-47.89
-10.84
20.77
38.84
40.85
30.01
12.96
-3.75
-16.72
-26.90
-38.13
-54.04
-74.98
-96.83
-112.13
-113.14
-95.09
-58.12
-7.60
47.27
95.81
128.49
139.46
127.88
97.88
57.02
13.86
-24.30
-52.69
-69.20
-73.73
-67.58
-53.14
-33.93
-14.33
1.35
10.08
11.30
6.95
0.64
-3.91
-4.44
-1.00
4.19
7.89
7.22
1.14
-8.96
-19.69
-27.14
-28.85
-24.91
-17.84
-11.05
-6.78
-4.91
-3.22
1.00
9.01
19.57
29.42
34.96
34.16
27.39
17.07
6.06
-3.81
-12.34
-20.55
-29.24
-38.06
-45.15
-47.94
-44.47
-34.50
-20.01
-4.45
8.35
15.60
16.22
11.00
2.11
-7.64
-15.42
-18.85
-16.14
-6.12
11.48
35.56
63.13
89.19
107.65
113.14
103.17
79.55
48.16
16.97
-6.87
-19.49
-21.26
-15.82
-7.91
-1.42
1.60
0.49
-4.93
-15.01
-29.93
-48.59
-67.50
-80.92
-82.68
-68.97
-40.88
-4.79
29.64
53.48
62.05
56.35
41.47
23.22
5.16
-12.11
-29.06
-44.50
-54.30
-53.02
-37.34
-9.26
23.59
51.06
65.13
63.64
50.69
33.92
20.32
13.21
11.70
12.54
12.61
10.45
5.98
-0.80
-10.72
-25.05
-44.04
-65.25
-83.36
-91.90
-86.12
-65.56
-34.65
-1.02
27.65
46.34
53.97
52.75
46.56
39.57
35.47
36.87
44.64
57.01
69.42
75.69
70.54
52.24
23.85
-7.68
-34.34
-50.17
-53.17
-45.25
-30.74
-14.64
-1.23
6.23
5.70
-3.35
-19.36
-38.27
-53.82
-59.38
-50.39
-26.89
5.66
37.80
59.68
65.18
54.27
32.57
8.17
-12.33
-26.41
-35.58
-43.10
-51.28
-59.67
-65.53
-65.60
-58.20
-44.37
-27.51
-11.95
-1.17
3.62
3.84
2.74
3.67
8.41
16.28
24.76
30.90
32.96
30.80
25.24
16.90
5.59
-9.10
-26.04
-41.63
-50.22
-46.55
-28.85
-0.65
30.08
54.14
64.98
60.95
45.26
23.81
2.76
-12.98
-20.05
-16.57
-2.40
20.07
45.69
67.41
78.78
76.42
61.41
38.46
13.84
-7.08
-21.18
-27.91
-28.64
-25.86
-22.47
-21.14
-23.31
-28.65
-34.95
-39.07
-38.40
-32.08
-21.37
-8.93
2.28
9.97
12.69
9.74
0.95
-13.16
-31.13
-50.58
-68.40
-81.47
-87.35
-84.96
-74.70
-58.07
-36.87
-12.37
15.02
45.44
78.48
112.15
142.56
164.63
173.69
167.01
144.64
109.07
64.29
14.61
-35.98
-83.76
-124.96
-155.63
-172.11
-171.71
-153.46
-118.70
-71.23
-17.23
35.37
78.20
104.35
110.31
97.29
70.95
39.52
11.00
-9.40
-20.49
-24.53
-25.33
-26.09
-28.12
-30.85
-32.98
-33.56
-32.74
-31.51
-31.06
-31.86
-33.16
-33.05
-29.08
-19.27
-3.29
16.77
36.56
50.77
55.31
49.25
35.66
20.60
10.42
8.88
15.25
24.80
31.22
29.61
18.50
-0.02
-21.75
-42.38
-58.81
-69.32
-73.03
-69.60
-59.61
-45.47
-31.67
-23.67
-25.68
-38.08
-56.40
-72.54
-78.00
-67.44
-40.87
-3.22
37.97
75.64
105.31
125.49
136.66
139.80
135.69
125.16
109.82
92.47
76.50
64.69
57.98
55.03
53.06
49.23
42.01
31.54
19.09
6.05
-6.74
-18.93
-30.28
-40.12
-47.58
-52.14
-54.04
-54.17
-53.57
-52.66
-51.10
-48.08
-42.79
-34.88
-24.54
-12.54
-0.31
9.97
15.78
15.08
7.29
-6.05
-21.62
-35.40
-44.12
-46.20
-41.81
-32.34
-19.59
-5.39
8.59
20.74
29.68
34.72
35.98
34.46
31.63
28.90
27.17
26.67
26.89
26.65
24.45
18.99
9.97
-1.46
-12.87
-21.44
-25.17
-23.90
-19.38
-14.49
-11.85
-12.69
-16.52
-21.64
-26.24
-29.23
-30.64
-31.22
-31.80
-32.73
-33.63
-33.63
-31.82
-27.70
-21.50
-14.09
-6.79
-0.83
3.04
4.72
4.71
3.76
2.54
1.36
0.32
-0.55
-1.01
-0.63
1.03
4.08
8.02
11.79
14.14
14.10
11.44
6.90
1.81
-2.39
-4.77
-5.32
-4.90
-4.78
-6.01
-8.90
-12.87
-16.90
-20.03
-21.99
-23.21
-24.35
-25.82
-27.30
-27.98
-26.99
-24.00
-19.37
-13.91
-8.51
-3.72
0.31
3.62
6.33
8.51
10.31
11.97
13.71
15.46
16.90
17.53
17.00
15.52
13.88
13.30
14.91
19.25
25.92
33.54
40.09
43.52
42.47
36.84
27.84
17.54
8.05
0.67
-4.58
-8.83
-13.78
-20.80
-30.07
-40.12
-47.92
-49.62
-41.69
-22.13
8.45
46.33
84.82
115.68
131.29
127.29
104.38
68.46
28.78
-5.26
-27.31
-35.63
-32.71
-23.21
-11.62
-0.81
8.00
14.37
17.76
17.46
13.22
5.90
-2.31
-8.67
-10.98
-8.66
-3.00
3.32
7.49
7.72
3.97
-2.18
-8.43
-12.87
-14.82
-15.01
-15.06
-16.59
-20.41
-26.23
-32.80
-38.51
-42.22
-43.76
-43.94
-44.19
-45.83
-49.34
-54.22
-59.13
-62.56
-63.48
-61.68
-57.87
-53.31
-49.41
-47.17
-46.79
-47.16
-45.92
-39.90
-26.15
-3.08
28.62
65.60
102.40
132.56
150.27
152.05
137.86
111.28
78.56
46.83
22.01
7.30
2.76
6.05
13.82
22.98
31.40
37.76
41.25
41.24
37.50
30.48
21.49
12.37
4.95
0.30
-1.85
-2.98
-5.12
-10.01
-18.20
-28.89
-40.35
-50.72
-58.78
-64.30
-67.74
-69.67
-70.36
-69.72
-67.49
-63.62
-58.40
-52.34
-45.95
-39.60
-33.60
-28.43
-24.78
-23.36
-24.67
-28.57
-34.20
-39.95
-43.64
-43.10
-36.83
-24.84
-8.98
7.36
20.67
28.91
32.67
35.12
40.76
53.50
74.84
102.85
132.41
156.42
167.94
162.40
139.34
102.91
60.81
21.82
-7.03
-22.56
-25.73
-20.34
-10.97
-1.27
6.57
11.44
12.72
10.12
3.94
-4.58
-13.25
-19.62
-21.84
-19.49
-13.82
-7.34
-2.92
-2.69
-7.26
-15.51
-25.14
-33.62
-39.26
-41.71
-41.85
-41.05
-40.28
-39.66
-38.47
-35.77
-31.09
-24.75
-17.73
-11.20
-5.90
-1.93
1.13
3.83
6.39
8.58
9.83
9.58
7.56
3.95
-0.68
-5.67
-10.39
-14.42
-17.55
-19.70
-20.87
-21.08
-20.36
-18.83
-16.62
-13.92
-11.01
-8.30
-6.24
-5.22
-5.31
-6.18
-7.11
-7.30
-6.22
-3.92
-1.04
1.46
2.71
2.30
0.36
-2.56
-5.81
-8.75
-10.88
-11.74
-10.95
-8.22
-3.55
2.68
9.71
16.54
22.24
26.23
28.43
29.19
29.07
28.56
27.80
26.56
24.38
20.83
15.78
9.52
2.74
-3.71
-9.02
-12.62
-14.21
-13.78
-11.50
-7.83
-3.47
0.59
3.25
3.57
1.12
-3.73
-9.80
-15.46
-19.05
-19.48
-16.45
-10.56
-3.01
4.81
11.72
17.14
21.06
23.86
25.90
27.23
27.51
26.18
22.84
17.52
10.68
2.97
-5.05
-13.08
-21.01
-28.67
-35.62
-41.13
-44.37
-44.72
-42.12
-37.34
-31.94
-28.07
-27.79
-32.33
-41.35
-52.68
-62.68
-67.29
-63.28
-49.17
-25.58
4.96
38.37
69.66
93.70
106.41
106.06
94.06
74.80
54.10
37.06
26.29
21.33
19.65
18.38
15.74
11.56
6.78
2.56
-0.33
-1.61
-1.34
0.21
2.49
4.66
5.77
5.09
2.43
-1.69
-6.31
-10.46
-13.56
-15.62
-17.29
-19.54
-23.41
-29.48
-37.37
-45.65
-51.95
-53.50
-47.88
-33.75
-11.66
15.44
42.49
63.51
73.50
70.53
56.55
36.62
16.78
1.56
-7.43
-11.25
-12.13
-11.72
-10.21
-6.82
-1.00
6.56
14.08
19.54
21.78
21.13
19.00
17.03
16.22
16.41
16.52
15.22
11.68
6.03
-0.63
-6.68
-10.63
-11.65
-9.98
-6.76
-3.67
-2.34
-3.76
-7.90
-13.71
-19.56
-23.91
-25.99
-26.07
-25.32
-25.21
-26.90
-30.75
-36.33
-42.64
-48.62
-53.62
-57.57
-61.06
-65.05
-70.36
-77.07
-84.20
-89.77
-91.55
-88.11
-79.72
-68.54
-57.73
-50.11
-46.86
-47.03
-48.01
-46.58
-39.97
-26.36
-5.24
22.48
54.30
86.21
113.26
130.99
137.22
133.47
124.98
119.09
122.47
138.41
165.43
197.88
227.97
248.41
254.62
245.66
223.69
192.73
157.17
120.96
87.41
59.39
39.33
28.81
27.95
35.11
47.13
60.17
70.70
76.51
77.10
73.47
67.35
60.37
53.41
46.44
39.01
30.90
22.60
15.31
10.41
8.69
9.93
13.20
17.65
23.10
30.00
38.47
47.12
52.59
50.35
36.64
10.49
-25.27
-64.64
-100.54
-127.40
-142.85
-147.83
-145.39
-138.90
-130.73
-121.97
-113.01
-104.36
-97.02
-92.13
-90.25
-90.83
-92.18
-92.20
-89.26
-82.92
-74.04
-64.46
-56.25
-50.95
-48.97
-49.40
-50.37
-49.88
-46.66
-40.70
-33.15
-25.61
-19.34
-14.75
-11.53
-9.25
-7.82
-7.65
-9.24
-12.67
-17.36
-22.23
-26.21
-28.73
-29.80
-29.71
-28.71
-26.85
-24.11
-20.63
-16.90
-13.56
-11.16
-9.83
-9.35
-9.35
-9.64
-10.23
-11.24
-12.61
-13.94
-14.64
-14.23
-12.70
-10.57
-8.72
-7.91
-8.58
-10.71
-14.00
-17.98
-22.06
-25.50
-27.42
-27.09
-24.23
-19.25
-13.24
-7.55
-3.19
-0.59
0.45
0.44
-0.17
-1.18
-2.49
-4.05
-5.64
-6.92
-7.53
-7.17
-5.77
-3.45
-0.53
2.51
5.19
7.19
8.40
8.87
8.66
7.67
5.74
2.90
-0.44
-3.52
-5.52
-6.00
-5.17
-3.79
-2.69
-2.38
-2.86
-3.67
-4.27
-4.33
-3.79
-2.87
-1.82
-0.89
-0.27
-0.10
-0.36
-0.84
-1.18
-0.99
-0.13
1.21
2.49
3.14
2.86
1.71
0.08
-1.51
-2.73
-3.46
-3.71
-3.55
-3.05
-2.31
-1.59
-1.19
-1.40
-2.26
-3.62
-5.20
-6.73
-8.12
-9.32
-10.32
-10.97
-11.11
-10.59
-9.46
-7.86
-6.04
-4.20
-2.50
-1.06
0.05
0.83
1.40
2.01
2.93
4.31
6.17
8.35
10.56
12.51
13.86
14.32
13.71
12.07
9.68
6.98
4.45
2.41
0.85
-0.53
-2.15
-4.40
-7.48
-11.30
-15.54
-19.66
-23.05
-25.20
-25.83
-25.03
-23.22
-21.04
-19.09
-17.73
-17.02
-16.73
-16.51
-16.09
-15.32
-14.20
-12.77
-11.03
-8.93
-6.45
-3.72
-0.97
1.55
3.68
5.39
6.75
7.80
8.49
8.76
8.61
8.26
8.06
8.33
9.16
10.35
11.46
12.12
12.24
12.00
11.73
11.65
11.69
11.65
11.29
10.56
9.61
8.71
8.01
7.46
6.77
5.64
3.93
1.81
-0.38
-2.29
-3.78
-4.98
-6.18
-7.58
-9.13
-10.51
-11.30
-11.15
-10.03
-8.15
-5.92
-3.68
-1.66
0.03
1.29
1.99
1.98
1.32
0.29
-0.55
-0.62
0.49
2.81
5.96
9.22
11.88
13.37
13.47
12.39
10.58
8.65
7.18
6.50
6.63
7.26
7.86
7.97
7.38
6.14
4.53
2.82
1.19
-0.23
-1.20
-1.39
-0.44
1.69
4.52
7.05
8.12
6.98
3.66
-1.04
-6.02
-10.46
-14.07
-16.91
-19.01
-20.14
-19.84
-17.82
-14.33
-10.13
-6.25
-3.33
-1.40
0.18
2.22
5.21
9.02
12.96
16.17
18.03
18.34
17.42
15.87
14.34
13.27
12.76
12.58
12.38
11.98
11.40
10.83
10.42
10.13
9.71
8.85
7.32
5.20
2.72
0.23
-2.07
-4.13
-6.02
-7.79
-9.42
-10.78
-11.76
-12.31
-12.52
-12.59
-12.74
-13.18
-13.93
-14.85
-15.64
-15.92
-15.36
-13.80
-11.30
-8.10
-4.62
-1.35
1.27
2.95
3.68
3.70
3.45
3.40
3.85
4.84
6.21
7.74
9.22
10.57
11.69
12.49
12.87
12.75
12.18
11.30
10.28
9.26
8.28
7.28
6.17
4.94
3.61
2.24
0.88
-0.45
-1.77
-3.12
-4.52
-6.03
-7.68
-9.44
-11.20
-12.77
-13.95
-14.59
-14.65
-14.25
-13.52
-12.60
-11.54
-10.24
-8.60
-6.55
-4.16
-1.67
0.67
2.65
4.21
5.44
6.44
7.26
7.82
8.03
7.85
7.45
7.09
7.06
7.45
8.13
8.80
9.20
9.19
8.86
8.42
8.05
7.80
7.54
7.04
6.10
4.71
2.99
1.15
-0.63
-2.34
-4.09
-6.04
-8.20
-10.41
-12.44
-14.11
-15.44
-16.55
-17.53
-18.29
-18.54
-17.93
-16.31
-13.85
-10.93
-8.00
-5.30
-2.87
-0.64
1.40
3.11
4.25
4.62
4.23
3.34
2.36
1.67
1.48
1.84
2.67
3.86
5.41
7.39
9.90
12.97
16.45
20.08
23.53
26.49
28.72
30.01
30.18
29.03
26.52
22.77
18.14
13.15
8.33
4.08
0.57
-2.23
-4.45
-6.28
-7.88
-9.44
-11.10
-12.87
-14.60
-15.94
-16.53
-16.10
-14.64
-12.36
-9.60
-6.70
-3.83
-1.06
1.65
4.29
6.74
8.80
10.27
11.07
11.28
11.13
10.88
10.72
10.66
10.63
10.52
10.35
10.22
10.23
10.38
10.47
10.22
9.42
8.09
6.45
4.80
3.34
2.03
0.77
-0.53
-1.83
-3.03
-4.06
-5.00
-6.09
-7.55
-9.50
-11.91
-14.60
-17.42
-20.18
-22.72
-24.78
-26.08
-26.30
-25.25
-22.91
-19.45
-15.16
-10.42
-5.60
-1.09
2.72
5.53
7.14
7.56
7.02
5.94
4.85
4.28
4.62
5.96
8.09
10.56
12.87
14.62
15.65
15.96
15.64
14.81
13.56
12.06
10.54
9.24
8.36
7.92
7.70
7.39
6.71
5.58
4.06
2.29
0.33
-1.90
-4.54
-7.65
-11.14
-14.72
-17.99
-20.50
-21.94
-22.15
-21.20
-19.32
-16.81
-13.94
-10.85
-7.60
-4.25
-0.91
2.18
4.77
6.63
7.74
8.23
8.35
8.37
8.50
8.85
9.40
10.09
10.80
11.39
11.78
11.92
11.84
11.63
11.37
11.10
10.80
10.40
9.79
8.89
7.66
6.16
4.53
2.90
1.35
-0.15
-1.76
-3.59
-5.69
-8.04
-10.55
-13.13
-15.61
-17.77
-19.28
-19.76
-18.94
-16.77
-13.48
-9.42
-5.02
-0.65
3.35
6.60
8.78
9.70
9.53
8.73
7.99
7.87
8.60
9.99
11.59
12.97
13.89
14.31
14.34
14.09
13.60
12.89
11.97
10.96
9.99
9.15
8.48
7.88
7.22
6.28
4.95
3.19
1.13
-1.02
-3.02
-4.69
-6.02
-7.16
-8.36
-9.88
-11.88
-14.36
-17.14
-19.83
-21.94
-22.97
-22.58
-20.69
-17.56
-13.68
-9.60
-5.77
-2.45
0.37
2.78
4.88
6.71
8.26
9.51
10.46
11.17
11.70
12.10
12.41
12.60
12.69
12.69
12.63
12.57
12.56
12.65
12.84
13.08
13.25
13.23
12.89
12.14
10.99
9.53
7.93
6.38
4.99
3.78
2.67
1.48
0.07
-1.64
-3.64
-5.86
-8.25
-10.77
-13.37
-15.96
-18.31
-20.10
-20.97
-20.68
-19.14
-16.55
-13.24
-9.62
-6.03
-2.67
0.35
3.01
5.29
7.14
8.51
9.41
9.96
10.38
10.90
11.68
12.73
13.92
15.07
16.03
16.72
17.13
17.22
16.92
16.12
14.75
12.86
10.67
8.52
6.75
5.55
4.88
4.55
4.24
3.72
2.83
1.60
0.13
-1.42
-2.90
-4.22
-5.31
-6.15
-6.77
-7.24
-7.64
-8.12
-8.85
-9.94
-11.48
-13.47
-15.81
-18.33
-20.82
-22.97
-24.49
-25.09
-24.60
-23.03
-20.60
-17.65
-14.51
-11.39
-8.34
-5.30
-2.23
0.78
3.49
5.58
6.81
7.13
6.78
6.14
5.67
5.72
6.40
7.63
9.15
10.66
11.88
12.66
12.93
12.73
12.16
11.34
10.42
9.48
8.59
7.71
6.82
5.94
5.13
4.48
4.03
3.71
3.37
2.78
1.78
0.26
-1.74
-4.08
-6.58
-9.11
-11.54
-13.78
-15.65
-16.91
-17.29
-16.63
-15.04
-12.84
-10.43
-8.08
-5.80
-3.38
-0.62
2.42
5.45
8.01
9.77
10.69
11.03
11.15
11.33
11.66
12.09
12.46
12.70
12.79
12.79
12.73
12.62
12.42
12.04
11.37
10.34
8.89
7.05
4.96
2.78
0.71
-1.18
-2.88
-4.48
-6.10
-7.82
-9.70
-11.77
-13.99
-16.31
-18.55
-20.45
-21.65
-21.83
-20.78
-18.53
-15.30
-11.45
-7.36
-3.39
0.21
3.25
5.64
7.36
8.53
9.29
9.83
10.27
10.67
11.04
11.38
11.74
12.12
12.55
12.94
13.16
13.10
12.67
11.92
10.92
9.76
8.46
6.93
5.06
2.78
0.18
-2.51
-5.05
-7.24
-9.00
-10.40
-11.58
-12.66
-13.76
-14.99
-16.38
-17.89
-19.32
-20.34
-20.57
-19.73
-17.79
-14.98
-11.70
-8.32
-5.03
-1.80
1.54
5.02
8.53
11.71
14.12
15.43
15.60
14.87
13.73
12.72
12.23
12.44
13.28
14.48
15.77
16.82
17.43
17.48
16.94
15.86
14.33
12.45
10.34
8.11
5.92
3.88
2.04
0.32
-1.47
-3.57
-6.12
-9.07
-12.16
-15.12
-17.75
-20.05
-22.16
-24.17
-25.96
-27.17
-27.39
-26.33
-24.04
-20.81
-17.06
-13.13
-9.15
-5.14
-1.12
2.75
6.14
8.71
10.24
10.76
10.55
9.99
9.48
9.27
9.49
10.10
10.98
11.96
12.84
13.46
13.76
13.73
13.39
12.75
11.72
10.19
8.13
5.62
2.89
0.21
-2.24
-4.47
-6.63
-8.94
-11.48
-14.11
-16.56
-18.52
-19.78
-20.24
-19.93
-18.86
-17.06
-14.58
-11.54
-8.16
-4.68
-1.39
1.57
4.12
6.31
8.23
9.94
11.43
12.68
13.66
14.39
14.94
15.46
16.04
16.66
17.20
17.42
17.10
16.16
14.74
13.14
11.71
10.69
10.08
9.66
9.09
8.13
6.68
4.86
2.89
1.03
-0.60
-1.99
-3.27
-4.69
-6.45
-8.71
-11.47
-14.57
-17.74
-20.60
-22.78
-23.99
-24.01
-22.81
-20.52
-17.35
-13.68
-9.89
-6.27
-3.01
-0.17
2.31
4.55
6.61
8.49
10.08
11.27
12.06
12.56
12.99
13.65
14.65
15.97
17.33
18.33
18.61
18.01
16.59
14.67
12.71
11.08
9.99
9.37
8.94
8.35
7.38
6.02
4.46
2.88
1.34
-0.26
-2.13
-4.40
-7.04
-9.84
-12.59
-15.15
-17.49
-19.63
-21.46
-22.71
-23.07
-22.27
-20.33
-17.48
-14.16
-10.77
-7.59
-4.70
-2.01
0.56
3.02
5.28
7.13
8.44
9.18
9.48
9.56
9.63
9.78
9.96
10.02
9.82
9.35
8.73
8.19
7.88
7.80
7.66
7.06
5.57
3.04
-0.39
-4.21
-7.81
-10.66
-12.50
-13.43
-13.73
-13.82
-14.00
-14.46
-15.23
-16.24
-17.36
-18.44
-19.32
-19.82
-19.79
-19.09
-17.62
-15.32
-12.23
-8.45
-4.18
0.27
4.54
8.32
11.40
13.69
15.28
16.27
16.83
17.01
16.80
16.17
15.16
13.96
12.89
12.31
12.45
13.31
14.59
15.83
16.63
16.74
16.16
15.04
13.52
11.68
9.51
7.00
4.26
1.55
-0.81
-2.61
-3.73
-4.22
-4.26
-4.07
-3.92
-4.14
-4.98
-6.50
-8.52
-10.55
-11.99
-12.36
-11.57
-9.84
-7.64
-5.34
-3.12
-0.93
1.33
3.64
5.83
7.68
9.08
10.08
10.83
11.49
12.11
12.64
13.01
13.16
13.11
12.89
12.51
11.94
11.20
10.34
9.50
8.81
8.28
7.82
7.25
6.41
5.23
3.73
1.99
0.08
-1.98
-4.17
-6.44
-8.67
-10.74
-12.51
-13.97
-15.20
-16.35
-17.57
-18.91
-20.25
-21.34
-21.90
-21.69
-20.64
-18.79
-16.29
-13.29
-9.95
-6.43
-2.92
0.35
3.14
5.25
6.64
7.37
7.63
7.65
7.62
7.68
7.84
8.06
8.23
8.29
8.19
7.93
7.58
7.15
6.65
6.09
5.53
5.06
4.76
4.63
4.54
4.28
3.69
2.72
1.44
-0.00
-1.55
-3.26
-5.30
-7.88
-11.12
-14.89
-18.78
-22.14
-24.27
-24.62
-22.99
-19.58
-14.98
-9.94
-5.16
-1.11
1.94
3.98
5.06
5.35
5.07
4.55
4.15
4.22
4.95
6.28
7.89
9.34
10.22
10.35
9.82
8.94
8.01
7.19
6.47
5.79
5.12
4.55
4.15
3.88
3.53
2.79
1.49
-0.30
-2.28
-4.06
-5.41
-6.34
-7.04
-7.75
-8.61
-9.68
-10.87
-12.04
-12.97
-13.41
-13.05
-11.68
-9.27
-6.00
-2.27
1.45
4.76
7.35
9.09
9.96
10.04
9.47
8.44
7.17
5.86
4.61
3.44
2.33
1.30
0.41
-0.19
-0.42
-0.27
0.12
0.60
0.97
1.17
1.14
0.88
0.34
-0.56
-1.87
-3.54
-5.35
-7.05
-8.38
-9.27
-9.87
-10.48
-11.37
-12.65
-14.18
-15.61
-16.59
-16.84
-16.33
-15.18
-13.62
-11.79
-9.81
-7.77
-5.78
-3.98
-2.52
-1.57
-1.23
-1.60
-2.75
-4.67
-7.20
-9.99
-12.56
-14.47
-15.42
-15.40
-14.56
-13.08
-11.06
-8.52
-5.51
-2.22
0.93
3.46
4.99
5.44
5.04
4.23
3.43
2.82
2.28
1.57
0.47
-1.06
-2.78
-4.36
-5.46
-5.83
-5.42
-4.30
-2.64
-0.60
1.66
4.04
6.50
9.00
11.48
13.81
15.83
17.38
18.44
19.12
19.64
20.15
20.66
20.99
20.93
20.41
19.61
18.85
18.40
18.24
18.05
17.33
15.73
13.24
10.22
7.22
4.66
2.70
1.21
-0.11
-1.49
-3.03
-4.74
-6.51
-8.30
-10.03
-11.63
-12.92
-13.73
-13.90
-13.35
-12.10
-10.23
-7.81
-4.95
-1.75
1.55
4.65
7.21
9.03
10.10
10.58
10.76
10.85
10.95
11.01
10.97
10.82
10.59
10.37
10.17
9.96
9.66
9.16
8.40
7.34
5.97
4.30
2.40
0.44
-1.37
-2.90
-4.13
-5.22
-6.46
-8.07
-10.14
-12.50
-14.81
-16.67
-17.73
-17.82
-16.92
-15.18
-12.82
-10.03
-6.98
-3.76
-0.44
2.93
6.31
9.61
12.76
15.60
17.92
19.53
20.31
20.27
19.64
18.71
17.80
17.13
16.76
16.65
16.79
17.18
17.89
18.92
20.12
21.25
22.02
22.24
21.85
20.92
19.59
18.03
16.41
14.88
13.63
12.82
12.46
12.32
11.92
10.55
7.50
2.23
-5.45
-15.17
-26.08
-36.98
-46.60
-53.92
-58.38
-59.86
-58.61
-55.06
-49.71
-43.12
-35.97
-28.96
-22.72
-17.62
-13.69
-10.67
-8.16
-5.84
-3.55
-1.35
0.66
2.33
3.57
4.31
4.57
4.46
4.19
3.98
3.96
4.09
4.16
3.95
3.34
2.37
1.18
-0.12
-1.47
-2.90
-4.41
-5.93
-7.37
-8.67
-9.97
-11.49
-13.52
-16.13
-19.11
-21.90
-23.86
-24.51
-23.72
-21.76
-19.06
-16.11
-13.20
-10.52
-8.21
-6.49
-5.67
-5.92
-7.09
-8.61
-9.69
-9.54
-7.75
-4.36
0.23
5.46
10.86
16.09
20.93
25.12
28.33
30.20
30.42
28.81
25.49
20.77
15.17
9.31
3.72
-1.31
-5.78
-10.04
-14.62
-19.99
-26.42
-33.83
-41.82
-49.70
-56.73
-62.23
-65.78
-67.35
-67.45
-66.93
-66.76
-67.48
-68.86
-69.93
-69.52
-66.94
-62.36
-56.60
-50.55
-44.44
-37.31
-27.24
-11.83
11.25
43.91
87.37
141.62
204.69
272.17
337.33
392.25
429.89
445.95
439.96
415.04
376.51
330.15
280.84
231.92
184.95
139.86
95.46
49.88
1.54
-49.81
-102.30
-151.74
-192.60
-219.72
-230.00
-223.69
-204.67
-179.40
-155.27
-138.84
-134.36
-142.83
-161.70
-185.32
-206.37
-217.93
-215.71
-199.54
-173.36
-143.60
-116.79
-97.16
-85.57
-80.03
-77.21
-74.23
-69.76
-64.07
-58.31
-53.53
-49.97
-46.92
-43.25
-38.08
-31.33
-23.92
-17.29
-12.74
-10.85
-11.26
-12.98
-14.99
-16.62
-17.84
-18.95
-20.12
-20.87
-20.17
-16.87
-10.60
-2.48
5.35
11.04
14.94
20.50
32.98
56.35
89.99
127.53
159.10
175.92
174.50
157.89
133.19
107.11
82.47
57.93
30.95
1.54
-26.02
-44.75
-48.72
-36.54
-12.27
16.91
44.34
66.63
84.04
98.68
111.64
121.20
122.93
111.57
84.25
42.87
-5.32
-49.84
-80.82
-92.71
-86.43
-68.55
-48.50
-34.79
-31.98
-39.86
-54.58
-70.99
-84.85
-93.80
-97.28
-95.97
-91.37
-85.83
-82.18
-83.05
-89.69
-101.42
-115.66
-129.03
-138.69
-143.20
-142.55
-137.37
-127.98
-113.97
-94.82
-71.00
-44.75
-19.79
-0.06
11.96
16.13
14.62
10.94
8.67
10.45
17.43
29.15
43.84
58.94
71.81
80.40
83.75
82.06
76.42
68.38
59.45
50.85
43.41
37.62
33.55
30.74
28.21
24.78
19.61
12.62
4.52
-3.53
-10.43
-15.54
-18.71
-20.20
-20.42
-19.69
-18.19
-15.85
-12.44
-7.63
-1.24
6.53
15.02
23.16
29.75
33.91
35.42
34.71
32.70
30.42
28.64
27.79
28.01
29.21
31.21
33.73
36.33
38.59
40.20
41.21
42.08
43.44
45.71
48.60
51.04
51.60
49.12
43.35
35.20
26.32
18.31
12.09
7.56
3.95
0.36
-3.69
-7.98
-11.66
-13.72
-13.44
-10.67
-5.93
-0.19
5.51
10.26
13.50
14.96
14.60
12.66
9.64
6.28
3.32
1.29
0.19
-0.47
-1.46
-3.36
-6.21
-9.43
-12.10
-13.46
-13.31
-12.13
-10.83
-10.33
-11.18
-13.40
-16.51
-19.84
-22.85
-25.32
-27.45
-29.72
-32.50
-35.87
-39.44
-42.53
-44.45
-44.87
-43.91
-42.09
-40.14
-38.53
-37.39
-36.55
-35.76
-35.03
-34.83
-36.08
-39.86
-46.84
-56.72
-67.90
-77.61
-82.46
-79.36
-66.20
-42.55
-9.87
28.52
68.07
103.87
132.01
150.71
160.81
165.49
168.80
173.80
181.09
188.35
191.35
185.72
168.90
141.21
106.08
68.93
35.58
10.54
-4.14
-9.22
-7.60
-3.17
0.31
0.19
-4.69
-13.78
-24.90
-34.79
-39.98
-38.08
-28.75
-14.01
2.51
17.05
27.16
32.32
33.47
31.92
28.67
24.31
19.64
16.08
15.34
18.44
24.76
31.95
36.94
37.49
33.30
26.04
18.37
12.57
9.64
9.33
10.70
12.75
14.71
15.87
15.34
12.17
5.78
-3.55
-14.49
-25.18
-33.95
-40.09
-43.87
-46.06
-47.21
-47.16
-45.15
-40.47
-32.97
-23.23
-12.24
-0.90
10.23
20.83
30.48
38.50
44.06
46.63
46.37
44.05
40.70
37.04
33.25
29.23
24.99
20.90
17.63
15.65
14.84
14.43
13.37
10.85
6.67
1.24
-4.74
-10.66
-16.24
-21.46
-26.38
-30.92
-34.88
-38.11
-40.68
-42.92
-45.26
-48.00
-51.04
-53.84
-55.62
-55.63
-53.37
-48.66
-41.49
-31.88
-19.89
-6.00
8.62
22.03
31.91
36.15
33.38
23.31
6.88
-13.97
-36.55
-57.96
-75.38
-86.41
-89.31
-83.43
-69.46
-49.50
-26.42
-2.88
19.41
40.25
60.63
81.94
105.05
130.09
156.65
184.16
212.04
239.06
263.18
281.82
292.91
296.15
293.63
289.23
286.81
288.38
292.50
295.57
293.77
284.87
268.96
248.02
224.81
201.63
179.69
157.62
133.65
106.97
78.20
48.73
19.86
-7.73
-34.17
-60.18
-89.57
-125.33
-167.76
-213.91
-259.37
-300.09
-333.41
-358.14
-374.24
-386.68
-399.30
-412.79
-424.58
-432.19
-435.66
-437.54
-440.90
-447.10
-460.24
-480.42
-503.25
-521.94
-532.55
-536.42
-538.65
-544.16
-519.83
-445.27
-322.85
-178.51
-41.87
69.21
149.99
203.90
238.61
262.84
278.48
285.96
284.72
277.33
265.68
250.80
234.57
220.66
213.12
210.02
207.67
203.48
198.26
194.55
195.58
201.98
211.58
219.86
219.27
205.25
178.56
144.52
108.13
70.33
27.57
-25.24
-90.70
-167.24
-247.44
-319.73
-371.45
-393.37
-382.81
-345.45
-294.26
-246.20
-216.89
-214.56
-236.91
-272.55
-306.55
-327.13
-330.02
-318.19
-298.25
-275.91
-253.39
-229.71
-203.15
-173.56
-143.51
-116.80
-95.96
-80.57
-67.36
-52.08
-31.77
-6.33
21.96
49.01
70.90
85.53
93.55
97.91
102.33
109.64
120.77
136.06
154.06
172.38
188.86
202.85
215.38
228.33
243.26
261.02
284.33
314.09
348.67
384.54
417.99
446.25
467.88
482.54
491.42
500.75
514.56
532.25
549.14
559.87
561.14
552.84
536.86
516.35
499.06
488.11
480.45
469.10
448.50
417.23
378.09
335.44
256.86
131.14
-27.76
-188.02
-322.75
-422.19
-490.67
-535.99
-571.63
-604.71
-631.36
-646.49
-647.56
-636.12
-611.09
-574.12
-529.00
-481.55
-436.62
-392.81
-348.05
-301.84
-256.09
-213.41
-176.02
-144.33
-117.05
-90.86
-59.75
-20.49
25.57
73.06
115.48
147.54
167.00
174.46
172.94
167.36
161.52
157.15
154.25
152.30
150.78
149.50
148.00
145.53
141.28
134.10
122.80
106.67
86.05
62.53
38.97
18.79
5.00
-0.99
-0.11
4.65
9.33
10.62
7.07
-0.55
-9.93
-18.49
-24.60
-27.94
-29.36
-30.14
-31.46
-34.11
-38.40
-44.27
-51.27
-58.55
-65.05
-69.74
-71.97
-71.76
-69.81
-67.25
-65.27
-64.77
-66.10
-68.92
-72.26
-74.71
-74.82
-71.60
-64.96
-55.70
-45.15
-34.43
-23.92
-13.13
-1.05
13.19
29.67
47.44
64.72
79.46
89.84
94.71
93.69
87.16
76.15
62.29
47.61
34.15
23.55
16.62
13.10
11.99
11.99
12.15
12.15
12.13
12.36
12.82
13.06
12.41
10.42
7.24
3.54
0.22
-2.11
-3.42
-4.29
-5.48
-7.51
-10.34
-13.32
-15.64
-16.74
-16.75
-16.43
-16.75
-18.39
-21.28
-24.60
-27.12
-27.73
-25.83
-21.44
-15.11
-7.78
-0.51
5.74
10.32
13.03
14.28
14.85
15.60
17.12
19.49
22.25
24.46
24.99
22.87
17.79
10.52
2.95
-2.46
-3.60
0.22
7.76
16.22
22.47
24.38
21.82
16.46
10.93
7.62
7.83
11.81
19.14
29.27
41.73
55.77
69.79
81.26
87.31
85.94
77.06
62.63
45.76
28.94
12.75
-4.33
-24.68
-49.79
-78.91
-108.98
-135.76
-155.56
-166.38
-168.21
-162.47
-151.09
-135.85
-118.11
-98.79
-78.62
-58.44
-39.37
-22.92
-10.66
-3.64
-1.87
-4.09
-8.09
-11.64
-13.36
-13.07
-11.41
-8.92
-5.23
1.04
11.51
26.88
46.21
67.01
86.12
100.84
109.60
112.05
108.48
99.41
85.51
67.85
48.39
30.04
16.06
8.99
9.64
16.65
27.03
37.35
44.86
48.18
47.08
41.85
32.59
19.11
1.32
-19.99
-42.86
-64.40
-81.78
-93.19
-98.36
-98.34
-94.79
-89.23
-82.63
-75.29
-67.14
-58.00
-47.90
-37.19
-26.43
-16.20
-6.72
2.26
11.43
21.53
32.86
45.06
56.96
66.88
73.09
74.12
69.16
58.23
42.40
23.85
5.64
-8.81
-16.69
-16.70
-9.48
2.60
16.21
28.20
36.52
40.63
41.20
39.48
36.53
32.70
27.77
21.33
13.35
4.44
-4.35
-11.90
-17.45
-20.75
-21.83
-20.61
-16.79
-10.12
-0.89
9.58
19.11
25.41
27.18
24.80
20.15
15.65
13.01
12.42
12.63
11.90
9.13
4.54
-0.46
-3.99
-4.60
-1.94
3.17
8.88
12.84
12.72
6.88
-5.09
-22.01
-41.11
-58.61
-70.77
-75.12
-71.39
-61.78
-50.32
-41.58
-39.10
-44.22
-55.60
-69.68
-81.84
-87.82
-84.95
-72.79
-53.14
-29.42
-5.76
14.06
27.46
33.54
33.07
28.04
20.96
14.18
9.39
7.45
8.37
11.45
15.54
19.30
21.56
21.62
19.43
15.52
10.82
6.28
2.60
0.02
-1.65
-2.82
-3.92
-5.14
-6.35
-7.21
-7.29
-6.14
-3.42
1.14
7.60
15.70
24.71
33.37
40.16
43.67
43.17
38.95
32.19
24.56
17.56
12.03
8.09
5.31
3.14
1.20
-0.58
-2.03
-2.95
-3.13
-2.45
-0.91
1.30
3.75
5.78
6.77
6.40
4.82
2.67
0.72
-0.45
-0.75
-0.47
-0.00
0.45
0.97
1.77
2.95
4.36
5.68
6.55
6.72
6.06
4.50
2.05
-1.08
-4.52
-7.70
-10.17
-11.82
-12.99
-14.25
-16.11
-18.64
-21.48
-24.05
-25.92
-26.97
-27.36
-27.26
-26.62
-25.21
-22.79
-19.40
-15.49
-11.73
-8.69
-6.50
-4.79
-2.91
-0.27
3.31
7.51
11.64
14.96
16.99
17.66
17.28
16.37
15.48
15.06
15.33
16.28
17.66
19.03
19.97
20.16
19.52
18.15
16.24
13.91
11.16
7.97
4.39
0.71
-2.64
-5.26
-6.94
-7.82
-8.26
-8.65
-9.18
-9.70
-9.84
-9.14
-7.23
-3.99
0.38
5.40
10.36
14.43
16.90
17.35
15.84
12.93
9.55
6.72
5.23
5.38
6.93
9.24
11.55
13.21
13.84
13.37
12.02
10.18
8.32
6.86
6.09
6.02
6.36
6.56
5.90
3.87
0.30
-4.48
-9.76
-14.68
-18.45
-20.57
-20.89
-19.59
-17.15
-14.21
-11.47
-9.47
-8.43
-8.24
-8.46
-8.51
-7.97
-6.65
-4.61
-2.15
0.38
2.63
4.34
5.35
5.66
5.41
4.89
4.42
4.29
4.62
5.31
6.13
6.76
6.92
6.49
5.55
4.37
3.22
2.27
1.46
0.53
-0.88
-2.99
-5.75
-8.81
-11.72
-14.03
-15.47
-15.99
-15.64
-14.58
-12.99
-11.16
-9.47
-8.23
-7.62
-7.50
-7.41
-6.84
-5.43
-3.24
-0.65
1.80
3.71
5.00
5.85
6.49
7.03
7.33
7.15
6.36
5.09
3.79
2.96
2.93
3.69
4.81
5.72
5.89
5.04
3.21
0.70
-2.08
-4.72
-6.97
-8.73
-10.09
-11.24
-12.37
-13.59
-14.85
-15.93
-16.52
-16.42
-15.57
-14.10
-12.27
-10.26
-8.15
-5.89
-3.44
-0.92
1.39
3.20
4.33
4.85
5.07
5.39
6.14
7.32
8.70
9.81
10.20
9.58
7.94
5.62
3.18
1.31
0.54
1.10
2.81
5.14
7.35
8.84
9.29
8.74
7.44
5.66
3.52
0.93
-2.22
-5.95
-10.07
-14.19
-17.88
-20.82
-22.89
-24.09
-24.45
-23.93
-22.46
-20.06
-16.93
-13.48
-10.16
-7.36
-5.24
-3.76
-2.74
-2.07
-1.72
-1.77
-2.34
-3.40
-4.81
-6.23
-7.22
-7.39
-6.47
-4.42
-1.50
1.84
5.05
7.66
9.35
10.04
9.78
8.68
6.90
4.67
2.25
-0.03
-1.95
-3.50
-4.92
-6.61
-8.92
-11.92
-15.26
-18.27
-20.14
-20.22
-18.26
-14.51
-9.69
-4.78
-0.69
1.99
3.21
3.41
3.37
3.90
5.56
8.51
12.49
16.96
21.26
24.76
27.06
27.99
27.66
26.37
24.53
22.54
20.68
19.11
17.88
16.98
16.30
15.69
14.89
13.68
11.94
9.77
7.43
5.22
3.34
1.76
0.25
-1.45
-3.44
-5.58
-7.55
-9.01
-9.78
-9.88
-9.42
-8.51
-7.17
-5.32
-2.90
-0.02
3.06
5.90
8.11
9.43
9.84
9.53
8.81
7.97
7.18
6.45
5.73
5.00
4.34
3.93
3.95
4.46
5.36
6.38
7.18
7.44
7.01
5.92
4.40
2.79
1.41
0.42
-0.24
-0.85
-1.76
-3.23
-5.32
-7.86
-10.53
-12.96
-14.85
-15.97
-16.22
-15.58
-14.15
-12.14
-9.79
-7.28
-4.67
-1.92
0.97
3.88
6.50
8.46
9.43
9.28
8.14
6.31
4.19
2.21
0.78
0.21
0.67
2.11
4.18
6.32
7.88
8.35
7.52
5.53
2.78
-0.17
-2.78
-4.65
-5.57
-5.56
-4.98
-4.39
-4.37
-5.31
-7.18
-9.51
-11.62
-12.87
-12.96
-11.97
-10.27
-8.23
-6.10
-3.93
-1.72
0.46
2.43
4.00
5.03
5.57
5.79
5.86
5.84
5.68
5.31
4.69
3.96
3.35
3.09
3.27
3.82
4.54
5.13
5.31
4.93
3.95
2.48
0.74
-0.95
-2.35
-3.35
-4.01
-4.56
-5.27
-6.31
-7.63
-9.03
-10.17
-10.72
-10.48
-9.40
-7.64
-5.45
-3.09
-0.79
1.33
3.26
4.96
6.43
7.62
8.47
8.98
9.17
9.08
8.78
8.36
7.93
7.66
7.68
8.02
8.60
9.11
9.21
8.59
7.24
5.47
3.74
2.51
1.95
1.86
1.66
0.73
-1.27
-4.18
-7.37
-9.98
-11.29
-10.97
-9.23
-6.73
-4.27
-2.36
-1.00
0.27
2.21
5.41
10.18
16.21
22.38
27.23
29.46
28.62
25.23
20.72
16.85
15.42
17.37
22.20
28.40
33.99
37.61
38.87
38.41
37.46
37.66
39.68
42.19
42.42
36.82
22.96
0.41
-29.39
-63.60
-96.27
-119.56
-128.11
-122.83
-111.13
-101.53
-103.02
-115.82
-136.10
-157.39
-172.96
-178.60
-167.95
-140.20
-98.91
-47.12
5.05
45.90
69.32
76.50
72.74
64.50
58.48
57.34
63.02
76.11
95.84
120.19
146.01
165.83
173.91
167.34
147.49
119.89
91.48
68.40
53.70
45.87
39.64
29.79
13.35
-8.75
-32.40
-53.47
-69.77
-81.86
-92.03
-102.32
-112.28
-119.38
-120.52
-113.84
-100.20
-82.66
-64.80
-49.28
-36.93
-26.64
-16.47
-4.53
10.35
28.14
47.39
65.62
80.07
88.61
90.51
86.37
77.60
65.62
51.31
35.18
18.09
2.04
-9.79
-14.36
-10.98
-2.80
3.88
2.74
-8.48
-25.75
-40.20
-42.77
-29.39
-3.39
26.59
51.85
68.64
79.59
90.76
106.74
127.19
147.22
160.97
165.39
161.71
153.68
144.60
135.24
124.00
108.57
87.94
63.07
36.46
11.00
-10.94
-28.25
-41.32
-51.82
-62.10
-74.09
-88.25
-103.24
-116.74
-127.11
-134.50
-140.77
-148.15
-157.66
-168.49
-178.91
-187.85
-195.49
-202.43
-208.30
-210.95
-207.34
-195.47
-176.07
-152.98
-131.63
-116.57
-109.47
-108.57
-109.35
-106.28
-94.70
-72.52
-41.06
-4.59
31.31
62.02
85.45
102.08
113.71
121.97
127.34
129.88
130.46
131.35
135.39
144.11
156.22
167.27
171.55
164.46
144.57
114.11
78.01
42.21
12.07
-8.71
-18.44
-17.21
-6.90
8.77
24.43
34.00
32.72
18.93
-4.96
-33.34
-59.59
-78.99
-90.09
-94.42
-94.51
-91.42
-84.44
-72.27
-54.72
-33.31
-10.72
11.01
30.53
46.28
57.46
64.17
67.20
67.61
66.95
66.83
68.08
71.99
76.08
77.84
75.68
69.27
59.46
47.78
35.52
23.33
10.36
-3.36
-16.57
-27.07
-32.24
-29.95
-19.41
-1.68
20.68
44.53
67.13
86.68
101.87
111.36
113.36
106.24
89.45
64.41
34.73
5.23
-19.59
-37.34
-48.56
-56.04
-63.14
-72.08
-83.09
-94.67
-104.69
-111.58
-115.09
-116.26
-116.85
-118.39
-121.58
-126.05
-130.57
-133.36
-132.42
-125.86
-112.29
-91.47
-64.78
-35.23
-6.62
17.75
36.29
49.41
58.97
67.04
74.61
81.21
85.38
85.71
81.89
74.94
66.79
59.37
53.89
50.62
49.13
48.57
47.89
45.91
41.26
32.68
19.48
2.32
-16.53
-33.34
-43.93
-45.09
-35.85
-17.91
4.88
27.71
46.37
58.15
62.29
59.65
52.15
42.23
32.39
24.71
20.50
19.85
21.50
23.24
22.58
17.65
7.90
-5.67
-20.77
-34.54
-44.18
-47.74
-44.49
-35.36
-22.91
-10.90
-3.50
-3.89
-13.01
-28.84
-46.89
-61.72
-69.04
-67.24
-57.69
-43.70
-28.80
-15.31
-4.00
5.30
12.71
17.67
19.20
16.56
10.05
1.08
-8.25
-15.92
-20.71
-22.38
-21.57
-19.41
-17.14
-15.76
-15.69
-16.59
-17.34
-16.34
-12.19
-4.49
5.78
16.39
24.77
29.14
29.26
26.47
22.81
19.96
18.44
17.69
16.70
14.85
12.31
9.82
8.13
7.46
7.37
6.99
5.46
2.26
-2.57
-8.40
-14.16
-18.59
-20.62
-19.74
-16.22
-11.06
-5.63
-1.15
1.74
3.11
3.55
3.82
4.44
5.47
6.61
7.38
7.38
6.52
5.01
3.28
1.74
0.54
-0.46
-1.57
-3.04
-4.83
-6.48
-7.33
-6.85
-5.00
-2.32
0.20
1.58
1.27
-0.59
-3.24
-5.73
-7.25
-7.42
-6.34
-4.39
-2.05
0.21
1.98
2.93
2.93
2.20
1.36
1.23
2.40
4.91
8.11
10.99
12.65
12.78
11.64
9.84
7.80
5.59
3.01
0.03
-2.97
-5.20
-5.87
-4.72
-2.16
0.84
3.29
4.55
4.48
3.35
1.57
-0.48
-2.46
-4.03
-4.82
-4.49
-2.95
-0.42
2.59
5.42
7.49
8.44
8.21
6.98
5.13
3.13
1.49
0.57
0.55
1.36
2.72
4.22
5.49
6.21
6.30
5.85
5.10
4.35
3.79
3.40
2.88
1.81
-0.14
-2.98
-6.33
-9.56
-12.09
-13.62
-14.27
-14.38
-14.30
-14.15
-13.85
-13.25
-12.24
-10.87
-9.24
-7.35
-5.04
-2.11
1.48
5.48
9.32
12.29
13.79
13.56
11.67
8.55
4.76
0.94
-2.29
-4.43
-5.20
-4.58
-2.92
-0.77
1.18
2.37
2.48
1.57
-0.05
-1.95
-3.77
-5.30
-6.49
-7.37
-7.96
-8.22
-8.15
-7.83
-7.46
-7.29
-7.50
-8.03
-8.68
-9.13
-9.18
-8.79
-8.09
-7.18
-6.14
-5.00
-3.77
-2.50
-1.26
-0.07
1.18
2.65
4.34
6.10
7.57
8.38
8.39
7.73
6.76
5.85
5.19
4.76
4.35
3.79
3.02
2.10
1.17
0.37
-0.20
-0.54
-0.73
-0.95
-1.38
-2.08
-2.96
-3.76
-4.18
-4.07
-3.55
-2.90
-2.41
-2.26
-2.40
-2.71
-3.13
-3.68
-4.45
-5.46
-6.54
-7.38
-7.76
-7.62
-7.13
-6.57
-6.10
-5.71
-5.15
-4.21
-2.79
-1.07
0.62
1.94
2.73
3.06
3.19
3.38
3.76
4.25
4.63
4.71
4.47
4.07
3.82
3.96
4.57
5.48
6.41
7.07
7.36
7.33
7.13
6.89
6.61
6.13
5.31
4.06
2.50
0.87
-0.60
-1.77
-2.71
-3.61
-4.70
-6.15
-7.98
-10.06
-12.12
-13.77
-14.59
-14.18
-12.33
-9.02
-4.58
0.41
5.28
9.44
12.57
14.66
15.85
16.33
16.22
15.54
14.38
12.94
11.53
10.45
9.80
9.41
8.96
8.14
6.90
5.46
4.20
3.38
2.96
2.66
2.13
1.19
-0.06
-1.37
-2.47
-3.29
-3.97
-4.69
-5.55
-6.45
-7.22
-7.75
-8.11
-8.55
-9.40
-10.82
-12.75
-14.89
-16.86
-18.31
-19.00
-18.81
-17.71
-15.77
-13.11
-9.94
-6.48
-2.93
0.61
4.08
7.35
10.21
12.38
13.65
14.04
13.78
13.28
12.91
12.85
13.05
13.38
13.71
13.97
14.13
14.13
13.87
13.28
12.41
11.48
10.70
10.20
9.83
9.32
8.38
6.92
5.11
3.27
1.63
0.27
-0.95
-2.24
-3.77
-5.59
-7.66
-9.89
-12.17
-14.31
-16.00
-16.93
-16.87
-15.84
-14.09
-11.96
-9.73
-7.47
-5.11
-2.52
0.32
3.27
6.12
8.65
10.62
11.90
12.44
12.30
11.69
10.91
10.24
9.76
9.35
8.75
7.77
6.43
4.95
3.67
2.81
2.37
2.15
1.93
1.54
0.95
0.22
-0.55
-1.27
-1.86
-2.26
-2.47
-2.60
-2.95
-3.86
-5.58
-8.09
-10.97
-13.56
-15.19
-15.49
-14.54
-12.78
-10.78
-8.97
-7.42
-5.91
-4.12
-1.84
0.86
3.65
6.13
8.00
9.12
9.56
9.40
8.70
7.50
5.92
4.20
2.74
1.92
1.93
2.64
3.68
4.61
5.11
5.09
4.70
4.13
3.51
2.84
2.08
1.16
0.14
-0.90
-1.81
-2.44
-2.68
-2.53
-2.17
-1.95
-2.30
-3.54
-5.68
-8.46
-11.37
-13.95
-15.93
-17.13
-17.42
-16.58
-14.35
-10.70
-5.97
-0.99
3.30
6.21
7.59
7.88
7.73
7.68
7.86
8.10
8.13
7.83
7.36
6.99
6.91
7.16
7.62
8.10
8.48
8.71
8.77
8.57
7.99
6.93
5.39
3.58
1.76
0.24
-0.79
-1.29
-1.38
-1.21
-1.01
-1.01
-1.43
-2.45
-4.11
-6.29
-8.72
-11.06
-13.06
-14.67
-16.01
-17.21
-18.24
-18.80
-18.52
-17.12
-14.64
-11.47
-8.16
-5.21
-2.85
-1.04
0.42
1.68
2.79
3.77
4.64
5.52
6.53
7.67
8.83
9.78
10.34
10.42
10.11
9.61
9.12
8.77
8.62
8.63
8.67
8.59
8.23
7.47
6.32
4.91
3.45
2.04
0.64
-0.98
-3.01
-5.53
-8.36
-11.11
-13.46
-15.27
-16.67
-17.91
-19.06
-19.92
-20.06
-19.04
-16.72
-13.40
-9.71
-6.35
-3.83
-2.35
-1.74
-1.70
-1.73
-1.30
0.17
3.15
7.82
13.88
20.54
26.73
31.44
34.10
34.62
33.33
30.65
26.91
22.26
16.92
11.38
6.41
2.84
1.12
1.09
1.97
2.81
2.91
2.13
0.83
-0.48
-1.49
-2.27
-3.16
-4.52
-6.57
-9.29
-12.46
-15.78
-18.92
-21.47
-23.08
-23.51
-22.79
-21.13
-18.90
-16.42
-13.89
-11.36
-8.81
-6.25
-3.73
-1.32
0.93
2.99
4.82
6.30
7.34
7.90
8.10
8.17
8.33
8.68
9.14
9.53
9.73
9.77
9.80
9.96
10.27
10.59
10.68
10.38
9.62
8.48
7.07
5.45
3.64
1.73
-0.14
-1.79
-3.15
-4.26
-5.33
-6.57
-8.14
-10.05
-12.23
-14.54
-16.80
-18.78
-20.22
-20.85
-20.48
-19.13
-17.00
-14.42
-11.66
-8.84
-5.93
-2.81
0.54
3.92
6.95
9.20
10.39
10.51
9.89
8.98
8.21
7.82
7.77
7.91
8.10
8.32
8.63
9.09
9.62
9.99
9.95
9.33
8.17
6.60
4.85
3.08
1.41
-0.07
-1.27
-2.14
-2.68
-3.03
-3.41
-4.05
-5.08
-6.50
-8.21
-10.01
-11.73
-13.18
-14.17
-14.48
-13.99
-12.68
-10.70
-8.32
-5.76
-3.08
-0.23
2.91
6.32
9.77
12.81
14.98
16.04
16.09
15.56
14.95
14.62
14.67
14.98
15.31
15.53
15.60
15.65
15.77
15.99
16.26
16.47
16.52
16.27
15.44
13.62
10.29
5.11
-1.78
-9.62
-17.07
-22.63
-25.21
-24.56
-21.42
-17.22
-13.48
-11.28
-10.89
-11.91
-13.59
-15.22
-16.37
-16.81
-16.35
-14.71
-11.63
-7.06
-1.43
4.38
9.27
12.42
13.57
13.18
12.12
11.33
11.41
12.42
14.00
15.54
16.39
16.05
14.25
11.06
7.02
2.95
-0.23
-1.91
-2.05
-1.19
-0.20
0.22
-0.18
-1.17
-2.33
-3.38
-4.33
-5.45
-6.92
-8.73
-10.67
-12.50
-14.17
-15.76
-17.39
-19.01
-20.36
-21.08
-20.83
-19.50
-17.13
-13.92
-10.10
-5.92
-1.63
2.48
6.14
9.15
11.39
12.84
13.54
13.64
13.38
13.06
12.93
13.11
13.50
13.83
13.90
13.62
13.10
12.56
12.19
11.93
11.58
10.84
9.50
7.60
5.37
3.12
1.12
-0.53
-1.96
-3.38
-5.06
-7.15
-9.66
-12.40
-15.09
-17.41
-19.14
-20.21
-20.69
-20.75
-20.52
-19.97
-18.91
-17.13
-14.42
-10.80
-6.49
-1.86
2.63
6.54
9.60
11.65
12.73
12.96
12.58
11.86
11.10
10.54
10.33
10.49
10.88
11.33
11.63
11.68
11.50
11.20
10.96
10.81
10.68
10.36
9.66
8.53
7.12
5.73
4.67
4.09
3.89
3.72
3.18
1.95
-0.07
-2.66
-5.44
-7.96
-9.85
-10.97
-11.45
-11.67
-12.16
-13.45
-15.78
-18.98
-22.45
-25.28
-26.59
-25.83
-22.94
-18.34
-12.79
-7.12
-1.99
2.21
5.42
7.87
9.86
11.75
13.70
15.73
17.62
19.09
19.81
19.58
18.37
16.41
14.12
12.02
10.56
9.90
9.92
10.24
10.45
10.23
9.48
8.27
6.71
4.87
2.81
0.57
-1.74
-3.98
-6.03
-7.90
-9.66
-11.40
-13.15
-14.81
-16.13
-16.91
-17.12
-16.92
-16.67
-16.63
-16.88
-17.27
-17.55
-17.60
-17.53
-17.59
-17.95
-18.56
-19.13
-19.35
-19.11
-18.61
-18.25
-18.30
-18.70
-18.98
-18.51
-16.76
-13.56
-9.04
-3.60
2.34
8.40
14.27
19.69
24.34
27.86
29.79
29.77
27.70
23.89
19.23
15.07
12.82
13.46
17.13
22.95
29.27
34.20
36.22
34.75
30.19
23.78
17.03
11.21
6.95
4.20
2.47
1.22
0.16
-0.76
-1.45
-1.92
-2.31
-2.77
-3.21
-3.22
-2.27
-0.03
3.21
6.56
8.92
9.46
8.13
5.66
3.24
1.86
1.92
3.01
4.26
4.81
4.19
2.49
0.16
-2.23
-4.24
-5.64
-6.31
-6.21
-5.32
-3.73
-1.72
0.26
1.70
2.26
1.87
0.78
-0.61
-1.96
-3.19
-4.53
-6.27
-8.53
-11.01
-13.05
-13.92
-13.17
-10.85
-7.49
-3.82
-0.45
2.32
4.48
6.15
7.52
8.79
10.24
12.17
14.87
18.37
22.39
26.34
29.46
31.14
30.99
28.92
25.14
20.05
14.15
8.00
2.05
-3.40
-8.21
-12.38
-15.87
-18.55
-20.19
-20.56
-19.64
-17.75
-15.58
-13.98
-13.72
-15.29
-18.77
-23.86
-30.02
-36.57
-42.71
-47.68
-50.80
-51.64
-50.06
-46.16
-40.22
-32.61
-23.82
-14.47
-5.38
2.61
8.79
12.83
14.90
15.46
15.11
14.34
13.44
12.61
12.00
11.81
12.16
13.04
14.18
15.15
15.51
14.99
13.59
11.60
9.51
7.73
6.42
5.42
4.28
2.59
0.20
-2.62
-5.34
-7.36
-8.35
-8.34
-7.66
-6.75
-5.92
-5.31
-4.95
-4.78
-4.77
-4.90
-5.08
-5.23
-5.27
-5.25
-5.22
-5.22
-5.15
-4.75
-3.73
-2.03
0.15
2.35
4.05
4.96
5.16
5.02
5.01
5.46
6.38
7.53
8.55
9.16
9.26
8.91
8.21
7.22
5.89
4.20
2.16
-0.10
-2.36
-4.36
-5.84
-6.61
-6.52
-5.56
-3.86
-1.75
0.22
1.42
1.35
-0.23
-3.14
-6.87
-10.82
-14.39
-17.19
-18.91
-19.32
-18.18
-15.28
-10.59
-4.39
2.70
9.81
16.02
20.67
23.39
24.24
23.57
21.90
19.84
17.92
16.47
15.56
14.98
14.42
13.56
12.32
10.83
9.37
8.23
7.57
7.41
7.59
7.91
8.10
7.97
7.33
6.12
4.33
2.09
-0.40
-2.90
-5.22
-7.21
-8.83
-10.15
-11.29
-12.44
-13.76
-15.38
-17.35
-19.63
-22.06
-24.33
-25.98
-26.45
-25.26
-22.26
-17.73
-12.35
-6.90
-2.04
1.92
5.00
7.38
9.22
10.55
11.33
11.48
11.06
10.28
9.47
9.00
9.14
9.92
11.14
12.44
13.43
13.87
13.70
13.03
11.98
10.60
8.85
6.67
4.12
1.47
-0.87
-2.56
-3.51
-3.98
-4.52
-5.68
-7.80
-10.86
-14.45
-17.98
-20.86
-22.71
-23.31
-22.63
-20.75
-17.79
-13.99
-9.67
-5.21
-1.03
2.60
5.49
7.63
9.10
10.01
10.49
10.66
10.65
10.58
10.54
10.61
10.82
11.17
11.66
12.25
12.87
13.34
13.48
13.05
11.92
10.04
7.57
4.79
2.03
-0.39
-2.26
-3.51
-4.22
-4.59
-4.86
-5.25
-5.93
-7.00
-8.45
-10.15
-11.96
-13.63
-14.91
-15.53
-15.26
-13.92
-11.46
-8.02
-3.90
0.42
4.39
7.49
9.37
9.97
9.51
8.46
7.39
6.77
6.86
7.65
8.89
10.26
11.48
12.38
12.94
13.21
13.27
13.20
13.03
12.79
12.49
12.04
11.30
10.12
8.37
6.05
3.31
0.43
-2.32
-4.75
-6.81
-8.60
-10.26
-11.89
-13.44
-14.63
-15.00
-14.08
-11.78
-8.56
-5.36
-3.12
-2.20
-2.11
-1.67
0.21
3.76
8.21
12.27
15.21
17.54
20.79
26.41
34.50
43.29
49.94
52.16
49.66
44.26
38.68
34.81
32.69
30.81
27.54
22.52
17.05
13.17
12.04
13.04
13.92
12.22
6.78
-1.57
-10.56
-17.87
-22.43
-24.79
-26.45
-28.80
-32.19
-35.81
-38.29
-38.50
-36.17
-31.99
-27.08
-22.44
-18.46
-14.90
-11.22
-7.10
-2.75
1.01
3.16
3.13
1.30
-1.08
-2.51
-2.19
-0.57
0.80
0.25
-2.99
-8.29
-13.97
-18.35
-20.54
-20.83
-20.15
-19.40
-18.83
-18.14
-16.90
-15.00
-12.82
-10.97
-9.98
-10.00
-10.86
-12.25
-13.83
-15.45
-17.10
-18.92
-21.06
-23.53
-26.13
-28.38
-29.69
-29.60
-27.95
-24.93
-20.96
-16.47
-11.78
-7.05
-2.41
1.88
5.46
7.97
9.21
9.34
8.84
8.33
8.31
9.00
10.27
11.80
13.22
14.27
14.86
15.01
14.76
14.12
13.10
11.72
10.11
8.44
6.84
5.29
3.63
1.62
-0.83
-3.55
-6.15
-8.24
-9.61
-10.38
-10.88
-11.43
-12.12
-12.73
-12.95
-12.56
-11.61
-10.35
-8.97
-7.40
-5.33
-2.32
1.78
6.63
11.43
15.16
17.06
16.98
15.46
13.51
12.14
11.93
12.79
14.12
15.07
15.03
13.80
11.66
9.22
7.07
5.59
4.82
4.58
4.56
4.56
4.49
4.30
3.87
2.88
0.95
-2.16
-6.31
-10.95
-15.25
-18.60
-20.91
-22.77
-25.13
-28.65
-33.20
-37.72
-40.76
-41.17
-38.80
-34.44
-29.33
-24.34
-19.61
-14.66
-9.10
-3.09
2.56
6.90
9.56
11.06
12.57
15.15
19.07
23.70
28.00
31.27
33.56
35.49
37.55
39.51
40.31
38.53
33.34
25.14
15.62
7.07
1.33
-0.99
-0.70
0.59
1.32
0.65
-1.42
-4.30
-7.45
-10.69
-14.26
-18.53
-23.61
-29.01
-33.65
-36.14
-35.27
-30.65
-22.96
-13.85
-5.43
0.52
3.18
2.94
1.06
-0.89
-1.67
-0.73
1.83
5.43
9.28
12.62
14.90
15.97
16.09
15.80
15.67
15.94
16.33
16.37
15.77
14.76
14.16
14.92
17.50
21.55
25.95
29.43
31.16
31.11
29.92
28.45
27.26
26.41
25.62
24.56
23.18
21.79
20.89
20.95
22.20
24.54
27.65
31.14
34.68
38.11
41.33
44.24
46.42
47.12
45.26
39.86
30.44
17.37
1.96
-13.85
-28.11
-39.40
-47.23
-52.04
-54.83
-56.64
-58.09
-59.14
-59.20
-57.53
-53.73
-48.02
-41.24
-34.57
-29.03
-25.20
-23.04
-22.15
-22.06
-22.50
-23.43
-24.87
-26.68
-28.45
-29.59
-29.53
-27.96
-24.87
-20.58
-15.53
-10.24
-5.16
-0.65
3.04
5.81
7.76
9.16
10.35
11.59
12.94
14.21
15.08
15.27
14.66
13.35
11.60
9.71
7.98
6.64
5.78
5.33
5.04
4.54
3.55
1.99
0.05
-1.94
-3.63
-4.92
-5.97
-7.09
-8.55
-10.47
-12.74
-15.14
-17.50
-19.68
-21.67
-23.39
-24.65
-25.09
-24.32
-22.17
-18.82
-14.95
-11.54
-9.53
-9.45
-11.18
-14.02
-16.95
-19.09
-20.03
-19.96
-19.53
-19.59
-20.87
-23.72
-27.96
-32.72
-36.42
-36.92
-32.10
-20.73
-3.25
17.92
39.05
56.43
67.88
73.44
74.92
74.56
73.78
72.59
70.09
65.53
58.98
51.33
43.64
36.35
29.15
21.44
13.11
4.91
-1.77
-5.58
-5.91
-3.18
1.48
6.72
11.46
15.07
17.27
18.09
17.77
16.74
15.52
14.54
13.95
13.44
12.42
10.22
6.54
1.64
-3.59
-8.08
-11.03
-12.18
-11.93
-11.07
-10.35
-10.14
-10.47
-11.06
-11.63
-12.05
-12.36
-12.71
-13.21
-13.85
-14.52
-15.03
-15.06
-14.33
-12.63
-10.01
-6.90
-4.08
-2.35
-2.19
-3.50
-5.64
-7.78
-9.22
-9.75
-9.57
-9.13
-8.80
-8.64
-8.41
-7.61
-5.81
-2.88
0.90
4.85
8.15
10.22
10.97
10.86
10.65
10.99
12.11
13.79
15.57
17.05
18.06
18.63
18.80
18.61
17.99
17.01
15.89
15.00
14.75
15.38
16.94
19.19
21.73
23.88
24.82
23.66
19.77
13.17
4.67
-4.27
-11.92
-17.00
-19.01
-18.34
-16.00
-13.28
-11.31
-10.95
-12.62
-16.17
-20.97
-25.95
-29.98
-32.26
-32.68
-31.72
-30.14
-28.47
-26.78
-24.72
-21.91
-18.28
-14.21
-10.44
-7.72
-6.51
-6.96
-8.85
-11.75
-14.99
-17.79
-19.25
-18.63
-15.63
-10.63
-4.76
0.47
3.68
4.23
2.39
-0.82
-4.14
-6.68
-8.21
-9.13
-10.09
-11.48
-13.24
-14.84
-15.57
-14.71
-11.67
-6.04
2.22
12.51
23.38
32.75
38.60
39.82
36.84
31.40
25.77
21.56
19.16
17.84
16.51
14.60
12.39
10.79
10.61
12.14
14.98
18.34
21.46
23.74
24.92
25.03
24.29
23.18
22.21
21.70
21.50
21.05
19.59
16.65
12.28
6.93
1.03
-5.22
-11.62
-17.50
-21.39
-21.46
-16.51
-7.04
4.48
14.45
19.67
18.90
13.29
5.62
-1.24
-5.73
-8.06
-9.65
-12.02
-15.77
-20.38
-24.69
-27.69
-29.12
-29.56
-29.98
-31.13
-32.88
-34.25
-33.87
-30.76
-24.94
-17.53
-10.24
-4.58
-1.21
0.30
1.07
2.22
4.19
6.61
8.48
8.86
7.31
4.25
0.63
-2.49
-4.42
-5.04
-4.68
-3.87
-3.10
-2.62
-2.52
-2.67
-2.76
-2.35
-0.97
1.51
4.76
7.88
9.70
9.24
6.11
0.72
-5.83
-12.09
-16.71
-18.81
-18.17
-15.21
-10.79
-5.87
-1.26
2.63
5.68
8.07
10.02
11.70
13.18
14.44
15.45
16.18
16.62
16.72
16.36
15.44
13.91
11.87
9.69
7.82
6.65
6.25
6.27
6.05
4.94
2.68
-0.41
-3.65
-6.27
-7.92
-8.86
-9.79
-11.53
-14.62
-19.09
-24.39
-29.64
-33.81
-36.16
-36.47
-35.10
-32.81
-30.52
-28.91
-28.25
-28.43
-29.08
-29.78
-30.04
-29.23
-26.61
-21.42
-13.22
-2.29
10.25
22.62
32.94
39.75
42.54
41.66
38.16
33.27
28.06
23.21
18.96
15.35
12.34
9.88
7.93
6.38
5.06
3.71
2.11
-0.00
-2.94
-7.07
-12.63
-19.44
-26.68
-32.96
-36.80
-37.22
-34.28
-29.11
-23.46
-18.95
-16.50
-16.11
-17.03
-18.08
-17.98
-15.63
-10.27
-1.92
8.35
18.63
26.89
32.05
34.82
37.94
45.08
59.06
79.98
103.97
123.76
130.77
118.53
85.79
37.88
-14.80
-60.51
-90.52
-102.08
-98.37
-86.10
-71.84
-59.46
-49.67
-41.22
-32.67
-23.43
-13.55
-3.04
8.62
22.22
38.15
55.54
72.20
85.13
91.50
89.54
79.57
64.31
48.49
37.46
35.13
42.40
56.40
71.63
82.21
84.40
78.03
66.04
52.75
41.78
34.84
31.77
31.60
33.67
37.83
43.95
50.94
56.43
57.28
50.81
36.09
14.63
-10.04
-33.59
-52.44
-64.97
-71.71
-74.62
-75.87
-76.77
-77.21
-75.98
-71.81
-64.25
-54.05
-42.68
-31.41
-20.47
-9.12
3.71
18.47
34.37
49.63
62.38
71.56
77.51
81.67
85.97
91.95
100.20
110.09
119.84
127.15
129.79
126.39
116.85
102.28
84.57
65.78
47.75
31.84
18.85
9.02
2.06
-2.82
-6.69
-10.59
-15.13
-20.41
-26.24
-32.78
-40.75
-51.25
-65.08
-82.18
-101.35
-120.77
-138.72
-154.24
-167.08
-177.19
-184.13
-186.90
-184.57
-177.38
-167.75
-160.19
-159.76
-169.68
-189.24
-213.33
-233.90
-243.10
-236.35
-214.01
-180.76
-143.39
-108.09
-78.82
-56.99
-42.21
-33.28
-28.76
-27.07
-26.52
-25.57
-23.28
-19.60
-15.22
-10.97
-7.28
-4.02
-0.86
2.26
4.78
5.84
4.82
1.71
-2.81
-7.80
-12.53
-16.77
-20.72
-24.64
-28.61
-32.45
-35.96
-39.16
-42.20
-45.01
-46.89
-46.40
-41.75
-31.55
-15.37
5.88
30.26
55.72
80.99
106.00
131.44
157.75
184.17
208.61
228.39
241.45
247.20
246.63
241.48
233.32
222.84
210.01
194.57
176.70
157.20
137.09
116.88
96.32
74.64
51.24
26.45
1.69
-20.87
-38.91
-50.84
-56.29
-56.12
-52.02
-45.94
-39.59
-34.05
-29.90
-27.36
-26.42
-26.96
-28.66
-30.98
-33.29
-34.99
-35.80
-35.82
-35.49
-35.33
-35.68
-36.46
-37.29
-37.62
-37.05
-35.56
-33.47
-31.23
-29.16
-27.29
-25.34
-22.93
-19.86
-16.24
-12.53
-9.29
-6.94
-5.57
-5.00
-4.93
-5.15
-5.62
-6.37
-7.30
-8.02
-7.93
-6.47
-3.52
0.43
4.36
7.12
7.97
6.90
4.61
2.16
0.49
0.07
0.84
2.46
4.48
6.58
8.56
10.31
11.76
12.90
13.75
14.31
14.44
13.76
11.76
8.02
2.50
-4.34
-11.70
-18.67
-24.47
-28.54
-30.49
-30.06
-27.21
-22.10
-15.10
-6.63
2.94
13.35
24.37
35.51
45.98
54.73
60.74
63.34
62.38
58.29
51.90
44.33
36.90
30.91
27.49
27.19
29.75
34.11
38.74
42.18
43.55
42.82
40.73
38.31
36.41
35.18
33.99
31.61
26.65
18.01
5.32
-10.93
-29.35
-47.99
-64.77
-78.06
-87.19
-92.77
-96.52
-100.75
-107.47
-117.48
-129.86
-141.97
-150.18
-151.11
-142.82
-125.55
-101.55
-74.00
-45.80
-18.60
7.35
32.55
57.49
82.10
105.76
127.85
148.11
166.53
182.76
195.56
202.79
202.30
193.25
177.23
158.25
141.53
131.30
128.87
132.00
135.86
135.51
128.25
114.64
97.60
80.36
64.73
50.81
37.95
26.16
16.71
11.24
10.17
11.77
12.82
10.64
4.98
-1.65
-5.78
-5.54
-2.50
-1.36
-8.01
-26.83
-59.05
-102.25
-151.28
-199.46
-239.59
-265.16
-271.63
-257.95
-227.68
-188.41
-149.46
-118.67
-100.09
-93.64
-96.98
-108.00
-126.20
-152.07
-184.79
-220.37
-251.73
-270.96
-272.51
-255.28
-222.66
-180.58
-135.33
-92.00
-54.29
-24.65
-4.43
6.63
10.73
11.71
13.72
19.51
29.46
41.93
54.66
66.12
75.80
83.33
87.54
86.38
78.07
62.65
42.91
23.74
10.26
5.80
10.75
22.86
38.70
55.36
71.28
85.98
99.42
111.04
119.57
123.35
121.12
112.78
99.84
85.37
72.97
65.70
64.98
70.26
79.45
89.96
99.91
108.49
115.76
121.75
126.20
128.68
129.12
128.27
127.57
128.69
132.89
140.65
151.09
162.66
173.45
181.59
185.08
181.87
170.66
151.74
127.28
99.91
72.09
45.14
19.41
-5.21
-28.81
-50.91
-70.64
-87.47
-103.00
-119.95
-141.06
-167.19
-197.03
-228.13
-258.20
-285.99
-304.46
-307.61
-293.50
-266.88
-235.57
-205.41
-178.10
-152.33
-125.89
-97.73
-71.57
-49.60
-34.04
-25.17
-20.89
-17.77
-12.87
-4.95
5.55
16.60
26.14
33.50
40.11
48.46
60.01
73.92
87.32
97.04
100.65
98.31
91.73
83.41
75.61
69.60
65.34
62.02
59.38
57.70
58.49
62.47
69.02
76.40
82.58
85.80
85.43
83.34
82.86
88.05
100.12
116.23
130.58
136.98
130.73
110.00
77.52
34.46
-11.79
-51.62
-78.61
-92.61
-97.82
-100.08
-107.03
-121.22
-142.33
-167.24
-192.04
-213.04
-227.32
-227.68
-205.18
-160.69
-104.37
-50.77
-9.97
15.35
28.14
33.37
35.36
35.80
34.14
30.49
26.10
23.30
23.63
26.98
32.20
38.17
43.91
48.66
52.80
58.06
65.64
75.82
87.91
100.67
113.23
125.22
136.83
149.15
163.35
179.42
195.02
205.94
207.70
197.75
176.70
147.93
116.31
86.07
59.15
34.41
10.19
-13.83
-36.44
-55.68
-70.31
-80.80
-89.05
-97.56
-109.27
-126.20
-149.17
-177.72
-209.67
-241.04
-266.00
-277.90
-271.80
-248.18
-212.80
-174.99
-144.01
-125.82
-121.82
-129.43
-144.03
-153.20
-148.45
-127.79
-96.75
-63.67
-34.06
-9.10
12.63
32.64
50.90
64.73
71.31
69.45
60.52
47.62
33.73
19.90
8.03
0.03
-2.48
1.94
13.29
29.30
45.58
57.18
61.06
57.70
50.22
41.80
34.42
28.46
24.01
22.27
24.96
33.40
47.37
64.25
79.55
89.20
91.55
87.88
81.37
75.33
71.89
71.93
75.25
80.53
85.50
86.76
80.60
64.53
39.37
10.11
-15.37
-29.62
-29.33
-17.71
-3.87
1.11
-10.92
-41.77
-86.58
-136.69
-183.53
-221.08
-246.21
-257.69
-255.46
-240.94
-217.94
-192.49
-170.99
-157.54
-151.72
-148.71
-142.04
-126.82
-101.94
-70.18
-36.07
-3.68
24.57
47.68
65.43
78.11
86.78
93.10
98.84
104.64
109.39
111.01
108.00
100.64
91.08
81.79
73.44
64.28
51.41
33.45
12.55
-5.67
-14.62
-10.19
7.09
32.31
59.02
82.53
101.19
115.66
126.89
134.42
136.71
132.64
123.17
111.68
102.59
99.02
101.08
105.73
108.19
104.22
91.93
72.39
48.75
24.61
2.57
-16.16
-31.65
-44.38
-54.69
-62.46
-67.29
-68.98
-67.92
-65.23
-62.54
-61.62
-63.88
-69.89
-79.20
-90.34
-101.11
-109.20
-112.60
-109.96
-100.66
-84.80
-63.38
-38.34
-12.42
11.42
31.06
45.89
56.92
66.00
74.81
84.01
93.20
101.76
109.65
117.55
126.18
135.13
142.33
144.82
140.36
129.00
113.35
97.53
85.14
77.93
75.25
74.77
73.75
69.93
61.77
48.66
31.00
10.57
-8.96
-23.29
-29.18
-26.34
-17.94
-9.60
-6.91
-13.28
-28.62
-48.86
-68.50
-82.47
-87.50
-82.77
-69.56
-50.45
-28.40
-5.84
17.10
40.81
65.37
90.01
113.05
132.81
148.37
159.57
166.31
169.06
166.50
156.40
137.81
112.84
87.25
68.80
64.06
66.11
67.80
62.71
48.91
29.43
9.17
-7.86
-19.66
-25.99
-27.35
-22.62
-9.24
12.07
38.51
64.79
84.33
91.48
83.53
61.51
30.70
-2.55
-33.32
-58.58
-77.28
-90.86
-102.48
-116.11
-135.26
-160.87
-191.04
-221.01
-243.96
-253.62
-246.83
-224.70
-192.52
-157.98
-128.20
-107.75
-97.71
-95.82
-97.89
-99.35
-96.22
-86.00
-68.29
-45.15
-21.11
-2.15
6.26
1.28
-16.28
-42.12
-70.32
-95.94
-116.60
-132.57
-145.14
-154.90
-160.83
-161.39
-156.32
-147.75
-139.45
-134.69
-133.95
-134.22
-130.49
-118.39
-96.54
-66.95
-33.72
-1.03
28.35
53.37
74.01
90.49
102.96
111.70
117.39
121.01
123.36
124.39
123.07
117.90
107.99
93.84
77.63
62.49
51.23
45.14
43.61
44.64
46.04
46.63
46.74
47.80
51.40
58.30
68.02
79.05
89.44
97.32
101.23
100.35
94.57
84.65
72.10
58.78
46.31
35.62
26.75
19.11
11.95
4.78
-2.57
-9.91
-17.04
-23.84
-30.32
-36.54
-42.49
-48.01
-52.74
-56.16
-57.62
-56.60
-52.82
-46.52
-38.53
-30.11
-22.62
-17.09
-13.98
-13.17
-14.30
-16.80
-20.05
-23.25
-25.44
-25.68
-23.41
-18.76
-12.65
-6.45
-1.23
2.83
6.52
11.20
17.89
26.88
37.68
49.48
61.45
73.17
84.56
95.47
105.37
113.35
118.56
120.68
120.14
117.25
112.23
105.12
95.79
84.22
70.64
55.70
40.64
27.03
15.65
6.91
1.05
-2.08
-3.13
-3.59
-5.56
-11.15
-21.69
-38.36
-60.97
-87.57
-115.41
-141.85
-165.60
-187.10
-207.87
-222.61
-226.60
-217.96
-199.14
-175.23
-150.62
-128.35
-110.66
-99.08
-93.91
-94.87
-101.68
-110.33
-116.54
-116.68
-109.07
-93.93
-72.80
-47.44
-19.86
8.77
38.83
69.44
99.90
129.82
159.12
187.63
214.41
236.85
251.50
255.60
248.28
231.66
209.99
187.88
168.24
151.14
133.99
113.69
89.05
61.80
36.14
16.23
3.54
-4.05
-11.10
-21.68
-36.66
-52.87
-65.19
-69.76
-66.44
-59.02
-53.12
-52.89
-58.89
-68.39
-77.57
-84.39
-89.73
-96.01
-104.38
-112.86
-116.16
-107.87
-83.86
-44.06
6.84
61.27
111.86
153.89
185.46
206.68
218.23
220.22
213.09
197.83
176.36
151.73
127.63
106.67
89.85
75.99
59.42
37.79
12.80
-11.65
-32.22
-46.55
-53.60
-55.13
-52.24
-47.75
-45.29
-49.07
-62.69
-88.65
-124.11
-165.59
-207.84
-244.12
-266.38
-267.12
-243.74
-201.68
-154.48
-118.46
-105.82
-118.00
-145.88
-174.39
-190.40
-189.63
-177.33
-163.56
-155.24
-152.26
-141.67
-113.93
-68.93
-17.45
25.10
48.37
51.39
41.72
29.72
23.40
24.31
29.25
34.16
34.65
29.25
19.32
8.98
2.38
2.47
9.50
22.01
37.93
55.56
74.52
91.21
103.76
111.01
113.14
111.41
108.53
107.87
112.03
121.94
136.06
151.62
165.27
174.62
178.69
178.23
174.94
170.44
165.52
159.87
152.83
143.69
132.43
119.62
106.03
92.02
77.28
61.12
43.24
24.52
6.67
-8.27
-18.77
-24.52
-26.51
-26.64
-26.89
-28.64
-32.10
-36.55
-40.84
-43.98
-45.67
-46.37
-46.89
-47.85
-49.12
-49.77
-48.46
-44.17
-36.74
-27.05
-16.61
-6.93
1.00
7.00
11.34
14.42
16.50
17.53
17.26
15.42
11.89
6.82
0.68
-5.76
-11.70
-16.53
-20.18
-23.17
-26.41
-30.63
-35.92
-41.50
-45.99
-48.03
-47.00
-43.26
-38.02
-32.79
-28.73
-26.27
-24.91
-23.56
-20.89
-15.80
-8.03
1.77
11.98
20.44
24.96
24.04
17.52
6.71
-5.90
-17.55
-26.24
-31.65
-35.22
-39.49
-46.84
-58.22
-72.52
-86.80
-97.28
-100.75
-95.48
-81.66
-61.11
-36.62
-11.20
12.44
32.23
46.98
56.43
61.01
61.58
59.09
54.28
47.74
40.09
32.27
25.49
20.94
19.30
20.38
23.15
26.35
29.03
30.68
30.71
27.91
20.35
6.25
-14.61
-39.91
-65.01
-84.44
-93.78
-91.13
-77.27
-55.10
-28.57
-1.91
20.78
35.91
41.36
37.26
26.53
14.16
5.53
4.48
12.18
27.19
46.53
67.14
86.62
103.63
117.61
128.35
135.87
140.41
142.43
142.76
142.24
141.55
141.11
141.02
141.12
141.03
140.10
137.30
131.41
121.39
106.57
87.07
63.85
38.41
12.41
-12.82
-36.63
-59.10
-80.73
-101.89
-122.19
-140.28
-154.28
-162.64
-165.21
-163.63
-160.70
-158.97
-159.20
-159.90
-158.18
-151.64
-140.01
-125.48
-111.54
-100.98
-94.60
-91.03
-87.91
-83.21
-76.02
-66.22
-53.91
-39.08
-21.85
-3.16
15.06
30.38
41.09
47.13
50.14
52.36
55.42
59.41
62.91
63.56
58.93
47.20
27.86
2.31
-25.87
-51.55
-69.67
-77.40
-75.57
-68.36
-61.34
-58.75
-61.81
-68.74
-76.36
-81.83
-83.59
-81.13
-74.34
-63.65
-50.60
-38.31
-30.90
-31.74
-41.38
-56.58
-71.30
-79.22
-76.36
-62.45
-40.63
-15.69
7.82
26.77
39.63
46.10
46.59
41.98
33.73
23.77
14.23
6.91
2.78
1.78
2.97
5.01
6.64
7.11
6.35
4.92
3.79
3.84
5.47
8.30
11.33
13.51
14.47
14.80
15.85
18.96
24.54
31.68
38.45
42.97
44.22
42.69
39.97
38.00
38.20
41.03
46.03
52.35
59.27
66.39
73.52
80.16
85.36
87.72
86.08
80.06
70.49
59.26
48.64
40.55
36.06
35.44
38.45
44.49
52.49
60.37
64.69
60.93
44.83
14.36
-28.64
-78.10
-125.29
-161.69
-182.03
-185.90
-177.30
-162.24
-145.89
-130.74
-116.55
-101.83
-85.77
-69.21
-54.25
-43.09
-36.55
-33.59
-31.96
-29.22
-23.76
-15.36
-4.97
5.91
16.14
25.68
35.79
48.57
65.82
87.46
110.52
129.48
138.08
132.13
111.81
81.91
50.02
23.45
6.80
1.14
5.10
16.38
32.62
51.07
68.02
79.00
80.37
71.35
55.15
38.23
27.40
26.66
35.34
48.28
57.96
57.27
41.85
11.34
-30.52
-76.87
-119.40
-150.57
-165.75
-164.41
-150.04
-128.56
-106.02
-86.68
-72.18
-62.22
-55.69
-51.78
-50.12
-50.29
-51.21
-51.21
-48.67
-43.05
-35.40
-28.08
-23.48
-22.71
-24.90
-27.57
-27.99
-24.54
-17.60
-9.20
-1.94
2.28
3.01
0.99
-2.53
-6.67
-11.09
-15.70
-20.11
-23.32
-23.94
-20.88
-14.04
-4.48
5.99
15.66
23.65
30.08
35.75
41.43
47.42
53.55
59.61
65.92
73.57
83.98
98.06
115.53
134.68
153.03
168.33
179.42
186.48
190.33
191.44
189.07
181.56
167.28
146.12
120.37
94.59
74.25
63.85
65.21
76.34
92.33
106.92
114.72
112.83
101.50
83.43
62.35
41.22
20.08
-3.24
-32.10
-69.24
-115.43
-169.18
-226.82
-282.64
-329.16
-359.50
-367.97
-353.05
-319.37
-277.81
-242.36
-224.56
-227.49
-243.28
-257.88
-257.00
-233.80
-192.14
-144.64
-105.82
-85.62
-85.57
-89.49
-82.04
-54.25
-10.56
34.94
69.00
87.86
96.51
103.78
116.22
133.10
148.31
153.90
144.50
118.43
80.61
39.20
3.19
-19.68
-25.96
-16.43
4.28
32.78
59.73
77.62
83.88
81.27
75.50
70.74
68.02
65.32
59.80
49.88
37.39
26.15
19.96
20.77
28.15
38.88
48.98
55.47
57.36
55.93
53.77
53.43
56.43
62.73
71.16
80.48
89.91
99.09
107.20
112.30
111.55
102.37
83.91
57.74
27.57
-4.68
-35.17
-61.31
-82.57
-99.74
-113.56
-123.75
-129.20
-128.95
-123.49
-114.88
-106.66
-102.05
-102.16
-105.30
-107.48
-104.36
-93.30
-74.53
-50.57
-25.28
-1.93
18.06
34.96
49.71
62.81
73.83
81.82
86.17
86.79
84.43
80.46
76.40
73.39
71.58
69.96
66.66
59.82
48.57
33.79
18.03
4.53
-4.30
-7.77
-6.91
-3.57
0.80
5.61
10.99
17.14
23.79
30.13
35.21
38.29
39.11
37.68
33.96
27.63
18.19
5.36
-10.39
-27.42
-43.06
-54.36
-59.10
-56.60
-48.02
-35.75
-22.52
-10.39
-0.33
7.71
14.28
20.07
25.75
32.01
39.54
48.67
59.02
69.41
78.14
83.74
85.68
84.57
81.89
79.23
77.63
77.14
77.01
76.11
73.60
69.38
63.94
58.06
52.43
47.48
43.47
40.71
39.59
40.42
43.16
47.18
51.35
54.43
55.58
54.64
52.06
48.47
44.41
40.27
36.56
34.13
34.05
37.15
43.30
51.22
58.80
63.99
65.74
64.40
61.42
58.24
55.31
51.52
44.49
31.46
10.37
-19.42
-56.87
-99.44
-143.64
-185.43
-220.92
-246.96
-261.75
-265.11
-258.35
-243.77
-223.98
-201.45
-178.40
-156.88
-138.80
-125.66
-118.22
-116.14
-118.15
-122.42
-127.23
-131.17
-133.31
-133.03
-129.90
-123.77
-115.01
-104.49
-93.30
-82.35
-71.90
-61.41
-49.81
-36.10
-19.95
-2.00
16.13
32.51
45.46
54.25
59.18
61.46
62.60
63.96
66.46
70.54
76.25
83.26
90.87
98.02
103.55
106.54
106.63
104.12
99.71
94.13
87.86
81.14
74.12
67.11
60.58
55.04
50.81
47.87
45.92
44.48
42.95
40.77
37.39
32.42
25.73
17.45
8.02
-1.96
-11.81
-20.66
-27.50
-31.20
-30.83
-26.17
-18.10
-8.51
0.52
7.52
12.13
14.76
15.79
15.12
12.63
9.34
8.08
13.00
27.67
52.97
86.14
121.80
154.26
179.76
197.07
206.42
207.69
199.50
180.05
148.77
107.80
61.70
15.48
-27.68
-67.78
-107.70
-151.55
-202.45
-260.73
-323.20
-383.46
-433.51
-466.05
-476.67
-465.14
-435.26
-393.14
-344.72
-293.90
-241.80
-187.46
-129.11
-65.53
3.15
75.07
146.75
213.47
270.11
312.28
337.59
346.25
340.55
323.81
299.26
269.62
237.49
205.79
177.81
156.33
142.60
135.78
133.42
132.75
131.96
130.70
129.57
129.14
129.00
127.27
121.10
107.52
84.60
52.32
13.03
-28.92
-68.26
-100.25
-122.03
-133.18
-135.32
-130.96
-122.38
-110.96
-97.30
-81.68
-64.58
-46.82
-29.24
-12.36
3.91
20.15
37.14
55.46
75.11
95.35
114.90
132.30
146.19
155.47
159.20
156.42
146.15
127.75
101.42
68.63
32.13
-4.63
-38.26
-66.26
-87.44
-101.83
-110.29
-114.22
-115.08
-114.14
-112.27
-109.86
-106.86
-103.13
-98.48
-92.89
-86.41
-79.08
-70.90
-62.02
-52.67
-43.04
-33.10
-22.38
-10.18
3.97
19.88
36.53
52.32
65.77
76.03
83.05
87.46
89.92
90.86
90.37
88.35
84.86
80.33
75.38
70.67
66.54
62.92
59.34
55.12
49.52
42.12
32.86
21.93
9.74
-3.09
-15.82
-27.73
-38.23
-46.95
-53.68
-58.24
-60.38
-59.82
-56.58
-51.32
-45.62
-41.92
-43.20
-51.97
-69.30
-94.03
-122.99
-152.02
-177.28
-196.27
-208.15
-213.55
-213.90
-210.80
-205.46
-198.60
-190.33
-180.10
-166.89
-149.69
-128.25
-103.64
-78.24
-55.04
-36.26
-22.49
-12.45
-3.93
5.02
15.38
27.07
39.48
52.06
64.41
76.01
85.73
91.84
92.73
87.80
78.03
65.60
52.83
41.10
30.48
20.37
10.56
2.12
-2.90
-2.58
3.56
14.07
26.06
36.53
43.47
46.28
45.25
40.83
33.14
22.00
7.50
-9.61
-27.70
-44.58
-58.12
-66.81
-70.24
-69.21
-65.42
-60.90
-57.26
-55.11
-53.78
-51.70
-47.21
-39.52
-29.20
-18.12
-8.52
-1.96
1.28
2.17
2.10
2.02
2.02
1.55
0.11
-2.24
-5.15
-8.62
-13.51
-21.58
-34.48
-52.30
-72.66
-91.29
-103.71
-107.11
-101.31
-88.18
-70.55
-50.63
-29.07
-5.13
21.67
49.95
76.28
96.81
110.00
117.25
122.38
129.36
140.30
154.31
168.28
179.13
185.76
190.00
194.26
199.14
202.03
198.58
184.87
159.62
124.77
80.73
32.96
-10.28
-42.15
-60.99
-69.58
-72.49
-73.93
-77.15
-84.43
-96.18
-111.90
-127.96
-139.55
-141.54
-130.36
-105.74
-71.37
-32.20
2.15
24.56
33.49
32.02
25.37
17.99
12.12
8.02
5.13
3.29
3.41
6.36
12.01
20.26
29.83
39.63
49.39
59.70
71.57
85.96
102.33
117.93
128.77
131.55
125.31
112.12
96.14
81.83
72.38
68.63
69.51
71.66
73.24
73.79
73.67
73.10
71.35
67.06
58.84
46.14
29.79
12.02
-4.43
-17.33
-25.78
-30.45
-33.12
-36.05
-41.14
-49.41
-60.68
-73.97
-87.91
-101.05
-112.02
-119.66
-123.23
-122.73
-119.08
-113.97
-109.41
-107.03
-107.32
-109.44
-111.44
-111.07
-106.61
-97.56
-84.63
-69.48
-54.09
-40.06
-28.10
-17.80
-7.77
3.76
18.19
35.77
55.28
74.29
89.98
100.15
103.95
101.97
95.81
87.29
77.99
69.00
61.10
54.86
50.64
48.42
47.67
47.45
46.86
45.32
42.83
39.82
36.88
34.56
33.31
33.47
35.37
39.17
44.78
51.79
59.53
67.27
74.45
80.69
85.75
89.35
91.17
91.10
89.51
87.42
86.34
87.74
92.43
100.11
109.46
118.72
126.53
132.44
137.05
141.51
146.75
152.82
158.51
161.62
159.52
150.07
132.29
106.80
75.70
41.84
7.89
-24.54
-55.43
-85.97
-117.68
-151.09
-185.10
-217.22
-244.54
-264.71
-276.34
-278.96
-273.10
-260.30
-243.19
-224.85
-207.71
-192.25
-176.64
-157.69
-132.97
-102.65
-69.97
-39.84
-16.62
-2.39
3.27
2.06
-4.54
-15.88
-31.39
-49.65
-68.00
-83.11
-92.45
-95.18
-92.66
-87.84
-84.26
-84.90
-91.38
-103.74
-120.32
-137.89
-152.09
-158.22
-152.58
-133.70
-103.69
-67.89
-33.34
-5.99
11.58
20.91
26.23
31.64
38.60
44.86
46.03
38.33
20.79
-4.18
-31.95
-57.53
-76.92
-87.54
-88.70
-80.82
-65.34
-44.46
-21.05
2.00
22.60
39.68
52.97
61.00
61.89
53.86
36.55
11.60
-17.43
-45.74
-68.43
-81.81
-86.16
-84.04
-78.77
-72.89
-67.47
-62.42
-56.78
-49.18
-38.38
-26.10
-15.09
-7.99
-6.36
-10.79
-21.59
-38.73
-61.70
-75.74
-69.53
-39.71
6.07
55.28
98.57
132.44
157.59
175.96
189.60
197.53
198.30
191.62
179.38
164.77
150.70
138.86
128.49
119.30
109.24
96.72
81.62
65.49
50.45
37.84
27.77
18.97
10.40
0.51
-11.58
-25.73
-41.25
-57.91
-77.00
-97.54
-121.17
-150.00
-186.56
-232.09
-285.02
-340.14
-389.25
-423.33
-435.52
-424.12
-392.40
-347.62
-297.87
-249.35
-204.99
-165.09
-128.98
-96.36
-68.08
-44.64
-25.47
-8.60
8.56
27.90
49.64
72.36
93.70
111.52
125.29
136.29
147.18
160.83
179.40
203.70
232.74
263.87
293.22
316.72
331.14
334.97
328.70
314.65
296.09
276.03
256.34
237.41
218.61
199.23
179.23
159.45
141.38
126.64
115.73
107.64
100.18
91.10
79.35
65.76
52.55
42.37
37.62
38.32
41.89
44.27
42.15
34.70
23.80
12.98
5.88
6.62
16.49
33.46
53.02
70.40
82.52
88.52
89.46
87.56
87.91
93.57
104.21
116.77
127.87
136.10
141.83
145.95
148.76
153.25
160.73
170.39
180.28
189.28
198.07
207.95
219.58
209.30
165.79
94.49
13.98
-58.44
-115.19
-155.90
-182.88
-198.30
-203.98
-198.53
-183.19
-163.18
-144.86
-134.86
-135.38
-144.24
-156.68
-167.98
-172.70
-169.01
-159.04
-146.92
-135.95
-126.72
-118.33
-109.37
-100.13
-90.38
-80.60
-71.64
-64.18
-58.41
-53.65
-49.26
-45.00
-41.07
-36.82
-31.78
-26.02
-20.16
-14.89
-10.38
-6.40
-2.60
0.97
4.26
6.90
8.45
8.70
7.84
6.52
5.39
4.77
4.54
4.35
3.90
2.97
1.31
-1.51
-5.99
-12.46
-20.59
-29.21
-36.58
-41.08
-41.97
-39.75
-35.77
-31.53
-27.97
-25.29
-23.18
-21.30
-19.61
-18.31
-17.66
-17.76
-18.41
-19.23
-19.80
-19.77
-19.02
-17.66
-16.01
-14.34
-12.65
-10.53
-7.30
-2.47
3.89
10.95
17.41
22.03
24.04
23.40
20.61
16.48
11.91
7.74
4.70
3.34
3.84
5.84
8.46
10.55
11.05
9.48
6.06
1.55
-3.13
-7.18
-10.21
-12.10
-12.88
-12.58
-11.20
-8.80
-5.64
-2.15
1.20
4.02
6.16
7.59
8.34
8.49
8.19
7.74
7.49
7.68
8.24
8.82
8.95
8.33
7.05
5.49
4.12
3.15
2.45
1.68
0.62
-0.63
-1.71
-2.15
-1.68
-0.40
1.23
2.53
2.80
1.63
-0.91
-4.17
-7.07
-8.63
-8.32
-6.43
-3.97
-2.19
-2.02
-3.61
-6.42
-9.53
-12.15
-13.85
-14.65
-14.76
-14.40
-13.74
-12.84
-11.83
-10.82
-9.90
-9.11
-8.54
-8.49
-9.47
-11.98
-16.20
-21.62
-27.12
-31.27
-33.10
-32.60
-30.92
-29.91
-31.31
-35.86
-42.88
-50.31
-55.11
-53.89
-43.91
-24.19
3.30
33.42
59.01
73.16
72.16
57.18
33.71
9.10
-10.29
-20.66
-21.14
-13.18
-0.07
13.88
24.48
28.62
24.83
13.42
-4.12
-26.22
-51.89
-80.74
-111.00
-137.46
-151.81
-145.62
-114.24
-59.74
8.93
78.35
134.35
166.60
171.80
153.49
119.15
77.12
33.90
-6.98
-38.82
-55.07
-53.02
-35.39
-7.96
23.19
53.40
79.11
97.56
106.98
107.26
99.07
86.76
74.84
65.37
58.39
52.65
46.01
35.90
20.82
0.89
-22.37
-42.71
-57.44
-66.10
-69.75
-63.01
-44.67
-17.79
11.81
39.32
62.97
81.95
93.41
98.51
96.97
86.94
67.34
38.67
2.40
-35.65
-72.72
-107.73
-140.73
-173.47
-209.12
-250.72
-300.16
-357.16
-418.41
-478.32
-528.81
-561.32
-570.64
-557.25
-526.68
-487.19
-446.43
-408.90
-375.89
-345.91
-316.57
-286.84
-257.30
-228.93
-201.86
-174.90
-146.04
-114.00
-78.58
-40.89
-3.33
31.55
61.98
87.64
109.72
130.26
151.11
173.29
196.60
219.79
241.48
260.90
278.23
294.10
308.58
320.71
328.90
331.82
329.28
322.39
312.87
302.16
290.76
278.32
264.29
248.82
233.15
219.30
209.11
203.00
199.45
195.44
187.69
174.20
155.18
132.90
110.52
90.67
74.27
60.68
48.61
37.35
27.59
21.03
19.21
22.23
28.43
35.20
40.47
43.76
46.18
49.58
55.27
63.04
71.22
77.43
79.56
76.71
69.49
59.65
49.33
40.29
33.59
29.60
28.02
28.13
29.07
30.08
30.62
30.26
28.58
25.53
21.71
18.15
15.65
14.24
13.03
10.86
7.22
2.71
-1.38
-4.08
-5.55
-6.82
-8.61
-10.46
-10.77
-8.22
-3.40
0.77
0.64
-5.85
-17.48
-30.41
-40.38
-44.96
-44.59
-41.59
-38.47
-36.48
-35.25
-33.53
-30.06
-24.22
-15.96
-5.66
5.86
17.25
26.75
32.72
34.29
31.74
26.28
19.57
13.19
8.32
5.75
5.98
9.21
15.17
22.93
30.94
37.38
40.67
40.10
36.03
29.98
24.11
20.53
20.47
23.68
28.52
32.85
35.21
35.69
35.82
37.07
38.75
37.23
27.16
4.82
-28.52
-65.64
-96.29
-112.77
-114.47
-108.09
-103.34
-106.75
-117.82
-130.12
-136.49
-134.37
-127.34
-122.07
-123.01
-128.65
-132.50
-127.72
-112.33
-91.21
-73.36
-66.52
-72.58
-86.59
-99.79
-104.45
-97.29
-79.90
-56.53
-30.90
-4.50
22.87
51.06
77.96
99.69
112.38
114.49
107.75
96.36
84.82
75.97
70.54
67.81
66.71
66.73
67.89
70.04
72.42
73.72
72.72
69.07
63.63
57.93
53.32
50.22
47.97
45.30
41.07
34.83
26.93
18.23
9.71
2.26
-3.31
-6.35
-6.51
-4.01
0.35
5.43
10.23
14.13
16.96
18.67
19.16
18.35
16.44
14.11
12.33
11.98
13.11
14.85
15.74
14.66
11.43
6.90
2.58
-0.00
0.20
3.37
8.74
14.80
19.81
22.42
22.19
19.97
17.88
18.98
25.92
39.66
58.76
79.58
97.15
106.50
103.73
86.96
57.79
20.30
-19.85
-56.72
-85.04
-101.41
-105.01
-97.73
-83.11
-62.74
-37.56
-8.40
23.18
54.88
83.90
107.38
123.25
130.93
134.85
139.77
148.45
160.33
173.18
184.70
193.42
198.72
200.46
202.75
208.52
218.24
229.99
242.26
255.30
270.76
290.21
287.64
247.89
171.96
77.38
-14.77
-90.67
-145.92
-182.21
-204.13
-217.23
-222.68
-221.86
-215.20
-207.01
-200.50
-196.57
-194.26
-192.31
-190.15
-184.67
-173.73
-156.94
-136.30
-114.66
-95.42
-81.91
-76.97
-82.02
-94.22
-109.10
-122.39
-131.56
-135.20
-132.56
-123.38
-108.33
-89.44
-69.16
-50.72
-37.09
-29.81
-27.84
-28.33
-28.36
-26.64
-23.81
-21.20
-19.69
-18.99
-17.95
-15.35
-10.77
-4.89
0.98
5.65
8.41
9.10
7.94
5.26
1.48
-2.89
-7.35
-11.51
-15.12
-18.03
-20.02
-20.76
-19.91
-17.44
-13.75
-9.74
-6.42
-4.59
-4.46
-5.72
-7.75
-10.02
-12.30
-14.67
-17.28
-20.13
-23.02
-25.62
-27.59
-28.76
-29.14
-28.90
-28.31
-27.62
-27.09
-26.88
-26.98
-27.21
-27.25
-26.77
-25.55
-23.61
-21.18
-18.53
-15.92
-13.46
-11.20
-9.16
-7.40
-6.04
-5.14
-4.66
-4.42
-4.16
-3.61
-2.61
-1.17
0.58
2.39
4.06
5.41
6.35
6.82
6.82
6.32
5.35
3.98
2.39
0.80
-0.60
-1.72
-2.64
-3.56
-4.74
-6.37
-8.50
-11.07
-13.87
-16.57
-18.72
-19.84
-19.54
-17.66
-14.37
-10.08
-5.34
-0.64
3.72
7.60
10.93
13.59
15.43
16.30
16.19
15.30
14.02
12.72
11.69
11.01
10.66
10.54
10.59
10.72
10.86
10.85
10.48
9.59
8.12
6.19
4.07
2.04
0.28
-1.18
-2.48
-3.81
-5.36
-7.25
-9.49
-12.00
-14.61
-17.04
-18.91
-19.83
-19.50
-17.82
-15.05
-11.65
-8.24
-5.34
-3.23
-1.90
-1.16
-0.77
-0.60
-0.66
-1.03
-1.75
-2.77
-3.87
-4.84
-5.56
-6.08
-6.66
-7.59
-9.11
-11.29
-14.08
-17.44
-21.44
-26.08
-31.03
-35.45
-38.18
-38.25
-35.63
-31.48
-27.89
-27.04
-30.24
-37.44
-47.43
-58.49
-69.05
-77.97
-84.40
-87.59
-87.02
-82.71
-75.65
-67.84
-61.88
-60.11
-63.74
-72.18
-82.92
-92.13
-95.71
-90.52
-75.19
-50.30
-17.91
19.12
57.85
95.47
129.40
157.39
177.81
190.09
195.00
194.45
190.82
186.23
182.02
178.74
176.26
173.90
170.52
164.73
155.28
141.50
123.62
102.59
79.78
56.57
34.14
13.49
-4.44
-18.89
-29.49
-36.42
-40.37
-42.21
-42.63
-41.98
-40.38
-37.96
-35.00
-31.86
-28.78
-25.82
-22.95
-20.23
-17.93
-16.34
-15.59
-15.46
-15.39
-14.70
-12.81
-9.50
-4.90
0.51
6.06
11.08
14.98
17.46
18.43
18.00
16.35
13.64
10.06
5.83
1.31
-3.07
-6.94
-10.10
-12.58
-14.56
-16.26
-17.87
-19.58
-21.52
-23.79
-26.30
-28.75
-30.67
-31.64
-31.49
-30.34
-28.64
-26.81
-25.20
-23.91
-22.86
-21.89
-20.82
-19.51
-17.86
-15.85
-13.62
-11.47
-9.80
-8.96
-9.02
-9.82
-10.97
-12.10
-13.06
-13.95
-15.01
-16.42
-18.14
-19.90
-21.35
-22.21
-22.46
-22.34
-22.17
-22.30
-22.99
-24.45
-26.91
-30.53
-35.17
-40.26
-44.80
-47.62
-47.78
-44.97
-39.55
-32.45
-24.63
-16.81
-9.28
-2.05
4.92
11.42
17.02
21.17
23.48
23.80
22.24
19.01
14.45
9.18
4.32
1.43
2.11
7.28
16.50
27.88
38.68
46.42
49.80
49.13
45.82
41.53
37.37
33.67
30.31
27.17
24.42
22.25
20.59
18.78
15.81
10.80
3.52
-5.42
-14.76
-23.14
-29.58
-33.72
-35.71
-35.94
-34.74
-32.34
-28.93
-24.72
-20.07
-15.35
-10.87
-6.80
-3.17
0.06
2.87
5.24
7.15
8.65
9.85
10.88
11.82
12.73
13.63
14.56
15.51
16.38
17.03
17.27
17.00
16.28
15.30
14.28
13.35
12.41
11.29
9.84
8.08
6.24
4.59
3.28
2.25
1.25
0.02
-1.55
-3.36
-5.21
-6.89
-8.35
-9.70
-11.13
-12.81
-14.73
-16.68
-18.28
-19.10
-18.79
-17.22
-14.51
-11.01
-7.10
-3.09
0.83
4.61
8.18
11.42
14.13
16.12
17.33
17.84
17.84
17.50
17.00
16.40
15.77
15.14
14.53
13.95
13.35
12.70
11.92
10.99
9.95
8.88
7.88
7.06
6.41
5.85
5.23
4.38
3.21
1.77
0.23
-1.20
-2.41
-3.44
-4.51
-5.86
-7.66
-9.89
-12.34
-14.71
-16.67
-18.00
-18.61
-18.53
-17.88
-16.77
-15.23
-13.18
-10.54
-7.29
-3.58
0.27
3.84
6.78
8.95
10.47
11.60
12.59
13.53
14.30
14.69
14.57
14.00
13.28
12.75
12.69
13.14
13.96
14.90
15.74
16.33
16.62
16.60
16.20
15.38
14.12
12.47
10.60
8.68
6.80
4.93
2.97
0.79
-1.59
-4.05
-6.39
-8.42
-10.13
-11.66
-13.22
-14.95
-16.82
-18.65
-20.13
-20.96
-20.93
-19.91
-17.92
-15.11
-11.77
-8.31
-5.18
-2.76
-1.15
-0.15
0.71
1.96
4.01
6.93
10.39
13.82
16.57
18.19
18.53
17.76
16.28
14.53
12.83
11.32
10.02
8.89
7.87
6.97
6.15
5.31
4.30
2.96
1.29
-0.59
-2.48
-4.18
-5.65
-6.99
-8.38
-9.95
-11.68
-13.44
-15.04
-16.42
-17.62
-18.75
-19.87
-20.88
-21.54
-21.58
-20.85
-19.41
-17.44
-15.19
-12.76
-10.08
-7.00
-3.47
0.27
3.74
6.34
7.66
7.73
7.01
6.20
5.89
6.32
7.27
8.29
8.91
8.92
8.39
7.63
6.93
6.45
6.15
5.83
5.30
4.47
3.41
2.28
1.29
0.50
-0.15
-0.85
-1.81
-3.13
-4.72
-6.34
-7.76
-8.85
-9.69
-10.48
-11.41
-12.58
-13.91
-15.24
-16.43
-17.42
-18.28
-19.06
-19.76
-20.22
-20.21
-19.46
-17.83
-15.25
-11.85
-7.86
-3.66
0.32
3.68
6.20
7.88
8.94
9.71
10.43
11.13
11.67
11.78
11.22
9.95
8.06
5.79
3.50
1.63
0.73
1.34
3.75
7.79
12.65
17.07
19.78
19.98
17.71
13.76
9.25
5.05
1.50
-1.54
-4.34
-6.96
-9.09
-10.33
-10.46
-9.58
-7.96
-5.82
-3.06
0.55
5.11
10.26
15.18
18.85
20.52
20.01
17.68
14.13
9.85
5.06
-0.21
-5.93
-11.88
-17.64
-22.78
-27.09
-30.61
-33.59
-36.28
-38.76
-40.85
-42.17
-42.28
-40.81
-37.52
-32.32
-25.17
-16.13
-5.31
6.97
20.21
33.74
46.89
59.09
69.96
79.25
86.84
92.60
96.52
98.76
99.69
99.86
99.85
100.12
100.77
101.62
102.17
101.84
100.03
96.33
90.53
82.65
72.93
61.80
49.76
37.26
24.69
12.42
0.83
-9.81
-19.30
-27.68
-35.12
-41.85
-48.01
-53.55
-58.39
-62.45
-65.88
-68.95
-71.99
-75.12
-78.21
-80.84
-82.33
-81.90
-78.92
-73.20
-65.33
-56.67
-48.97
-43.67
-41.20
-40.61
-40.03
-37.54
-32.09
-23.99
-14.64
-5.89
0.76
4.75
6.61
7.81
10.27
15.78
25.36
38.89
55.10
71.88
86.86
98.00
103.92
104.17
99.14
89.93
78.18
65.55
53.12
40.85
27.50
11.22
-9.42
-34.57
-62.99
-92.47
-120.42
-144.49
-162.94
-174.65
-179.02
-176.15
-167.11
-153.91
-139.00
-124.18
-109.81
-94.63
-76.53
-54.05
-27.49
0.90
27.97
51.31
70.27
85.87
99.48
111.29
119.60
121.61
115.36
101.45
83.41
66.23
54.30
49.65
51.52
57.13
63.42
68.34
71.43
73.48
76.05
80.95
90.11
105.17
126.76
153.83
183.01
208.92
225.25
226.57
210.19
177.36
133.21
85.53
42.72
11.58
-4.25
-4.78
6.82
25.41
45.17
60.65
67.58
63.42
47.92
23.38
-5.59
-33.16
-53.77
-63.84
-62.81
-53.06
-39.00
-25.62
-17.23
-16.83
-26.24
-46.42
-77.49
-118.21
-165.21
-212.72
-253.37
-280.00
-287.93
-276.46
-248.99
-211.57
-170.72
-131.52
-96.71
-66.94
-41.63
-19.65
0.12
18.46
35.32
49.38
58.04
58.07
47.06
24.88
-5.71
-39.56
-70.70
-94.22
-107.52
-110.49
-104.76
-92.64
-76.40
-58.01
-39.31
-22.15
-8.27
1.17
5.97
7.02
5.83
3.85
1.74
-0.90
-5.34
-13.01
-24.81
-40.54
-58.88
-77.65
-94.42
-107.01
-114.00
-114.92
-110.32
-101.53
-90.30
-78.37
-67.07
-57.07
-48.56
-41.45
-35.59
-30.76
-26.49
-21.79
-15.39
-6.19
6.02
20.26
34.59
46.94
56.01
61.84
65.76
69.71
75.42
83.60
93.78
104.32
112.97
117.31
115.44
106.59
91.43
72.10
51.61
32.86
17.64
5.95
-3.88
-14.44
-27.95
-45.02
-64.18
-82.21
-95.11
-99.41
-92.90
-75.10
-47.07
-11.11
29.66
71.69
111.40
145.72
172.49
190.62
199.96
200.88
193.82
179.17
157.41
129.25
95.73
57.86
15.92
-30.91
-84.30
-145.39
-213.02
-282.41
-345.36
-392.37
-415.84
-412.77
-385.70
-341.32
-287.83
-232.29
-179.35
-131.48
-89.93
-55.54
-28.78
-9.34
4.03
13.13
19.52
23.91
26.21
26.16
23.92
20.40
16.94
14.68
14.07
14.84
16.38
18.20
20.21
22.66
25.98
30.40
35.90
42.21
49.02
56.01
62.94
69.44
74.94
78.73
80.20
79.13
75.88
71.42
66.95
63.49
61.58
61.07
61.38
61.73
61.47
60.19
57.74
54.09
49.28
43.35
36.43
28.77
20.67
12.53
4.76
-2.21
-7.85
-11.63
-13.03
-11.76
-7.93
-2.04
5.12
12.71
20.00
26.48
31.76
35.58
37.72
38.17
37.17
35.36
33.58
32.63
32.95
34.42
36.47
38.22
38.90
38.02
35.56
31.96
28.01
24.58
22.39
21.78
22.57
24.15
25.69
26.47
26.05
24.35
21.60
18.10
14.13
9.88
5.51
1.15
-2.99
-6.74
-9.90
-12.34
-13.91
-14.49
-13.92
-12.02
-8.65
-3.71
2.72
10.26
18.17
25.39
30.79
33.57
33.54
31.25
27.81
24.47
22.18
21.37
21.96
23.57
25.76
28.10
30.20
31.70
32.30
31.92
30.71
28.94
26.83
24.31
21.01
16.45
10.41
3.15
-4.51
-11.46
-16.72
-19.75
-20.70
-20.28
-19.49
-19.34
-20.54
-23.35
-27.62
-32.84
-38.29
-43.28
-47.23
-49.82
-50.94
-50.69
-49.16
-46.42
-42.52
-37.57
-31.94
-26.29
-21.46
-18.17
-16.81
-17.20
-18.73
-20.77
-22.96
-25.40
-28.50
-32.61
-37.60
-42.61
-46.04
-45.87
-40.02
-26.84
-5.62
23.02
56.96
92.68
125.86
152.33
169.07
174.99
171.09
160.11
145.58
130.74
117.75
107.31
98.88
91.28
83.38
74.52
64.50
53.25
40.63
26.17
9.23
-10.75
-33.74
-58.81
-83.97
-106.39
-122.99
-131.37
-130.73
-122.27
-108.93
-94.32
-81.35
-71.20
-63.09
-55.03
-45.02
-32.23
-17.53
-3.17
8.23
14.93
17.01
16.51
16.80
21.16
31.36
46.82
64.92
82.07
95.21
102.88
105.41
104.32
101.38
97.80
94.06
89.94
84.66
76.99
65.21
47.45
22.33
-10.23
-48.39
-88.44
-125.59
-155.34
-174.60
-182.27
-178.97
-166.33
-146.27
-120.84
-92.33
-63.50
-37.26
-15.91
-0.23
10.95
20.30
30.82
44.46
61.26
79.48
96.48
110.00
118.88
123.27
124.08
122.17
117.88
110.88
100.46
86.16
68.15
47.24
24.58
1.21
-22.15
-45.05
-66.95
-87.00
-104.01
-116.71
-124.15
-125.98
-122.46
-114.24
-102.11
-86.98
-70.06
-52.92
-37.32
-24.71
-15.65
-9.53
-4.78
0.46
7.55
16.92
28.25
41.08
55.25
71.09
88.77
107.59
125.47
139.00
144.37
138.40
119.71
89.33
50.69
8.90
-30.71
-64.02
-89.12
-106.34
-117.31
-123.59
-125.66
-122.92
-114.67
-101.21
-84.31
-66.73
-50.97
-38.32
-28.55
-20.34
-12.08
-2.46
9.26
23.20
38.83
55.04
70.37
83.62
94.32
102.91
110.25
116.69
121.46
122.67
118.22
106.75
88.37
64.38
36.51
6.21
-25.53
-57.79
-89.15
-117.39
-139.83
-153.95
-158.28
-152.89
-139.41
-120.75
-100.39
-81.64
-66.85
-56.93
-51.07
-47.13
-42.36
-34.39
-21.96
-5.06
15.35
38.15
62.49
87.87
113.69
138.75
160.96
177.39
184.95
181.00
163.92
133.62
91.90
42.55
-8.96
-56.30
-93.88
-118.43
-130.08
-131.99
-128.90
-125.11
-123.05
-123.04
-123.71
-123.10
-119.63
-112.68
-102.41
-89.31
-73.62
-55.27
-34.17
-10.06
17.09
46.58
76.58
104.50
127.75
144.75
154.84
157.65
153.02
140.49
119.38
89.18
50.62
6.64
-37.59
-76.87
-108.14
-131.04
-147.27
-159.06
-167.63
-172.35
-171.06
-161.19
-139.29
-107.50
-73.43
-45.84
-29.01
-21.36
-18.27
-15.44
-8.23
3.68
18.49
33.80
47.17
56.45
60.11
57.76
46.93
28.84
6.20
-17.74
-39.31
-54.29
-57.99
-46.05
-15.81
32.42
95.06
164.56
231.30
286.31
323.58
341.17
340.79
326.49
303.17
275.35
245.34
213.40
178.81
141.39
102.41
64.36
29.96
0.98
-22.01
-39.83
-53.68
-64.33
-71.83
-75.91
-76.74
-75.42
-73.78
-73.45
-75.24
-78.68
-82.38
-84.67
-84.57
-82.20
-78.76
-75.91
-75.06
-76.84
-80.82
-85.64
-89.36
-90.02
-86.12
-77.06
-63.38
-46.81
-29.80
-15.00
-4.48
0.88
1.47
-1.27
-5.52
-9.61
-12.44
-13.55
-12.93
-10.81
-7.54
-3.57
0.51
4.06
6.55
7.75
7.81
7.17
6.32
5.55
4.85
3.94
2.49
0.29
-2.66
-6.05
-9.49
-12.62
-15.27
-17.55
-19.80
-22.51
-26.12
-30.85
-36.53
-42.70
-48.73
-54.04
-58.33
-61.62
-64.12
-66.09
-67.63
-68.62
-68.81
-68.04
-66.40
-64.26
-62.16
-60.49
-59.28
-58.06
-56.01
-52.19
-45.74
-35.99
-22.46
-5.00
16.03
39.49
63.53
85.93
104.75
119.04
128.99
135.68
140.31
143.45
144.79
143.32
138.10
128.97
116.83
103.44
90.78
80.31
72.45
66.50
60.99
54.40
45.93
35.96
25.93
17.60
12.26
10.08
9.99
10.31
9.50
6.82
2.44
-2.92
-8.56
-14.19
-19.86
-25.62
-31.23
-36.00
-39.12
-40.15
-39.47
-38.36
-38.54
-41.47
-47.66
-56.33
-65.76
-74.06
-79.99
-83.27
-84.27
-83.43
-80.83
-76.24
-69.59
-61.38
-52.75
-45.02
-39.04
-34.89
-31.96
-29.32
-26.28
-22.63
-18.71
-15.23
-12.92
-12.26
-13.26
-15.36
-17.64
-19.19
-19.52
-18.76
-17.49
-16.29
-15.45
-14.80
-14.04
-12.98
-11.79
-10.75
-10.08
-9.70
-9.35
-8.75
-7.85
-6.82
-5.89
-5.18
-4.56
-3.74
-2.47
-0.70
1.32
3.24
4.73
5.74
6.39
6.87
7.27
7.50
7.46
7.19
7.07
7.60
9.17
11.73
14.69
17.08
17.91
16.59
13.09
8.00
2.23
-3.23
-7.56
-10.24
-11.00
-9.84
-6.96
-2.82
1.93
6.53
10.23
12.60
13.57
13.49
12.93
12.45
12.38
12.76
13.40
13.99
14.21
13.83
12.76
11.00
8.69
6.08
3.48
1.19
-0.53
-1.59
-2.02
-1.96
-1.65
-1.36
-1.35
-1.76
-2.63
-3.89
-5.38
-6.94
-8.46
-9.98
-11.66
-13.77
-16.51
-19.87
-23.49
-26.68
-28.63
-28.71
-26.72
-22.94
-17.96
-12.40
-6.76
-1.32
3.66
7.90
11.10
13.04
13.77
13.65
13.22
12.98
13.23
13.97
15.02
16.17
17.27
18.29
19.25
20.12
20.82
21.13
20.84
19.77
17.89
15.33
12.39
9.40
6.60
4.06
1.70
-0.63
-3.04
-5.59
-8.29
-11.12
-14.02
-16.90
-19.49
-21.36
-22.05
-21.18
-18.65
-14.70
-9.85
-4.73
0.16
4.47
8.10
11.10
13.57
15.59
17.16
18.23
18.75
18.73
18.31
17.72
17.22
17.00
17.09
17.42
17.79
17.99
17.85
17.26
16.21
14.77
13.08
11.27
9.44
7.64
5.81
3.90
1.89
-0.17
-2.16
-4.09
-6.05
-8.33
-11.19
-14.73
-18.75
-22.72
-25.95
-27.83
-27.98
-26.38
-23.25
-18.97
-13.90
-8.37
-2.69
2.82
7.77
11.81
14.70
16.41
17.14
17.21
16.96
16.67
16.45
16.28
16.08
15.76
15.34
14.85
14.36
13.85
13.25
12.42
11.23
9.65
7.69
5.45
3.04
0.54
-1.94
-4.31
-6.45
-8.27
-9.73
-10.87
-11.85
-12.89
-14.24
-16.06
-18.40
-21.12
-23.90
-26.30
-27.83
-28.01
-26.56
-23.41
-18.79
-13.12
-7.03
-1.09
4.18
8.46
11.64
13.79
15.06
15.67
15.83
15.73
15.48
15.17
14.84
14.52
14.27
14.11
14.06
14.04
13.96
13.70
13.23
12.59
11.90
11.26
10.67
10.01
9.11
7.80
6.07
4.02
1.87
-0.14
-1.87
-3.36
-4.78
-6.41
-8.53
-11.28
-14.63
-18.30
-21.86
-24.77
-26.56
-26.88
-25.58
-22.73
-18.61
-13.60
-8.18
-2.84
1.99
5.97
8.96
10.96
12.13
12.68
12.83
12.77
12.61
12.45
12.34
12.32
12.37
12.42
12.39
12.16
11.67
10.92
9.96
8.82
7.55
6.15
4.61
2.93
1.14
-0.73
-2.61
-4.46
-6.22
-7.89
-9.47
-11.01
-12.61
-14.38
-16.43
-18.73
-21.11
-23.20
-24.47
-24.38
-22.58
-18.98
-13.88
-7.84
-1.55
4.37
9.53
13.71
16.85
18.97
20.08
20.26
19.67
18.60
17.39
16.34
15.57
15.01
14.50
13.87
13.07
12.18
11.34
10.67
10.12
9.57
8.78
7.58
5.88
3.71
1.26
-1.24
-3.61
-5.72
-7.60
-9.35
-11.06
-12.81
-14.67
-16.68
-18.89
-21.32
-23.84
-26.14
-27.68
-27.87
-26.27
-22.80
-17.80
-11.91
-5.89
-0.33
4.41
8.28
11.37
13.78
15.58
16.77
17.33
17.34
16.95
16.38
15.87
15.58
15.57
15.78
16.02
16.05
15.64
14.71
13.30
11.64
10.00
8.59
7.42
6.31
5.00
3.25
1.02
-1.52
-4.10
-6.43
-8.36
-9.94
-11.35
-12.83
-14.56
-16.61
-18.97
-21.50
-23.99
-26.12
-27.46
-27.54
-25.98
-22.65
-17.76
-11.87
-5.71
0.00
4.80
8.53
11.29
13.34
14.92
16.15
17.07
17.61
17.78
17.65
17.34
17.02
16.74
16.47
16.05
15.33
14.23
12.80
11.24
9.79
8.62
7.73
7.02
6.31
5.41
4.15
2.48
0.42
-1.96
-4.52
-7.11
-9.54
-11.66
-13.41
-14.81
-15.98
-17.11
-18.43
-20.09
-22.17
-24.53
-26.85
-28.63
-29.30
-28.37
-25.61
-21.11
-15.26
-8.69
-2.08
3.97
9.07
13.04
15.92
17.85
19.05
19.70
19.92
19.79
19.37
18.74
17.99
17.20
16.45
15.76
15.15
14.63
14.19
13.79
13.34
12.67
11.64
10.12
8.14
5.85
3.50
1.30
-0.62
-2.30
-3.87
-5.52
-7.35
-9.33
-11.32
-13.18
-14.85
-16.38
-17.97
-19.83
-22.06
-24.57
-27.08
-29.14
-30.25
-29.97
-28.00
-24.32
-19.18
-13.08
-6.70
-0.68
4.50
8.61
11.70
13.93
15.50
16.54
17.09
17.20
16.96
16.50
16.01
15.64
15.45
15.38
15.29
15.00
14.41
13.52
12.42
11.25
10.11
9.00
7.83
6.44
4.67
2.44
-0.17
-2.95
-5.62
-7.94
-9.81
-11.34
-12.81
-14.55
-16.79
-19.51
-22.43
-25.07
-26.90
-27.46
-26.48
-23.87
-19.73
-14.40
-8.35
-2.22
3.40
8.07
11.61
14.12
15.83
16.98
17.67
17.90
17.65
16.94
15.96
14.96
14.16
13.62
13.30
13.01
12.64
12.15
11.56
10.96
10.33
9.56
8.50
7.01
5.06
2.79
0.41
-1.84
-3.78
-5.40
-6.79
-8.16
-9.67
-11.46
-13.58
-16.01
-18.69
-21.48
-24.15
-26.32
-27.54
-27.35
-25.47
-21.85
-16.75
-10.64
-4.09
2.41
8.48
13.94
18.70
22.77
26.14
28.79
30.67
31.78
32.23
32.33
32.56
33.39
35.14
37.79
40.92
43.90
46.12
47.31
47.67
47.73
48.15
49.40
51.59
54.51
57.69
60.64
62.98
64.45
64.88
64.17
62.14
58.57
53.03
44.83
32.89
16.06
-6.43
-34.23
-65.36
-96.31
-122.75
-140.72
-147.79
-143.77
-130.68
-111.86
-91.01
-71.13
-54.17
-41.09
-32.15
-27.21
-25.84
-27.17
-29.86
-32.16
-32.33
-29.05
-21.87
-11.42
0.87
13.20
23.82
31.47
35.46
35.67
32.53
26.92
20.07
13.35
8.01
4.82
3.85
4.52
5.82
6.70
6.39
4.61
1.52
-2.48
-6.97
-11.60
-16.13
-20.46
-24.59
-28.58
-32.53
-36.44
-40.03
-42.75
-43.92
-42.93
-39.58
-34.15
-27.35
-20.04
-12.97
-6.62
-1.20
3.27
6.85
9.65
11.87
13.75
15.47
17.15
18.72
20.01
20.81
20.97
20.45
19.33
17.79
16.04
14.28
12.67
11.21
9.77
8.09
5.91
3.12
-0.10
-3.28
-5.71
-6.72
-5.96
-3.51
0.03
3.81
7.00
9.08
10.04
10.34
10.69
11.76
13.94
17.14
20.87
24.49
27.56
30.09
32.54
35.54
39.34
43.46
46.75
47.83
45.82
40.81
34.06
27.60
23.46
22.93
26.05
31.59
37.49
41.34
41.09
35.50
24.51
9.21
-8.46
-26.35
-42.63
-55.97
-65.30
-69.36
-66.49
-55.09
-34.46
-5.97
26.40
56.67
78.43
87.00
80.97
62.57
36.65
8.87
-15.98
-35.19
-48.29
-56.61
-62.31
-67.46
-73.41
-80.45
-87.91
-94.48
-98.64
-99.11
-95.30
-87.67
-77.88
-68.38
-61.57
-58.71
-59.03
-59.70
-56.83
-47.40
-30.98
-10.50
8.68
21.04
23.39
16.31
3.70
-9.07
-17.67
-20.39
-18.24
-13.80
-9.60
-7.03
-6.32
-7.21
-9.69
-14.10
-20.53
-28.22
-35.53
-40.71
-42.96
-43.05
-43.02
-45.00
-49.87
-56.52
-62.27
-64.00
-59.57
-48.72
-33.06
-15.41
1.38
15.42
26.35
35.16
43.27
51.45
59.20
64.91
67.00
65.24
61.49
59.17
61.65
70.36
83.78
97.98
108.38
111.95
108.51
100.48
91.22
83.05
76.10
68.51
58.08
44.13
28.38
14.44
5.74
3.58
6.22
9.83
10.61
6.88
-0.19
-7.78
-13.56
-17.65
-22.80
-32.63
-48.89
-69.49
-88.55
-98.92
-95.74
-79.08
-54.11
-28.59
-9.14
1.51
4.93
5.14
5.75
8.22
11.89
15.44
18.34
21.28
25.38
31.10
37.82
44.38
50.20
55.92
62.99
72.56
84.54
97.27
108.26
115.25
117.21
114.59
109.02
102.60
97.26
94.33
94.34
97.06
101.66
106.98
111.91
115.60
117.62
118.06
117.47
116.61
116.16
116.26
116.31
114.96
110.66
102.14
89.00
71.90
52.46
32.85
15.24
1.30
-8.15
-13.32
-15.34
-15.87
-16.44
-17.98
-20.64
-24.18
-28.47
-33.69
-39.98
-46.85
-52.83
-55.81
-54.08
-47.38
-37.46
-27.69
-21.79
-22.61
-31.18
-46.72
-67.24
-90.19
-112.70
-131.61
-143.75
-146.84
-141.12
-130.48
-122.21
-124.75
-143.86
-179.34
-224.37
-267.94
-299.49
-313.14
-309.17
-292.38
-268.55
-241.98
-215.21
-190.52
-171.01
-159.70
-157.36
-160.98
-165.16
-165.77
-163.28
-163.28
-172.79
-194.95
-225.65
-254.71
-271.05
-268.54
-248.79
-219.18
-188.03
-159.95
-134.48
-108.30
-78.84
-46.54
-14.78
12.48
33.36
49.23
64.24
83.50
111.08
148.57
194.35
243.88
290.67
327.93
350.47
356.19
346.58
325.97
300.05
274.13
251.83
234.55
221.85
212.17
203.76
195.37
186.38
176.75
166.71
156.47
146.17
135.96
126.12
117.07
109.20
102.46
96.17
88.98
79.38
66.27
49.32
28.87
5.72
-18.92
-43.27
-64.88
-81.07
-89.76
-90.29
-83.81
-72.60
-59.06
-44.65
-29.75
-14.18
1.87
17.28
30.20
38.72
41.83
39.82
34.08
26.56
19.26
13.87
11.38
11.82
14.02
16.14
16.52
14.63
11.50
8.96
8.40
9.73
11.42
11.62
9.50
5.83
2.23
-0.37
-2.65
-6.57
-13.83
-24.38
-36.13
-46.10
-52.28
-54.63
-54.78
-54.39
-53.64
-50.87
-43.65
-30.49
-12.02
9.05
29.06
44.99
55.34
60.15
60.23
56.37
49.10
38.88
26.63
13.94
2.75
-5.17
-8.96
-8.93
-6.35
-2.99
-0.48
0.23
-0.75
-2.29
-2.53
0.40
7.56
18.51
31.19
42.61
49.85
51.18
46.60
37.58
26.31
14.84
4.61
-3.62
-9.56
-13.32
-15.38
-16.61
-18.19
-21.43
-27.37
-36.49
-48.55
-62.47
-76.46
-88.40
-96.21
-98.57
-95.32
-87.60
-77.46
-67.25
-58.81
-53.11
-50.26
-49.78
-50.93
-52.72
-53.86
-52.82
-48.20
-39.29
-26.65
-12.14
1.63
12.27
18.54
20.67
19.97
18.05
16.00
14.12
12.14
9.87
7.63
6.23
6.52
8.85
12.68
16.90
20.32
22.29
22.87
22.39
20.97
18.20
13.40
6.26
-2.63
-11.80
-19.53
-24.70
-27.23
-27.88
-27.60
-26.74
-24.94
-21.53
-16.24
-9.72
-3.31
1.56
4.06
4.35
3.23
1.58
-0.14
-2.00
-4.40
-7.60
-11.56
-16.12
-21.15
-26.71
-32.81
-39.10
-44.78
-48.99
-51.15
-51.26
-49.50
-45.70
-39.12
-28.98
-15.21
1.09
18.04
34.06
48.63
62.35
76.04
89.65
101.82
110.41
113.78
111.76
105.75
97.89
89.93
82.65
75.86
69.00
61.69
53.91
45.85
37.80
29.98
22.54
15.56
9.07
3.10
-2.33
-7.14
-11.25
-14.64
-17.28
-19.17
-20.20
-20.22
-19.03
-16.67
-13.34
-9.36
-5.01
-0.37
4.55
9.72
14.80
19.18
22.09
22.93
21.65
18.73
14.90
10.80
6.56
1.87
-3.70
-10.11
-16.65
-22.02
-24.99
-24.99
-22.38
-18.29
-14.10
-10.86
-8.94
-8.01
-7.29
-6.13
-4.52
-3.46
-4.70
-9.92
-19.75
-33.39
-49.12
-65.48
-82.44
-101.54
-124.90
-153.41
-185.40
-216.85
-242.84
-259.52
-265.22
-260.28
-245.79
-222.69
-191.66
-153.81
-111.49
-68.33
-28.32
5.41
31.63
51.14
66.19
79.33
92.52
106.64
121.57
136.61
150.92
163.75
174.55
182.94
188.55
191.08
190.44
186.88
180.99
173.46
164.77
154.98
143.89
131.39
117.95
104.52
92.24
81.91
73.66
66.96
61.03
55.26
49.49
44.01
39.17
35.12
31.60
27.97
23.27
16.57
7.16
-4.98
-18.89
-32.81
-44.62
-52.63
-56.20
-55.98
-53.53
-50.59
-48.46
-47.87
-49.27
-53.16
-60.01
-69.77
-81.30
-92.33
-100.27
-103.29
-101.30
-95.80
-88.90
-81.97
-75.00
-66.80
-56.16
-42.96
-28.57
-15.34
-5.34
0.68
3.51
4.81
6.02
7.69
9.24
9.70
8.46
5.77
2.56
-0.13
-1.83
-2.82
-3.93
-5.95
-9.14
-13.07
-16.70
-18.83
-18.52
-15.47
-10.16
-3.76
2.15
6.25
8.03
7.95
7.00
5.88
4.48
1.87
-3.05
-10.83
-21.16
-33.18
-46.05
-59.24
-72.39
-84.67
-94.35
-98.91
-95.96
-84.21
-64.27
-38.61
-10.74
15.97
39.32
58.58
74.13
86.72
96.69
103.58
106.50
104.93
99.38
91.51
83.43
76.75
71.78
67.61
62.86
56.68
49.40
42.30
37.00
34.52
34.94
37.41
40.67
43.53
45.12
44.90
42.51
37.72
30.53
21.32
10.95
0.73
-7.84
-13.53
-15.75
-14.80
-11.75
-8.26
-5.89
-5.71
-7.86
-11.64
-15.88
-19.64
-22.74
-25.55
-28.59
-31.75
-34.10
-34.45
-32.16
-27.84
-23.15
-20.24
-20.96
-26.25
-36.03
-49.34
-64.46
-79.15
-90.94
-97.84
-99.00
-94.98
-87.28
-77.46
-66.27
-53.51
-38.73
-22.15
-5.02
10.83
24.02
34.27
42.41
49.59
56.51
63.19
69.00
73.30
75.68
76.11
74.93
72.72
70.38
68.82
68.63
69.71
71.24
72.03
71.13
68.33
64.15
59.40
54.60
49.75
44.42
38.13
30.69
22.23
13.08
3.56
-6.04
-15.23
-23.39
-29.94
-34.61
-37.60
-39.35
-40.13
-39.76
-37.55
-32.61
-24.38
-12.87
1.12
16.10
30.19
41.55
48.82
51.64
50.86
48.20
45.50
43.69
42.38
40.15
35.49
27.45
15.75
0.56
-17.83
-38.51
-59.44
-77.41
-89.05
-92.39
-87.99
-78.68
-68.17
-59.18
-52.34
-46.60
-40.69
-34.44
-29.15
-26.51
-27.22
-30.21
-33.06
-33.50
-30.80
-26.47
-23.48
-24.99
-32.81
-46.61
-63.89
-80.98
-94.17
-100.92
-100.38
-93.26
-81.28
-66.51
-50.93
-36.19
-23.58
-13.90
-7.32
-3.10
0.30
4.60
10.81
18.39
25.24
28.89
28.29
25.11
23.46
27.84
40.53
60.05
81.59
99.30
109.01
109.62
102.70
90.94
76.70
61.36
45.77
30.80
17.52
6.61
-2.04
-9.38
-16.57
-24.20
-32.03
-39.20
-44.82
-48.48
-50.16
-49.97
-47.93
-44.07
-38.71
-32.62
-26.82
-22.05
-18.31
-14.76
-10.24
-4.01
3.59
11.09
16.64
18.92
17.93
15.08
12.57
12.35
15.20
20.40
26.10
30.24
31.45
29.67
25.93
21.78
18.48
16.49
15.54
14.96
14.22
13.10
11.68
10.03
8.10
5.69
2.57
-1.24
-5.52
-9.93
-14.12
-17.86
-20.97
-23.29
-24.65
-24.92
-24.02
-21.99
-18.95
-15.00
-10.28
-5.04
0.33
5.31
9.40
12.33
14.22
15.61
17.23
19.68
23.03
26.72
29.64
30.62
28.85
24.33
17.85
10.68
4.14
-0.92
-4.22
-6.04
-6.91
-7.42
-8.05
-9.10
-10.68
-12.68
-14.67
-15.92
-15.47
-12.49
-6.64
1.51
10.39
17.75
21.29
19.49
12.21
0.79
-12.28
-24.14
-32.44
-36.01
-35.14
-31.21
-26.05
-21.15
-17.15
-13.82
-10.47
-6.64
-2.43
1.47
4.29
5.73
6.15
6.42
7.29
8.94
10.91
12.42
12.91
12.41
11.45
10.76
10.78
11.47
12.25
12.35
11.18
8.67
5.36
2.26
0.47
0.75
3.18
7.17
11.62
15.31
17.32
17.18
14.90
10.84
5.52
-0.50
-6.68
-12.54
-17.68
-21.75
-24.57
-26.11
-26.54
-26.16
-25.27
-24.01
-22.26
-19.77
-16.37
-12.13
-7.46
-2.94
0.97
4.12
6.77
9.35
12.13
15.07
17.87
20.18
21.79
22.70
22.97
22.53
21.16
18.56
14.68
9.86
4.85
0.59
-2.05
-2.54
-0.74
3.01
8.08
13.59
18.57
22.03
23.03
20.80
14.86
5.34
-6.88
-20.14
-32.28
-41.21
-45.62
-45.49
-42.03
-37.23
-32.86
-29.78
-27.56
-24.90
-20.31
-12.94
-2.91
8.74
20.48
30.80
38.52
42.81
43.12
39.16
31.06
19.62
6.52
-5.83
-14.90
-18.84
-17.24
-11.41
-3.93
2.46
6.12
7.26
7.76
10.06
15.63
23.97
32.69
38.60
39.40
34.76
26.32
16.68
7.99
1.01
-4.95
-11.20
-18.70
-27.46
-36.56
-44.58
-50.18
-52.36
-50.55
-44.64
-35.01
-22.46
-8.25
6.22
19.67
31.28
40.68
47.77
52.49
54.74
54.49
52.10
48.50
44.94
42.51
41.64
41.83
41.95
40.84
37.92
33.56
28.75
24.55
21.53
19.53
17.96
16.24
14.12
11.68
9.04
6.11
2.65
-1.52
-6.13
-10.51
-13.83
-15.59
-15.90
-15.40
-14.85
-14.71
-14.90
-15.08
-14.94
-14.56
-14.47
-15.46
-18.17
-22.95
-29.71
-38.13
-47.68
-57.68
-67.36
-75.73
-81.71
-84.39
-83.12
-77.66
-68.24
-55.36
-39.64
-21.70
-2.07
18.72
39.88
60.18
77.83
90.73
97.01
95.66
87.12
73.24
56.71
40.20
25.54
13.51
3.97
-3.57
-9.72
-15.24
-21.14
-28.48
-37.75
-48.07
-57.09
-61.74
-59.69
-50.66
-36.75
-21.49
-8.21
1.17
6.52
8.67
8.43
6.09
1.62
-4.58
-11.36
-16.97
-19.96
-19.81
-17.09
-13.02
-8.72
-4.81
-1.31
2.07
5.53
9.04
12.41
15.42
17.87
19.50
19.95
18.84
15.85
11.07
5.12
-0.82
-5.24
-6.79
-4.82
0.15
6.71
13.06
17.55
19.13
17.47
12.72
5.15
-5.03
-17.54
-31.40
-44.74
-55.32
-61.49
-63.04
-61.19
-58.06
-55.55
-54.68
-54.65
-53.37
-48.73
-39.82
-27.52
-14.04
-2.09
5.94
8.22
4.60
-3.37
-12.76
-20.08
-22.08
-16.47
-2.62
19.04
44.19
66.28
80.03
84.63
83.36
81.04
81.49
85.99
94.74
103.67
108.16
104.76
91.98
70.48
42.75
12.32
-17.52
-44.81
-68.41
-88.56
-106.91
-125.81
-147.17
-171.06
-194.73
-212.89
-219.39
-209.68
-182.12
-138.28
-81.89
-17.64
49.43
114.10
170.85
214.50
241.56
252.05
250.08
242.45
235.61
232.74
233.06
233.42
230.97
225.01
217.18
209.93
204.77
201.47
198.29
193.59
186.81
178.46
169.40
160.13
150.70
141.20
132.18
123.41
114.66
105.39
94.89
82.61
68.71
54.22
40.58
28.64
15.73
-1.58
-25.69
-56.34
-90.61
-124.42
-154.35
-178.94
-198.97
-220.08
-247.05
-281.53
-321.67
-364.19
-406.70
-448.41
-488.50
-524.31
-554.90
-576.90
-586.11
-579.91
-560.01
-532.99
-507.84
-491.86
-460.55
-397.46
-299.24
-179.70
-60.08
43.41
124.39
183.92
226.74
258.07
277.36
283.53
276.83
260.45
239.42
219.12
203.05
192.50
186.82
180.03
167.10
144.84
113.43
76.33
39.95
11.72
-1.59
3.87
25.31
55.86
86.73
111.20
122.98
121.76
111.91
99.14
87.43
76.99
66.32
54.16
40.94
28.39
18.76
12.96
10.19
8.79
6.81
3.51
-0.57
-3.92
-5.07
-2.93
2.38
10.07
18.61
27.01
35.15
43.53
52.81
63.21
74.54
85.92
96.13
104.24
110.05
114.19
117.95
122.93
130.35
140.43
151.70
161.03
164.54
159.04
143.28
118.63
88.65
57.89
30.37
8.30
-8.25
-20.94
-31.48
-41.25
-51.05
-60.90
-70.16
-77.92
-83.42
-86.34
-86.92
-85.85
-83.90
-81.49
-78.43
-74.18
-68.22
-60.43
-51.24
-41.35
-31.42
-21.83
-12.56
-3.38
5.86
14.90
23.14
29.83
34.31
36.12
34.90
30.25
21.92
10.00
-4.83
-21.20
-37.33
-51.45
-62.24
-69.20
-72.64
-73.49
-72.83
-71.56
-69.92
-67.50
-63.30
-56.18
-45.47
-31.50
-15.71
-0.48
11.51
18.06
18.15
12.33
2.58
-8.33
-17.80
-24.25
-27.54
-28.77
-29.55
-31.23
-34.37
-38.75
-43.65
-48.16
-51.37
-52.41
-50.55
-45.54
-37.92
-29.13
-21.13
-15.59
-13.08
-12.73
-12.53
-10.20
-3.98
6.91
22.18
40.68
60.36
78.48
91.87
97.66
94.18
81.75
62.70
40.73
19.66
2.18
-10.81
-19.96
-26.75
-32.38
-37.19
-40.41
-40.60
-36.21
-26.14
-10.18
10.75
34.74
59.18
81.31
98.82
110.30
115.59
115.69
112.29
107.14
101.42
95.40
88.52
80.00
69.46
57.37
44.94
33.60
24.23
16.82
10.59
4.57
-1.64
-7.72
-12.95
-16.90
-19.96
-23.18
-27.64
-33.62
-40.26
-45.97
-49.24
-49.50
-47.46
-44.77
-43.39
-44.80
-49.58
-57.22
-66.38
-75.24
-82.13
-86.06
-87.10
-86.23
-84.87
-84.10
-84.15
-84.41
-83.95
-82.12
-78.95
-74.98
-70.73
-66.35
-61.45
-55.54
-48.53
-41.11
-34.58
-30.29
-29.06
-30.73
-34.33
-38.46
-41.86
-43.75
-43.89
-42.53
-40.17
-37.46
-34.99
-33.22
-32.36
-32.24
-32.49
-32.76
-32.89
-33.00
-33.22
-33.41
-33.03
-31.21
-27.17
-20.46
-11.03
0.83
14.68
29.96
45.88
61.42
75.44
86.99
95.55
101.16
104.20
105.09
103.99
100.86
95.72
89.06
81.95
75.76
71.51
69.26
67.94
65.77
61.16
53.49
43.45
32.65
22.76
14.72
8.57
3.74
-0.30
-3.63
-5.98
-7.18
-7.52
-7.75
-8.70
-10.85
-14.03
-17.70
-21.28
-24.38
-26.85
-28.62
-29.53
-29.29
-27.60
-24.33
-19.67
-14.01
-7.83
-1.54
4.57
10.27
15.30
19.34
22.16
23.72
24.34
24.54
24.83
25.55
26.71
28.25
30.16
32.68
36.11
40.64
46.16
52.31
58.64
64.85
70.76
76.20
80.78
83.89
84.93
83.64
80.28
75.51
69.99
63.87
56.75
47.88
36.82
23.84
9.98
-3.53
-15.79
-26.66
-36.48
-45.54
-53.47
-59.22
-61.54
-59.82
-54.54
-47.16
-39.45
-32.65
-27.19
-22.83
-19.31
-16.85
-16.12
-17.85
-22.30
-28.98
-36.88
-44.82
-51.99
-58.07
-63.10
-67.13
-69.97
-71.34
-71.17
-69.97
-68.80
-68.75
-70.39
-73.18
-75.63
-75.75
-71.94
-63.55
-51.05
-35.81
-19.57
-3.99
9.71
20.95
29.68
36.26
41.13
44.59
46.60
46.91
45.24
41.60
36.31
30.02
23.42
17.22
12.16
8.98
8.40
10.89
16.40
24.20
33.04
41.48
48.23
52.41
53.57
51.70
47.13
40.63
33.29
26.47
21.45
19.02
19.17
21.03
23.21
24.33
23.60
21.10
17.62
14.19
11.53
9.73
8.30
6.55
4.06
0.89
-2.47
-5.50
-7.94
-9.93
-11.83
-13.92
-16.12
-18.08
-19.42
-20.10
-20.48
-21.24
-23.00
-25.96
-29.86
-34.06
-37.92
-41.03
-43.35
-45.00
-46.10
-46.58
-46.26
-44.96
-42.78
-40.12
-37.62
-35.85
-35.07
-35.13
-35.53
-35.71
-35.27
-34.01
-31.77
-28.23
-22.82
-14.97
-4.44
8.37
22.42
36.37
49.08
59.95
68.80
75.66
80.31
82.25
80.97
76.39
69.16
60.54
52.02
44.71
39.07
34.90
31.66
28.81
26.00
23.09
20.00
16.62
12.75
8.24
3.05
-2.60
-8.18
-12.96
-16.27
-17.69
-17.38
-15.95
-14.20
-12.78
-11.88
-11.19
-10.20
-8.59
-6.42
-4.13
-2.19
-0.84
0.07
0.92
2.04
3.52
5.15
6.58
7.49
7.75
7.38
6.54
5.32
3.79
1.92
-0.35
-3.03
-6.03
-9.18
-12.21
-14.92
-17.17
-18.99
-20.51
-21.92
-23.35
-24.86
-26.38
-27.79
-28.95
-29.69
-29.80
-29.05
-27.22
-24.21
-20.07
-15.06
-9.52
-3.76
2.03
7.74
13.23
18.20
22.22
24.86
25.91
25.49
24.07
22.30
20.70
19.49
18.54
17.47
15.86
13.42
10.11
6.06
1.54
-3.10
-7.56
-11.54
-14.86
-17.40
-19.14
-20.04
-20.13
-19.46
-18.21
-16.82
-15.82
-15.80
-17.05
-19.44
-22.44
-25.33
-27.50
-28.65
-28.77
-27.92
-26.07
-23.05
-18.73
-13.25
-7.06
-0.90
4.55
8.84
11.94
14.11
15.74
17.19
18.66
20.25
21.95
23.66
25.17
26.25
26.69
26.42
25.55
24.32
22.96
21.61
20.22
18.70
16.93
14.93
12.80
10.65
8.54
6.36
3.95
1.15
-2.11
-5.84
-9.91
-14.11
-18.18
-21.78
-24.57
-26.26
-26.71
-26.00
-24.37
-22.12
-19.46
-16.52
-13.33
-9.96
-6.58
-3.44
-0.77
1.34
2.96
4.25
5.34
6.24
6.91
7.32
7.54
7.69
7.94
8.31
8.69
8.87
8.64
7.87
6.59
4.89
2.91
0.82
-1.27
-3.24
-5.01
-6.57
-8.02
-9.48
-11.07
-12.84
-14.75
-16.70
-18.61
-20.40
-22.01
-23.28
-23.93
-23.55
-21.71
-18.05
-12.48
-5.25
3.01
11.45
19.18
25.53
30.22
33.36
35.28
36.31
36.68
36.41
35.50
34.05
32.31
30.59
29.09
27.83
26.68
25.49
24.22
22.97
21.84
20.87
19.89
18.62
16.77
14.12
10.68
6.57
2.02
-2.75
-7.52
-12.08
-16.26
-19.92
-22.99
-25.44
-27.39
-28.97
-30.42
-32.00
-33.89
-36.19
-38.78
-41.35
-43.38
-44.32
-43.72
-41.35
-37.30
-31.98
-25.98
-19.86
-14.08
-8.84
-4.19
-0.12
3.33
6.06
8.00
9.21
9.93
10.50
11.24
12.24
13.35
14.31
14.87
14.99
14.89
14.90
15.26
16.01
16.90
17.56
17.61
16.89
15.50
13.67
11.73
9.89
8.21
6.58
4.85
2.86
0.52
-2.13
-4.99
-7.93
-10.82
-13.61
-16.29
-18.87
-21.28
-23.38
-24.92
-25.62
-25.28
-23.82
-21.29
-17.83
-13.65
-9.00
-4.13
0.71
5.26
9.28
12.58
15.03
16.61
17.40
17.60
17.47
17.29
17.29
17.61
18.25
19.08
19.85
20.23
19.98
18.99
17.36
15.41
13.49
11.85
10.54
9.38
8.14
6.61
4.76
2.70
0.50
-1.80
-4.22
-6.82
-9.58
-12.43
-15.25
-17.98
-20.57
-22.95
-24.94
-26.25
-26.56
-25.61
-23.32
-19.82
-15.37
-10.34
-5.05
0.17
5.00
9.15
12.35
14.43
15.42
15.52
15.12
14.68
14.58
15.03
16.03
17.37
18.76
19.95
20.77
21.12
20.93
20.13
18.66
16.60
14.14
11.64
9.40
7.63
6.27
5.08
3.74
2.01
-0.14
-2.59
-5.11
-7.57
-9.96
-12.45
-15.25
-18.46
-22.01
-25.59
-28.76
-31.06
-32.11
-31.73
-29.91
-26.81
-22.71
-17.93
-12.82
-7.68
-2.79
1.66
5.55
8.86
11.63
13.95
15.86
17.38
18.45
19.02
19.13
18.92
18.68
18.68
19.04
19.66
20.26
20.49
20.12
19.10
17.55
15.64
13.53
11.34
9.09
6.83
4.62
2.53
0.62
-1.15
-2.88
-4.73
-6.86
-9.35
-12.20
-15.29
-18.43
-21.39
-23.98
-26.03
-27.37
-27.85
-27.32
-25.66
-22.82
-18.89
-14.11
-8.86
-3.60
1.25
5.41
8.75
11.31
13.19
14.55
15.46
15.98
16.21
16.28
16.35
16.53
16.84
17.20
17.42
17.36
16.93
16.16
15.15
13.97
12.68
11.25
9.57
7.57
5.25
2.74
0.29
-1.85
-3.53
-4.84
-6.02
-7.43
-9.27
-11.55
-14.03
-16.38
-18.33
-19.75
-20.65
-21.06
-20.89
-19.94
-17.92
-14.69
-10.38
-5.37
-0.25
4.43
8.30
11.27
13.44
14.98
15.99
16.46
16.35
15.71
14.73
13.75
13.10
12.98
13.37
14.03
14.59
14.76
14.40
13.53
12.33
10.96
9.48
7.88
6.08
4.07
1.90
-0.30
-2.41
-4.42
-6.39
-8.43
-10.61
-12.91
-15.25
-17.58
-19.89
-22.22
-24.58
-26.89
-28.92
-30.33
-30.75
-29.89
-27.62
-24.01
-19.31
-13.90
-8.22
-2.65
2.49
7.01
10.82
13.87
16.17
17.73
18.64
19.07
19.24
19.35
19.49
19.58
19.49
19.10
18.48
17.81
17.31
17.10
17.00
16.68
15.76
14.07
11.72
9.04
6.42
4.08
2.02
0.12
-1.78
-3.71
-5.59
-7.33
-8.94
-10.54
-12.32
-14.41
-16.86
-19.55
-22.25
-24.71
-26.67
-27.92
-28.24
-27.46
-25.49
-22.37
-18.32
-13.73
-8.98
-4.45
-0.31
3.39
6.69
9.64
12.17
14.14
15.44
16.04
16.03
15.65
15.13
14.68
14.41
14.32
14.31
14.27
14.09
13.72
13.17
12.47
11.66
10.67
9.38
7.66
5.40
2.68
-0.29
-3.20
-5.76
-7.86
-9.56
-11.05
-12.54
-14.20
-16.10
-18.26
-20.67
-23.26
-25.87
-28.24
-30.01
-30.80
-30.31
-28.34
-24.94
-20.39
-15.17
-9.88
-5.07
-1.11
1.94
4.26
6.14
7.82
9.41
10.81
11.88
12.47
12.48
11.87
10.65
9.03
7.52
6.93
8.17
11.89
18.07
25.94
34.09
41.02
45.56
47.24
46.27
43.22
38.78
33.46
27.62
21.60
15.72
10.26
5.33
0.73
-3.95
-9.14
-14.95
-21.06
-26.71
-30.95
-33.04
-32.66
-30.11
-26.08
-21.52
-17.30
-14.07
-12.16
-11.53
-11.89
-12.79
-13.78
-14.58
-15.14
-15.56
-16.00
-16.57
-17.28
-18.04
-18.60
-18.60
-17.61
-15.20
-11.08
-5.34
1.58
8.91
15.83
21.70
26.24
29.52
31.87
33.73
35.50
37.53
40.07
43.19
46.76
50.41
53.60
55.77
56.50
55.58
53.01
48.98
43.88
38.26
32.79
28.09
24.56
22.20
20.60
19.17
17.33
14.80
11.66
8.24
4.96
2.11
-0.16
-1.76
-2.46
-1.91
0.25
4.00
8.65
12.84
14.97
13.91
9.53
2.82
-4.64
-11.41
-16.87
-21.28
-25.45
-30.08
-35.43
-41.23
-46.91
-51.86
-55.55
-57.53
-57.50
-55.53
-52.14
-48.30
-45.10
-43.35
-43.35
-44.86
-47.44
-50.64
-54.08
-57.34
-59.86
-60.96
-60.05
-56.90
-51.85
-45.71
-39.63
-34.70
-31.68
-30.80
-31.64
-33.25
-34.45
-34.35
-32.71
-30.04
-27.41
-25.83
-25.85
-27.30
-29.20
-29.70
-26.04
-14.97
6.14
37.90
77.74
119.96
157.16
182.71
192.84
187.59
170.22
145.55
118.30
92.03
69.01
50.49
36.91
27.99
22.67
19.34
16.24
11.98
5.73
-2.64
-12.67
-23.32
-33.30
-41.30
-46.49
-48.78
-48.81
-47.67
-46.34
-45.34
-44.65
-43.88
-42.60
-40.51
-37.58
-33.83
-29.33
-24.09
-18.22
-12.05
-6.16
-1.25
2.12
3.68
3.55
2.16
0.05
-2.24
-4.32
-5.91
-6.92
-7.40
-7.49
-7.31
-6.92
-6.25
-5.23
-3.94
-2.78
-2.36
-3.31
-5.91
-9.89
-14.49
-18.78
-21.95
-23.62
-23.72
-22.45
-19.98
-16.49
-12.18
-7.42
-2.71
1.41
4.54
6.58
7.72
8.33
8.80
9.41
10.22
11.18
12.11
12.82
13.17
13.08
12.60
11.84
10.98
10.13
9.35
8.60
7.77
6.75
5.44
3.84
1.94
-0.16
-2.32
-4.38
-6.20
-7.73
-9.01
-10.20
-11.53
-13.23
-15.48
-18.30
-21.48
-24.63
-27.24
-28.80
-28.96
-27.68
-25.14
-21.68
-17.62
-13.23
-8.66
-4.12
0.17
3.92
6.95
9.21
10.89
12.24
13.45
14.50
15.26
15.54
15.30
14.71
14.01
13.44
13.09
12.87
12.64
12.26
11.69
10.92
9.92
8.63
6.94
4.85
2.49
0.10
-2.03
-3.80
-5.19
-6.39
-7.61
-9.07
-10.89
-13.13
-15.84
-19.06
-22.78
-26.87
-31.05
-34.86
-37.83
-39.55
-39.78
-38.53
-35.98
-32.48
-28.43
-24.26
-20.36
-17.07
-14.61
-13.13
-12.58
-12.82
-13.56
-14.51
-15.41
-16.11
-16.55
-16.78
-16.74
-16.23
-14.83
-12.10
-7.86
-2.34
3.85
10.05
15.90
21.51
27.25
33.48
40.13
46.82
53.00
58.27
62.41
65.36
66.92
66.88
65.17
62.19
58.92
56.58
56.16
57.84
60.99
64.53
67.45
69.34
70.47
71.47
72.92
74.94
77.21
79.19
80.48
81.13
81.57
82.32
83.59
85.03
85.71
84.52
80.69
74.23
66.02
57.51
50.17
44.76
40.89
37.12
31.40
21.95
8.03
-9.64
-29.11
-47.92
-64.18
-77.24
-87.82
-97.44
-107.59
-119.22
-132.62
-147.54
-163.17
-177.80
-188.63
-192.16
-185.35
-167.27
-140.09
-108.69
-78.92
-55.13
-38.43
-26.69
-16.00
-2.98
13.62
32.60
51.35
67.24
78.64
85.21
87.59
86.97
84.78
82.61
82.01
84.10
89.16
96.20
102.99
106.52
103.83
92.81
72.72
44.44
10.17
-26.90
-63.27
-95.82
-122.52
-142.85
-157.92
-169.93
-181.29
-193.57
-206.73
-219.11
-228.17
-231.76
-229.18
-221.53
-211.10
-200.02
-189.07
-177.12
-161.72
-140.29
-111.42
-75.63
-35.20
6.36
45.15
77.43
100.27
112.23
114.01
108.52
100.17
93.25
90.11
89.87
88.41
79.70
57.78
19.06
-35.90
-102.08
-170.53
-230.26
-270.96
-285.96
-273.84
-238.19
-185.50
-122.25
-53.20
19.68
96.45
177.08
259.42
338.58
407.93
461.42
495.61
509.68
505.68
487.69
460.19
426.31
386.99
341.30
287.97
226.90
158.89
86.20
12.38
-58.86
-124.64
-183.53
-235.54
-281.23
-313.55
-324.95
-312.34
-280.32
-238.98
-197.91
-162.97
-136.48
-118.21
-106.77
-101.99
-105.94
-118.95
-139.94
-165.03
-187.37
-198.96
-193.53
-169.19
-130.60
-86.82
-46.95
-17.14
-0.11
6.01
5.60
2.70
-0.67
-4.86
-10.70
-17.73
-24.46
-29.56
-33.19
-37.34
-44.32
-54.90
-67.22
-77.41
-81.29
-76.46
-63.22
-43.82
-21.19
2.30
25.39
47.46
67.80
85.59
100.31
112.55
124.16
137.24
152.78
169.67
184.92
195.02
197.69
193.00
183.04
170.73
158.20
146.21
134.64
123.57
113.85
106.81
103.28
102.74
103.57
103.84
102.57
100.24
98.36
98.62
101.77
107.21
113.33
118.33
120.83
120.34
117.08
111.71
104.98
97.35
88.85
79.13
67.76
54.58
39.87
24.17
7.87
-9.21
-27.85
-48.84
-72.25
-96.96
-120.84
-141.63
-157.93
-169.90
-179.02
-187.26
-195.83
-204.47
-211.44
-214.31
-211.21
-201.67
-186.67
-167.97
-147.25
-125.59
-103.59
-81.91
-61.63
-44.22
-30.76
-21.17
-13.88
-6.47
3.13
15.41
28.90
40.88
48.97
52.45
52.78
52.83
55.28
61.29
70.00
79.06
86.01
89.44
89.44
86.99
82.96
77.40
69.59
58.86
45.43
30.79
17.26
6.99
1.07
-0.90
-0.38
0.80
1.28
0.48
-1.42
-3.91
-6.62
-9.57
-13.20
-18.02
-24.31
-31.80
-39.80
-47.41
-53.80
-58.38
-60.81
-60.93
-58.75
-54.40
-48.06
-40.00
-30.43
-19.59
-7.88
3.98
14.92
23.76
29.63
32.52
33.34
33.64
34.97
38.22
43.29
49.27
54.80
58.64
60.03
58.73
55.05
49.63
43.33
36.96
31.20
26.44
22.78
20.14
18.33
17.08
16.02
14.79
13.22
11.44
9.89
9.12
9.37
10.28
10.91
10.15
7.17
1.87
-5.15
-13.01
-20.88
-28.35
-35.29
-41.65
-47.22
-51.68
-54.74
-56.22
-56.11
-54.42
-51.10
-46.10
-39.51
-31.64
-23.06
-14.40
-6.23
1.00
6.85
10.90
12.70
12.08
9.31
5.19
0.85
-2.63
-4.60
-4.99
-4.14
-2.49
-0.36
2.09
4.71
7.16
9.00
9.84
9.57
8.50
7.23
6.44
6.52
7.44
8.78
9.91
10.24
9.41
7.41
4.53
1.28
-1.78
-4.16
-5.63
-6.22
-6.18
-5.85
-5.45
-5.08
-4.64
-4.01
-3.06
-1.70
0.15
2.65
5.97
10.19
15.15
20.44
25.41
29.47
32.31
34.02
35.07
36.00
37.15
38.48
39.61
39.97
39.12
36.90
33.51
29.44
25.30
21.68
18.99
17.35
16.53
16.06
15.43
14.32
12.79
11.22
10.13
9.87
10.42
11.41
12.29
12.56
11.94
10.44
8.16
5.31
2.08
-1.23
-4.24
-6.58
-8.05
-8.79
-9.27
-10.15
-11.85
-14.38
-17.27
-19.82
-21.46
-22.07
-21.93
-21.51
-21.13
-20.78
-20.20
-19.17
-17.71
-16.14
-14.83
-13.99
-13.45
-12.77
-11.54
-9.65
-7.35
-5.13
-3.40
-2.31
-1.73
-1.39
-1.09
-0.82
-0.69
-0.83
-1.23
-1.76
-2.26
-2.67
-3.05
-3.58
-4.40
-5.57
-7.04
-8.68
-10.38
-12.08
-13.72
-15.30
-16.79
-18.24
-19.73
-21.36
-23.22
-25.32
-27.57
-29.79
-31.72
-33.08
-33.65
-33.28
-31.99
-29.90
-27.24
-24.25
-21.13
-18.02
-15.02
-12.24
-9.84
-7.99
-6.80
-6.26
-6.19
-6.35
-6.45
-6.31
-5.88
-5.22
-4.42
-3.58
-2.74
-1.93
-1.20
-0.66
-0.45
-0.65
-1.21
-1.98
-2.74
-3.32
-3.65
-3.78
-3.84
-4.00
-4.35
-4.90
-5.62
-6.38
-7.06
-7.57
-7.90
-8.14
-8.44
-8.97
-9.84
-11.04
-12.44
-13.85
-15.01
-15.69
-15.71
-14.92
-13.29
-10.90
-7.98
-4.85
-1.90
0.46
1.95
2.38
1.70
0.04
-2.35
-5.08
-7.66
-9.62
-10.63
-10.52
-9.42
-7.61
-5.49
-3.48
-1.88
-0.91
-0.60
-0.81
-1.31
-1.79
-1.98
-1.72
-1.09
-0.32
0.20
0.13
-0.73
-2.32
-4.33
-6.34
-7.99
-9.08
-9.71
-10.11
-10.58
-11.27
-12.14
-13.02
-13.65
-13.76
-13.17
-11.71
-9.30
-5.99
-1.95
2.46
6.81
10.67
13.74
15.88
17.14
17.71
17.85
17.81
17.77
17.84
18.02
18.25
18.46
18.55
18.44
18.04
17.27
16.11
14.59
12.88
11.21
9.83
8.95
8.60
8.66
8.84
8.79
8.19
6.85
4.80
2.27
-0.40
-2.89
-5.06
-6.94
-8.74
-10.64
-12.72
-14.88
-16.80
-18.12
-18.46
-17.57
-15.43
-12.17
-8.14
-3.73
0.61
4.53
7.78
10.20
11.71
12.26
11.83
10.55
8.65
6.50
4.51
3.03
2.24
2.15
2.56
3.20
3.76
3.96
3.70
3.00
2.08
1.21
0.64
0.43
0.46
0.46
0.11
-0.74
-2.05
-3.61
-5.16
-6.54
-7.76
-8.98
-10.41
-12.12
-13.95
-15.52
-16.31
-15.86
-13.93
-10.52
-5.90
-0.47
5.31
11.02
16.26
20.66
23.95
25.94
26.67
26.29
25.11
23.46
21.59
19.66
17.77
15.96
14.24
12.65
11.20
9.93
8.83
7.92
7.16
6.48
5.82
5.06
4.16
3.09
1.88
0.57
-0.80
-2.19
-3.52
-4.74
-5.81
-6.76
-7.74
-8.93
-10.49
-12.46
-14.64
-16.64
-17.94
-18.12
-16.86
-14.15
-10.20
-5.41
-0.28
4.72
9.18
12.87
15.68
17.64
18.81
19.34
19.32
18.90
18.19
17.36
16.52
15.76
15.12
14.60
14.20
13.93
13.87
14.09
14.59
15.26
15.85
16.05
15.55
14.13
11.76
8.62
5.03
1.41
-1.88
-4.63
-6.83
-8.65
-10.37
-12.28
-14.55
-17.12
-19.73
-21.90
-23.12
-22.95
-21.21
-17.96
-13.50
-8.31
-2.87
2.33
6.92
10.59
13.18
14.70
15.34
15.38
15.15
14.85
14.55
14.18
13.67
13.03
12.35
11.76
11.26
10.73
9.98
8.86
7.37
5.73
4.27
3.30
2.95
3.09
3.37
3.31
2.54
0.92
-1.43
-4.19
-7.00
-9.65
-12.12
-14.62
-17.40
-20.58
-24.02
-27.33
-29.93
-31.28
-31.04
-29.12
-25.64
-20.90
-15.28
-9.21
-3.17
2.26
6.57
9.39
10.69
10.76
10.14
9.35
8.74
8.44
8.43
8.69
9.29
10.43
12.25
14.75
17.69
20.58
22.84
24.02
23.83
22.23
19.39
15.56
11.06
6.18
1.19
-3.69
-8.20
-12.07
-15.11
-17.20
-18.44
-19.07
-19.47
-20.01
-20.96
-22.37
-24.06
-25.64
-26.68
-26.80
-25.82
-23.71
-20.63
-16.86
-12.69
-8.42
-4.31
-0.57
2.55
4.86
6.23
6.70
6.52
6.04
5.59
5.38
5.38
5.44
5.43
5.29
5.12
5.06
5.19
5.45
5.66
5.63
5.22
4.44
3.42
2.36
1.47
0.88
0.64
0.58
0.47
-0.03
-1.15
-3.06
-5.71
-8.92
-12.43
-15.84
-18.77
-20.78
-21.53
-20.76
-18.45
-14.80
-10.24
-5.32
-0.57
3.57
6.88
9.29
10.89
11.84
12.31
12.52
12.64
12.78
12.97
13.16
13.26
13.19
12.98
12.73
12.55
12.49
12.51
12.49
12.33
11.94
11.27
10.24
8.74
6.73
4.31
1.73
-0.66
-2.60
-4.07
-5.27
-6.54
-8.20
-10.36
-12.93
-15.65
-18.23
-20.36
-21.76
-22.19
-21.46
-19.47
-16.26
-12.03
-7.09
-1.82
3.34
8.01
11.86
14.69
16.47
17.35
17.61
17.53
17.28
16.89
16.27
15.36
14.19
12.98
11.99
11.36
11.09
10.98
10.80
10.37
9.75
9.06
8.49
8.09
7.76
7.30
6.49
5.22
3.48
1.37
-0.95
-3.31
-5.60
-7.81
-10.01
-12.34
-14.89
-17.64
-20.39
-22.83
-24.60
-25.42
-25.11
-23.56
-20.77
-16.79
-11.80
-6.18
-0.40
4.98
9.55
13.12
15.72
17.49
18.56
18.97
18.68
17.67
16.03
14.03
11.99
10.22
8.86
7.90
7.15
6.41
5.54
4.58
3.66
2.94
2.47
2.14
1.71
0.89
-0.50
-2.44
-4.73
-7.01
-8.99
-10.56
-11.85
-13.18
-14.87
-17.11
-19.77
-22.48
-24.66
-25.81
-25.62
-24.06
-21.37
-17.88
-13.93
-9.78
-5.59
-1.55
2.11
5.14
7.35
8.67
9.22
9.26
9.04
8.72
8.36
7.91
7.32
6.60
5.83
5.14
4.65
4.36
4.22
4.04
3.66
2.93
1.79
0.30
-1.41
-3.18
-4.87
-6.39
-7.74
-9.00
-10.30
-11.86
-13.86
-16.41
-19.43
-22.56
-25.22
-26.74
-26.63
-24.72
-21.30
-16.96
-12.42
-8.30
-4.92
-2.34
-0.44
0.97
2.04
2.95
3.85
4.88
6.10
7.45
8.69
9.48
9.57
8.88
7.62
6.19
5.01
4.29
4.00
3.88
3.66
3.22
2.62
2.09
1.85
1.97
2.29
2.46
2.06
0.77
-1.48
-4.49
-7.84
-11.02
-13.62
-15.42
-16.39
-16.57
-15.94
-14.40
-11.86
-8.40
-4.37
-0.43
2.83
4.97
5.94
5.98
5.47
4.66
3.69
2.65
1.87
1.99
3.79
7.81
13.95
21.36
28.58
34.08
36.71
36.03
32.29
26.21
18.67
10.53
2.55
-4.57
-10.21
-14.00
-15.95
-16.46
-16.30
-16.24
-16.86
-18.40
-20.59
-22.80
-24.21
-24.13
-22.24
-18.66
-13.89
-8.55
-3.17
1.99
6.84
11.33
15.32
18.61
20.98
22.34
22.81
22.67
22.23
21.71
21.21
20.73
20.26
19.86
19.61
19.60
19.82
20.25
20.68
20.90
20.70
19.92
18.56
16.85
15.20
13.92
13.04
12.17
10.66
7.95
3.94
-0.89
-5.70
-9.71
-12.56
-14.39
-15.66
-16.71
-17.58
-18.04
-17.81
-16.85
-15.43
-14.04
-13.08
-12.72
-12.83
-13.07
-13.10
-12.64
-11.68
-10.42
-9.19
-8.34
-8.01
-8.14
-8.46
-8.70
-8.67
-8.31
-7.48
-5.84
-2.86
1.97
8.80
17.17
26.08
34.32
40.83
45.09
47.09
47.16
45.62
42.62
38.12
32.05
24.51
15.88
6.78
-2.04
-9.82
-15.98
-20.23
-22.62
-23.49
-23.30
-22.40
-20.90
-18.73
-15.77
-12.10
-8.10
-4.35
-1.46
0.22
0.70
0.32
-0.48
-1.33
-2.06
-2.61
-2.90
-2.82
-2.16
-0.91
0.71
2.21
3.06
2.87
1.62
-0.38
-2.62
-4.61
-6.06
-6.88
-7.16
-7.06
-6.82
-6.69
-6.83
-7.29
-7.96
-8.67
-9.34
-10.05
-11.12
-12.86
-15.47
-18.89
-22.76
-26.54
-29.70
-31.82
-32.73
-32.50
-31.42
-29.89
-28.20
-26.49
-24.63
-22.41
-19.67
-16.49
-13.20
-10.27
-8.04
-6.51
-5.26
-3.69
-1.28
2.10
6.14
10.22
13.73
16.23
17.69
18.31
18.47
18.50
18.79
19.83
22.22
26.58
33.09
41.30
50.11
58.03
63.54
65.56
63.91
59.54
54.34
50.48
49.59
52.06
57.15
63.43
69.57
74.60
77.86
78.63
76.15
69.95
60.37
48.76
37.00
26.60
17.89
9.93
1.28
-9.03
-20.88
-33.30
-45.19
-55.74
-64.54
-71.26
-75.39
-76.47
-74.50
-70.22
-64.97
-60.00
-55.91
-52.39
-48.66
-44.04
-38.51
-32.80
-27.92
-24.61
-22.89
-22.08
-21.13
-19.27
-16.40
-13.03
-9.94
-7.73
-6.52
-6.07
-6.12
-6.62
-7.79
-9.91
-12.90
-16.16
-18.65
-19.27
-17.40
-13.15
-7.38
-1.33
3.86
7.47
9.32
9.61
8.75
7.15
5.16
3.08
1.16
-0.34
-1.22
-1.28
-0.42
1.43
4.24
7.84
11.87
15.78
18.94
20.78
20.95
19.40
16.37
12.28
7.65
2.98
-1.23
-4.64
-7.07
-8.60
-9.48
-10.12
-10.91
-12.06
-13.56
-15.15
-16.52
-17.45
-17.94
-18.25
-18.86
-20.13
-22.08
-24.27
-25.85
-25.94
-23.96
-19.83
-14.07
-7.59
-1.26
4.38
9.28
13.70
17.91
21.92
25.44
27.93
28.86
28.13
26.31
24.46
23.71
24.79
27.76
32.02
36.48
39.62
40.38
38.53
35.00
31.56
30.26
32.84
40.22
52.20
66.63
80.68
91.84
98.50
100.09
96.97
90.37
82.23
74.75
68.43
62.62
56.00
47.00
34.30
17.53
-2.46
-24.09
-46.09
-70.09
-98.26
-131.23
-166.71
-200.12
-226.80
-244.27
-253.64
-248.59
-227.55
-193.97
-154.58
-114.99
-77.43
-42.33
-10.46
16.76
38.27
52.54
59.55
61.20
60.32
59.45
60.06
62.32
65.74
69.60
72.06
71.66
68.55
64.06
59.85
56.98
55.61
54.97
53.84
50.17
41.94
29.34
13.84
-2.43
-17.75
-31.19
-42.84
-53.42
-62.50
-71.79
-82.12
-93.85
-106.75
-119.56
-129.37
-131.92
-123.02
-100.93
-68.15
-30.51
4.36
30.18
44.37
48.51
46.63
42.76
39.11
35.55
31.32
26.10
20.68
16.52
14.65
14.90
15.93
16.09
13.97
9.58
4.11
-0.71
-3.38
-3.20
-0.66
2.96
6.26
8.22
8.95
9.46
10.90
14.13
19.19
25.22
30.84
34.79
36.46
36.28
35.38
35.05
36.17
38.71
41.81
44.33
45.35
44.69
43.01
41.38
40.83
