1720471003.00
64.000000
-0.00
-0.00
-0.00
-0.00
-0.00
-0.00
-0.00
-0.00
-0.00
-0.00
0.00
0.01
0.01
-0.00
-0.03
-0.05
-0.05
0.00
0.13
0.36
0.66
1.01
1.37
1.72
2.06
2.40
2.79
3.24
3.80
4.42
5.06
5.66
6.20
6.68
7.15
7.68
8.31
9.14
10.09
11.04
11.88
12.56
13.14
13.76
14.65
15.96
17.91
20.32
22.90
25.38
27.58
29.57
31.68
34.32
37.81
42.54
48.15
54.10
59.83
64.97
69.58
74.14
79.34
85.71
93.76
103.00
112.62
121.73
129.77
136.75
143.30
150.75
157.77
166.64
177.95
191.79
206.97
220.57
228.25
225.36
208.53
176.87
132.76
80.05
23.07
-34.95
-92.44
-149.16
-205.22
-260.36
-313.72
-363.84
-409.78
-450.83
-486.40
-515.60
-537.04
-548.99
-549.68
-538.02
-513.80
-478.20
-433.34
-381.84
-326.34
-269.09
-211.81
-155.75
-101.96
-51.29
-4.72
36.87
72.83
102.89
127.18
146.22
160.71
171.36
178.81
183.44
185.54
185.34
183.12
179.22
174.05
168.04
161.51
154.72
147.81
140.85
133.89
126.96
120.13
113.48
107.07
100.95
95.17
89.73
84.64
79.91
75.55
71.57
68.00
64.83
62.07
59.71
57.71
56.03
54.60
53.31
52.02
50.58
48.81
46.55
43.65
40.01
35.59
30.42
24.56
18.17
11.46
4.68
-1.89
-8.01
-13.45
-18.03
-21.65
-24.26
-25.86
-26.54
-26.40
-25.59
-24.24
-22.49
-20.47
-18.26
-15.94
-13.54
-11.10
-8.67
-6.24
-3.83
-1.43
0.97
3.39
5.84
8.37
10.95
13.56
16.21
18.91
21.67
24.49
27.40
30.42
33.59
36.82
40.05
43.26
46.45
49.63
52.87
56.21
59.76
63.63
67.71
71.94
76.25
80.61
84.95
89.21
93.34
97.30
101.09
104.42
107.03
108.71
109.23
108.31
105.60
100.60
92.63
82.95
72.01
60.16
47.67
34.79
21.83
9.16
-2.71
-13.18
-21.56
-27.39
-30.19
-29.55
-25.20
-17.12
-5.56
8.92
25.51
43.27
60.93
77.36
91.63
103.09
111.40
116.53
118.72
118.40
116.11
112.33
107.53
102.14
96.50
90.86
85.37
80.11
75.12
70.42
65.98
61.76
57.76
53.96
50.35
46.92
43.65
40.55
37.60
34.78
32.05
29.39
26.76
24.11
21.41
18.67
15.87
13.07
10.31
7.65
5.13
2.78
0.58
-1.45
-3.35
-5.10
-6.69
-8.08
-9.27
-10.30
-11.21
-12.13
-13.14
-14.30
-15.61
-17.05
-18.52
-20.00
-21.50
-23.14
-25.08
-27.44
-30.27
-33.49
-36.89
-40.21
-43.28
-46.13
-48.93
-52.09
-55.98
-60.85
-66.66
-73.16
-79.93
-86.62
-93.15
-99.75
-106.95
-115.33
-125.31
-136.97
-149.97
-163.66
-177.33
-190.43
-202.87
-215.25
-228.84
-245.27
-265.77
-290.29
-316.88
-341.69
-359.69
-365.84
-356.42
-330.03
-287.97
-234.03
-173.78
-113.51
-59.06
-14.78
17.16
36.73
45.56
46.05
40.70
31.69
20.82
9.54
-1.01
-10.25
-18.17
-25.19
-31.85
-38.46
-44.86
-50.57
-54.94
-57.55
-58.39
-57.86
-56.59
-55.21
-54.13
-53.31
-52.32
-50.56
-47.53
-43.18
-37.82
-32.08
-26.53
-21.62
-17.66
-14.88
-13.49
-13.69
-15.50
-18.76
-23.10
-28.11
-33.43
-38.73
-43.69
-47.82
-50.49
-51.01
-48.83
-43.82
-36.43
-27.64
-18.65
-10.39
-3.18
3.31
9.74
16.57
23.64
30.21
35.41
38.78
40.70
42.25
44.63
48.61
54.11
60.28
65.94
70.00
71.87
71.56
69.68
67.04
64.43
62.13
59.71
56.23
50.58
42.11
30.97
18.10
4.74
-8.01
-19.58
-29.91
-38.94
-46.33
-51.35
-53.19
-51.48
-46.62
-39.73
-32.27
-25.65
-20.86
-18.61
-19.61
-24.64
-34.01
-46.71
-59.48
-66.86
-62.33
-40.59
0.15
56.79
121.74
185.15
237.86
273.99
291.92
293.67
283.16
264.32
240.03
212.00
181.29
149.00
116.59
85.64
57.40
32.31
9.96
-10.37
-29.21
-46.38
-61.08
-72.20
-79.02
-81.64
-81.07
-78.76
-75.96
-73.21
-70.23
-66.30
-60.75
-53.47
-45.00
-36.33
-28.47
-22.08
-17.36
-14.06
-11.65
-9.63
-7.70
-5.80
-4.06
-2.66
-1.69
-0.95
-0.17
0.99
2.70
4.85
7.18
9.39
11.30
12.83
14.00
14.70
14.75
13.91
11.94
8.81
4.67
-0.18
-5.35
-10.49
-15.41
-20.10
-24.77
-29.68
-35.03
-40.84
-46.86
-52.57
-57.30
-60.37
-61.39
-60.42
-58.04
-55.22
-52.98
-52.13
-52.98
-55.47
-59.32
-64.42
-70.82
-78.73
-88.26
-99.18
-110.95
-122.87
-134.37
-145.23
-155.65
-166.13
-177.14
-188.76
-200.52
-211.25
-219.44
-223.59
-222.56
-215.78
-203.30
-185.70
-164.09
-139.93
-114.86
-90.27
-66.97
-44.93
-23.50
-1.92
19.98
41.62
62.00
80.53
97.74
115.40
135.63
159.67
186.92
214.76
239.49
257.73
267.60
269.09
263.96
255.10
245.74
238.60
235.13
235.01
236.24
235.94
231.64
222.34
208.81
192.95
176.48
160.19
143.80
126.74
109.08
91.66
75.64
61.58
48.94
36.33
22.49
7.06
-9.05
-24.14
-36.39
-44.75
-49.25
-50.89
-51.22
-51.75
-53.60
-57.06
-61.65
-66.16
-69.15
-69.46
-66.57
-60.90
-53.57
-46.00
-39.37
-34.24
-30.53
-27.72
-25.31
-23.07
-21.10
-19.58
-18.60
-17.94
-17.22
-16.09
-14.55
-12.84
-11.41
-10.60
-10.42
-10.53
-10.43
-9.73
-8.27
-6.33
-4.33
-2.79
-2.06
-2.29
-3.42
-5.32
-7.80
-10.70
-13.89
-17.21
-20.50
-23.63
-26.50
-29.07
-31.33
-33.14
-34.20
-34.01
-32.10
-28.27
-22.76
-16.27
-9.82
-4.34
-0.43
1.81
2.64
2.60
2.14
1.61
1.19
0.89
0.67
0.43
0.06
-0.52
-1.29
-2.13
-2.81
-3.04
-2.57
-1.30
0.69
3.12
5.41
6.89
6.92
5.12
1.57
-3.04
-7.72
-11.34
-13.17
-13.08
-11.53
-9.38
-7.41
-5.97
-5.00
-4.03
-2.47
0.19
4.21
9.64
16.22
23.49
30.85
37.66
43.42
47.94
51.31
53.83
55.78
57.11
57.44
56.12
52.49
46.17
37.34
26.67
15.14
3.74
-6.78
-16.09
-24.07
-30.80
-36.26
-40.40
-43.20
-44.82
-45.63
-46.25
-47.22
-48.75
-50.72
-52.62
-53.90
-54.24
-53.64
-52.50
-51.42
-50.97
-51.48
-52.92
-54.93
-56.85
-57.92
-57.45
-54.97
-50.47
-44.35
-37.28
-30.05
-23.36
-17.68
-13.25
-10.11
-8.13
-7.14
-6.96
-7.37
-8.17
-9.16
-10.15
-10.99
-11.56
-11.78
-11.70
-11.36
-10.85
-10.17
-9.29
-8.19
-6.96
-5.82
-5.11
-5.15
-6.13
-8.09
-10.84
-14.08
-17.39
-20.40
-22.85
-24.67
-26.07
-27.44
-29.31
-32.02
-35.50
-39.11
-41.68
-41.85
-38.50
-31.27
-20.73
-8.31
4.12
14.85
22.79
27.69
29.97
30.38
29.59
28.00
25.77
23.01
19.94
16.98
14.62
13.24
12.98
13.55
14.48
15.25
15.54
15.33
14.89
14.49
14.31
14.22
13.89
13.00
11.35
8.95
5.93
2.55
-0.97
-4.39
-7.48
-10.14
-12.34
-14.29
-16.28
-18.66
-21.62
-25.11
-28.67
-31.56
-32.89
-31.94
-28.30
-22.13
-14.09
-5.19
3.44
10.88
16.58
20.40
22.49
23.11
22.52
20.99
18.78
16.22
13.66
11.44
9.80
8.81
8.37
8.32
8.49
8.85
9.46
10.46
11.94
13.90
16.06
17.93
18.92
18.52
16.53
13.14
8.96
4.71
1.04
-1.83
-4.05
-6.11
-8.54
-11.72
-15.74
-20.34
-24.93
-28.77
-30.96
-30.79
-27.85
-22.26
-14.65
-5.99
2.55
10.01
15.70
19.34
21.04
21.12
20.09
18.45
16.74
15.33
14.48
14.26
14.57
15.23
15.99
16.71
17.30
17.90
18.66
19.71
21.04
22.40
23.40
23.61
22.78
20.89
18.18
14.96
11.61
8.42
5.59
3.20
1.18
-0.72
-2.97
-5.97
-9.95
-14.62
-19.17
-22.42
-23.21
-20.90
-15.51
-7.82
1.03
9.77
17.45
23.46
27.60
29.95
30.71
30.14
28.40
25.81
22.76
19.82
17.52
16.29
16.16
16.82
17.84
18.82
19.66
20.49
21.50
22.64
23.56
23.75
22.73
20.41
17.05
13.21
9.44
6.16
3.48
1.27
-0.76
-2.97
-5.73
-9.35
-13.92
-19.22
-24.52
-28.73
-30.61
-29.31
-24.60
-17.07
-7.97
1.31
9.50
15.90
20.32
22.93
24.00
23.81
22.57
20.53
18.03
15.47
13.26
11.70
10.87
10.63
10.71
10.83
10.83
10.69
10.52
10.43
10.44
10.35
9.87
8.62
6.39
3.16
-0.76
-4.91
-8.79
-11.99
-14.47
-16.46
-18.43
-20.94
-24.36
-28.69
-33.43
-37.64
-40.12
-39.79
-36.00
-28.81
-18.99
-7.82
3.31
13.22
21.13
26.74
30.02
31.14
30.32
27.87
24.26
20.16
16.34
13.42
11.71
11.10
11.16
11.37
11.37
11.11
10.74
10.45
10.17
9.63
8.34
5.89
2.14
-2.66
-8.02
-13.35
-18.14
-22.17
-25.50
-28.40
-31.34
-34.73
-38.92
-44.01
-49.71
-55.26
-59.48
-60.96
-58.60
-51.91
-41.34
-28.17
-14.15
-1.02
9.93
18.13
23.55
26.56
27.64
27.27
25.85
23.81
21.59
19.68
18.45
18.06
18.40
19.15
19.98
20.65
21.16
21.58
21.96
22.13
21.64
19.96
16.67
11.66
5.31
-1.62
-8.26
-13.86
-18.06
-21.05
-23.40
-26.03
-29.83
-35.33
-42.34
-49.89
-56.23
-59.30
-57.45
-49.95
-37.33
-21.27
-4.05
12.07
25.48
35.43
41.95
45.51
46.78
46.34
44.66
42.20
39.42
36.84
34.97
34.14
34.43
35.56
36.94
37.98
38.23
37.50
35.97
33.94
31.70
29.26
26.43
22.81
18.05
12.09
5.19
-1.98
-8.66
-14.20
-18.35
-21.20
-23.37
-25.62
-28.75
-33.42
-39.83
-47.52
-55.31
-61.36
-63.61
-60.54
-51.61
-37.64
-20.55
-2.74
13.58
27.00
37.01
43.86
48.13
50.42
51.17
50.73
49.33
47.33
45.13
43.18
41.81
41.19
41.18
41.47
41.67
41.48
40.80
39.73
38.46
37.07
35.47
33.39
30.43
26.27
20.78
14.17
6.89
-0.37
-6.98
-12.50
-16.86
-20.36
-23.56
-27.10
-31.57
-37.32
-44.28
-51.77
-58.50
-62.66
-62.41
-56.44
-44.59
-28.05
-9.08
9.61
25.72
37.90
45.83
50.02
51.38
50.80
49.04
46.70
44.23
42.01
40.26
39.11
38.48
38.25
38.26
38.37
38.48
38.49
38.28
37.70
36.64
35.01
32.79
29.98
26.63
22.75
18.37
13.54
8.36
2.97
-2.41
-7.55
-12.23
-16.31
-19.81
-22.97
-26.20
-30.02
-34.92
-41.07
-48.19
-55.36
-61.10
-63.69
-61.69
-54.46
-42.45
-27.20
-10.89
4.31
16.86
26.03
31.93
35.15
36.42
36.37
35.46
34.07
32.54
31.26
30.60
30.80
31.85
33.49
35.30
36.84
37.78
37.97
37.40
36.17
34.36
32.02
29.08
25.43
20.95
15.54
9.29
2.35
-4.91
-12.03
-18.59
-24.24
-28.82
-32.34
-34.99
-37.11
-39.20
-41.77
-45.23
-49.67
-54.71
-59.34
-62.13
-61.66
-56.90
-47.78
-35.16
-20.76
-6.51
5.96
15.72
22.61
27.00
29.40
30.21
29.64
27.89
25.24
22.24
19.52
17.61
16.77
16.95
17.83
18.90
19.74
20.01
19.58
18.48
16.78
14.64
12.20
9.51
6.62
3.50
0.17
-3.30
-6.74
-9.93
-12.65
-14.87
-16.73
-18.60
-20.93
-24.14
-28.43
-33.67
-39.24
-44.10
-47.01
-46.78
-42.78
-35.04
-24.39
-12.21
-0.02
10.88
19.70
26.15
30.33
32.55
33.22
32.72
31.42
29.59
27.53
25.50
23.80
22.70
22.37
22.83
23.91
25.24
26.40
27.05
27.01
26.30
25.04
23.33
21.21
18.63
15.50
11.79
7.61
3.08
-1.59
-6.22
-10.67
-14.80
-18.56
-21.93
-24.98
-27.96
-31.19
-34.98
-39.48
-44.46
-49.29
-53.04
-54.66
-53.26
-48.42
-40.29
-29.69
-17.91
-6.45
3.38
10.77
15.60
18.34
19.77
20.70
21.58
22.52
23.34
23.87
24.06
24.03
23.97
23.99
24.06
24.03
23.71
23.02
21.96
20.60
19.02
17.27
15.35
13.24
10.91
8.37
5.63
2.72
-0.26
-3.18
-5.93
-8.41
-10.63
-12.75
-14.97
-17.55
-20.70
-24.53
-29.02
-33.94
-38.90
-43.15
-45.82
-46.00
-42.98
-36.62
-27.42
-16.60
-5.72
3.79
11.02
15.76
18.40
19.64
20.09
20.08
19.70
18.93
17.89
16.82
16.06
15.83
16.18
16.96
17.92
18.85
19.62
20.14
20.33
20.08
19.25
17.82
15.78
13.19
10.18
6.83
3.25
-0.42
-3.96
-7.14
-9.75
-11.79
-13.40
-14.90
-16.67
-18.97
-22.03
-25.92
-30.60
-35.85
-41.11
-45.43
-47.60
-46.49
-41.54
-33.04
-22.14
-10.56
0.09
8.64
14.73
18.60
20.78
21.71
21.68
20.84
19.36
17.57
15.87
14.69
14.31
14.73
15.75
17.00
18.19
19.08
19.53
19.53
19.06
18.25
17.18
15.93
14.53
12.90
10.92
8.46
5.51
2.26
-1.05
-4.21
-7.08
-9.68
-12.08
-14.45
-16.87
-19.46
-22.39
-25.83
-29.81
-34.03
-37.75
-39.89
-39.35
-35.48
-28.35
-18.95
-8.77
0.64
8.11
13.18
15.95
16.95
16.79
15.96
14.80
13.57
12.52
11.87
11.75
12.22
13.23
14.56
16.04
17.42
18.52
19.25
19.56
19.42
18.88
17.99
16.80
15.39
13.75
11.86
9.66
7.13
4.37
1.48
-1.38
-4.10
-6.61
-8.98
-11.29
-13.69
-16.41
-19.63
-23.52
-28.07
-32.95
-37.38
-40.33
-40.71
-37.77
-31.51
-22.61
-12.39
-2.38
6.12
12.34
16.09
17.69
17.66
16.56
14.79
12.67
10.42
8.25
6.45
5.28
4.92
5.37
6.39
7.69
8.85
9.58
9.78
9.46
8.81
7.99
7.14
6.20
5.02
3.35
1.02
-1.94
-5.32
-8.74
-11.85
-14.40
-16.42
-18.15
-19.93
-22.11
-24.94
-28.53
-32.80
-37.34
-41.39
-43.99
-44.06
-41.01
-34.83
-26.29
-16.66
-7.33
0.63
6.67
10.74
13.08
14.01
13.79
12.70
11.03
9.13
7.37
6.01
5.09
4.54
4.26
4.19
4.34
4.70
5.23
5.78
6.16
6.14
5.55
4.33
2.48
0.12
-2.59
-5.43
-8.24
-10.92
-13.57
-16.42
-19.78
-23.77
-28.09
-32.01
-34.42
-34.22
-30.78
-24.13
-15.12
-5.05
4.67
13.02
19.45
23.93
26.62
27.74
27.49
25.97
23.44
20.27
16.96
14.05
11.92
10.75
10.52
11.04
12.05
13.31
14.55
15.61
16.38
16.82
16.80
16.17
14.74
12.35
9.01
4.92
0.51
-3.71
-7.39
-10.41
-12.87
-15.12
-17.55
-20.55
-24.40
-29.20
-34.66
-40.09
-44.37
-46.19
-44.62
-39.34
-30.85
-20.36
-9.38
0.75
9.10
15.25
19.22
21.25
21.77
21.21
19.99
18.49
17.04
15.82
14.96
14.47
14.28
14.31
14.44
14.62
14.89
15.35
15.97
16.59
16.83
16.26
14.58
11.78
8.15
4.18
0.36
-3.03
-5.98
-8.69
-11.57
-14.97
-19.12
-23.98
-29.06
-33.49
-36.16
-36.03
-32.57
-25.98
-17.18
-7.52
1.66
9.45
15.45
19.81
22.87
24.98
26.39
27.23
27.57
27.54
27.32
27.09
26.97
26.99
27.13
27.32
27.47
27.52
27.41
27.09
26.53
25.68
24.53
23.10
21.39
19.42
17.21
14.72
12.00
9.12
6.12
3.07
-0.06
-3.27
-6.56
-9.83
-12.95
-15.83
-18.57
-21.47
-25.00
-29.51
-35.00
-40.84
-45.77
-48.24
-46.95
-41.40
-32.13
-20.60
-8.69
1.95
10.29
16.13
19.88
22.19
23.62
24.54
25.08
25.27
25.12
24.71
24.19
23.71
23.39
23.25
23.28
23.42
23.59
23.74
23.78
23.61
23.04
21.93
20.25
18.07
15.53
12.77
9.88
6.86
3.66
0.30
-3.14
-6.47
-9.51
-12.18
-14.49
-16.59
-18.70
-21.11
-24.05
-27.70
-31.95
-36.35
-40.07
-42.07
-41.44
-37.71
-31.10
-22.49
-13.15
-4.32
3.10
8.73
12.65
15.21
16.81
17.75
18.24
18.40
18.31
18.08
17.79
17.53
17.43
17.55
17.95
18.61
19.45
20.31
21.02
21.34
21.16
20.41
19.08
17.28
15.13
12.78
10.29
7.69
4.96
2.13
-0.76
-3.62
-6.35
-8.97
-11.53
-14.17
-17.02
-20.13
-23.52
-27.16
-31.07
-35.15
-39.15
-42.42
-44.12
-43.35
-39.55
-32.87
-24.13
-14.61
-5.64
1.85
7.50
11.42
14.00
15.65
16.60
17.02
17.06
16.89
16.71
16.66
16.79
17.08
17.45
17.88
18.35
18.83
19.33
19.79
20.11
20.16
19.82
18.96
17.52
15.54
13.22
10.78
8.41
6.15
3.90
1.46
-1.31
-4.43
-7.72
-10.83
-13.53
-15.72
-17.53
-19.24
-21.25
-23.91
-27.37
-31.44
-35.55
-38.77
-40.12
-38.82
-34.65
-28.10
-20.12
-11.87
-4.32
2.01
7.01
10.86
13.72
15.69
16.75
16.96
16.44
15.53
14.65
14.09
14.02
14.36
14.91
15.46
15.97
16.40
16.80
17.13
17.30
17.11
16.44
15.18
13.38
11.21
8.85
6.48
4.26
2.19
0.21
-1.81
-3.99
-6.32
-8.74
-11.11
-13.28
-15.16
-16.77
-18.23
-19.82
-21.88
-24.72
-28.37
-32.52
-36.47
-39.20
-39.78
-37.65
-32.79
-25.86
-17.83
-9.75
-2.43
3.65
8.39
11.88
14.33
15.92
16.77
16.97
16.61
15.86
14.98
14.27
13.97
14.17
14.81
15.69
16.56
17.25
17.66
17.83
17.75
17.36
16.54
15.17
13.19
10.74
8.08
5.47
3.14
1.10
-0.77
-2.68
-4.77
-7.09
-9.51
-11.85
-14.03
-16.06
-18.16
-20.65
-23.80
-27.67
-32.04
-36.26
-39.50
-40.90
-39.86
-36.27
-30.56
-23.51
-16.11
-9.23
-3.41
1.09
4.31
6.44
7.68
8.22
8.22
7.81
7.17
6.47
5.92
5.65
5.74
6.12
6.63
7.10
7.45
7.73
8.10
8.63
9.27
9.73
9.58
8.47
6.32
3.31
-0.10
-3.42
-6.41
-9.03
-11.52
-14.21
-17.37
-21.11
-25.25
-29.36
-32.72
-34.48
-33.92
-30.65
-24.84
-17.14
-8.55
-0.11
7.39
13.51
18.11
21.22
22.95
23.43
22.88
21.56
19.76
17.86
16.18
14.92
14.26
14.24
14.78
15.79
17.08
18.45
19.70
20.65
21.08
20.85
19.91
18.29
16.15
13.66
10.95
8.17
5.32
2.38
-0.69
-3.89
-7.17
-10.42
-13.46
-16.17
-18.50
-20.48
-22.26
-24.12
-26.38
-29.34
-32.99
-36.95
-40.44
-42.36
-41.74
-38.03
-31.41
-22.77
-13.42
-4.57
2.95
8.79
13.04
15.88
17.52
18.14
17.91
17.08
15.94
14.74
13.72
12.99
12.60
12.56
12.90
13.54
14.41
15.39
16.40
17.35
18.19
18.78
19.04
18.80
18.00
16.66
14.88
12.80
10.46
7.84
4.86
1.50
-2.20
-6.11
-10.05
-13.92
-17.69
-21.44
-25.42
-29.84
-34.71
-39.65
-43.87
-46.30
-45.97
-42.43
-35.92
-27.42
-18.25
-9.65
-2.45
3.05
6.93
9.48
11.00
11.74
11.89
11.61
11.03
10.30
9.49
8.79
8.36
8.34
8.85
9.84
11.19
12.64
13.94
14.85
15.17
14.75
13.38
11.00
7.62
3.50
-0.93
-5.15
-8.79
-11.71
-14.15
-16.55
-19.43
-23.08
-27.33
-31.52
-34.66
-35.70
-33.89
-29.06
-21.64
-12.54
-2.91
6.23
14.12
20.32
24.73
27.42
28.60
28.53
27.51
25.86
23.87
21.86
20.12
18.86
18.20
18.12
18.49
19.12
19.85
20.54
21.03
21.20
20.97
20.24
18.97
17.20
15.06
12.71
10.36
8.09
5.98
3.91
1.72
-0.74
-3.55
-6.59
-9.63
-12.40
-14.71
-16.57
-18.18
-19.96
-22.45
-26.07
-30.93
-36.53
-41.84
-45.43
-45.96
-42.65
-35.65
-25.95
-15.02
-4.34
5.04
12.62
18.34
22.36
24.92
26.28
26.63
26.20
25.23
23.94
22.61
21.45
20.65
20.33
20.49
21.01
21.62
22.11
22.30
22.10
21.55
20.63
19.43
17.95
16.26
14.41
12.40
10.19
7.62
4.54
0.87
-3.31
-7.77
-12.13
-16.05
-19.30
-21.92
-24.22
-26.68
-29.79
-33.80
-38.57
-43.41
-47.32
-49.07
-47.75
-42.98
-35.06
-24.95
-13.89
-3.19
6.20
13.70
19.15
22.68
24.57
25.23
25.04
24.35
23.50
22.71
22.11
21.72
21.47
21.28
21.11
20.94
20.80
20.72
20.66
20.49
19.97
18.91
17.13
14.61
11.42
7.66
3.48
-1.07
-5.92
-11.12
-16.71
-22.71
-29.06
-35.63
-42.21
-48.61
-54.82
-60.99
-67.51
-74.83
-83.21
-92.59
-102.41
-111.67
-119.19
-123.90
-125.26
-123.43
-119.33
-114.32
-109.90
-107.33
-107.46
-110.61
-116.57
-124.76
-134.22
-143.80
-152.11
-157.62
-158.74
-154.10
-142.59
-123.66
-97.38
-64.54
-26.63
14.25
55.70
95.27
130.79
160.49
183.24
198.57
206.67
208.21
204.24
195.93
184.55
171.23
156.95
142.52
128.55
115.44
103.36
92.23
81.80
71.74
61.68
51.35
40.61
29.58
18.78
9.04
1.45
-2.93
-3.53
-0.47
5.37
12.59
19.71
25.64
29.87
32.58
34.30
35.70
37.19
38.83
40.43
41.59
42.01
41.54
40.23
38.29
36.04
33.79
31.74
30.02
28.57
27.24
25.80
23.94
21.37
17.87
13.36
7.99
2.16
-3.59
-8.72
-12.93
-16.24
-19.05
-21.98
-25.66
-30.49
-36.31
-42.42
-47.53
-50.21
-49.29
-44.23
-35.45
-24.16
-12.06
-0.72
8.74
15.87
20.83
23.99
25.81
26.62
26.65
26.03
24.92
23.59
22.35
21.54
21.40
21.94
22.95
24.10
25.11
25.82
26.36
26.87
27.44
27.85
27.64
26.31
23.55
19.44
14.52
9.46
4.88
1.10
-2.03
-4.93
-8.09
-11.82
-16.11
-20.64
-24.98
-28.80
-31.95
-34.60
-37.08
-39.78
-43.06
-47.21
-52.26
-57.96
-63.60
-68.06
-70.00
-68.25
-62.28
-52.45
-40.01
-26.68
-14.15
-3.54
4.69
10.65
14.71
17.25
18.51
18.66
17.95
16.73
15.46
14.55
14.25
14.52
15.13
15.77
16.20
16.40
16.60
17.00
17.68
18.33
18.39
17.20
14.36
9.97
4.61
-0.88
-5.78
-9.79
-13.14
-16.40
-20.20
-25.00
-30.91
-37.58
-44.31
-50.05
-53.55
-53.69
-49.68
-41.45
-29.76
-16.04
-2.02
10.78
21.27
29.11
34.43
37.64
39.20
39.44
38.62
36.99
34.90
32.70
30.78
29.42
28.81
28.96
29.80
31.18
32.87
34.59
35.99
36.69
36.31
34.65
31.72
27.76
23.18
18.44
13.83
9.43
5.16
0.81
-3.72
-8.42
-13.12
-17.58
-21.61
-25.12
-28.19
-31.08
-34.30
-38.44
-44.02
-51.05
-58.78
-65.60
-69.46
-68.46
-61.67
-49.54
-33.78
-16.79
-0.83
12.54
22.70
29.78
34.30
36.84
37.88
37.78
36.93
35.67
34.35
33.26
32.66
32.62
33.13
33.98
34.91
35.63
35.96
35.78
35.08
33.87
32.13
29.84
26.99
23.66
19.89
15.77
11.37
6.72
1.88
-3.03
-7.84
-12.33
-16.40
-20.05
-23.49
-27.02
-31.06
-36.02
-42.06
-48.89
-55.60
-60.81
-62.82
-60.33
-52.85
-41.02
-26.40
-11.01
3.31
15.32
24.45
30.80
34.71
36.59
36.82
35.84
34.08
32.06
30.23
28.87
28.14
28.00
28.31
28.89
29.59
30.29
30.94
31.48
31.74
31.46
30.33
28.17
25.05
21.28
17.31
13.48
9.88
6.25
2.25
-2.41
-7.71
-13.31
-18.78
-23.74
-28.09
-31.97
-35.73
-39.75
-44.42
-49.97
-56.29
-62.79
-68.33
-71.36
-70.41
-64.66
-54.31
-40.61
-25.54
-11.05
1.37
11.07
18.05
22.71
25.49
26.74
26.77
25.91
24.61
23.33
22.45
22.18
22.44
23.01
23.60
24.00
24.19
24.24
24.27
24.23
23.86
22.74
20.47
16.84
11.98
6.31
0.41
-5.13
-9.98
-14.07
-17.67
-21.26
-25.34
-30.25
-35.98
-41.92
-46.90
-49.44
-48.22
-42.55
-32.76
-20.10
-6.44
6.40
17.13
25.24
30.87
34.49
36.59
37.45
37.24
36.09
34.27
32.16
30.20
28.75
27.98
27.89
28.27
28.88
29.50
29.97
30.21
30.12
29.55
28.30
26.25
23.39
19.92
16.16
12.44
8.92
5.52
1.94
-2.13
-6.80
-12.00
-17.33
-22.37
-26.73
-30.22
-32.91
-35.16
-37.52
-40.65
-45.10
-50.98
-57.71
-63.89
-67.68
-67.29
-61.72
-51.13
-36.87
-21.05
-5.79
7.33
17.57
24.96
29.97
33.16
34.98
35.71
35.55
34.73
33.53
32.21
31.03
30.15
29.63
29.43
29.43
29.46
29.37
28.96
28.08
26.63
24.63
22.15
19.32
16.20
12.75
8.87
4.45
-0.50
-5.75
-10.92
-15.63
-19.59
-22.80
-25.44
-27.90
-30.57
-33.83
-37.90
-42.78
-48.13
-53.08
-56.41
-56.83
-53.36
-45.83
-34.97
-22.29
-9.53
1.78
10.82
17.41
21.93
24.90
26.80
27.95
28.50
28.60
28.41
28.18
28.13
28.39
28.96
29.71
30.57
31.43
32.31
33.13
33.73
33.81
33.03
31.20
28.29
24.61
20.49
16.25
11.95
7.50
2.72
-2.41
-7.67
-12.67
-16.96
-20.30
-22.76
-24.71
-26.73
-29.39
-33.17
-38.23
-44.34
-50.72
-56.12
-59.02
-58.08
-52.68
-43.18
-30.91
-17.73
-5.47
4.70
12.30
17.56
20.99
23.13
24.40
25.07
25.37
25.50
25.64
25.84
26.10
26.36
26.52
26.54
26.41
26.07
25.48
24.57
23.25
21.52
19.40
16.97
14.30
11.42
8.26
4.78
0.94
-3.23
-7.58
-11.93
-16.09
-19.87
-23.17
-26.00
-28.46
-30.83
-33.50
-36.93
-41.39
-46.83
-52.58
-57.51
-60.19
-59.40
-54.57
-46.01
-34.82
-22.56
-10.73
-0.44
7.72
13.66
17.55
19.65
20.26
19.69
18.33
16.66
15.14
14.08
13.64
13.72
14.08
14.51
14.91
15.31
15.81
16.46
17.11
17.44
17.02
15.48
12.71
8.81
4.13
-0.83
-5.64
-9.95
-13.65
-16.94
-20.20
-23.89
-28.31
-33.46
-38.71
-42.97
-44.90
-43.36
-37.93
-28.99
-17.67
-5.50
6.05
15.97
23.75
29.32
32.91
34.80
35.26
34.63
33.17
31.20
29.04
26.92
25.08
23.71
22.90
22.71
23.10
23.98
25.17
26.42
27.36
27.60
26.86
24.98
22.06
18.39
14.36
10.30
6.43
2.75
-0.81
-4.36
-7.90
-11.38
-14.73
-17.89
-20.86
-23.66
-26.39
-29.24
-32.53
-36.64
-41.76
-47.69
-53.59
-58.11
-59.75
-57.39
-50.76
-40.60
-28.37
-15.77
-4.20
5.50
13.10
18.77
22.82
25.53
27.07
27.60
27.27
26.32
25.06
23.82
22.93
22.61
22.88
23.61
24.52
25.28
25.71
25.75
25.42
24.77
23.79
22.38
20.47
18.01
15.01
11.53
7.64
3.43
-0.96
-5.27
-9.24
-12.66
-15.47
-17.90
-20.39
-23.51
-27.74
-33.27
-39.82
-46.58
-52.31
-55.54
-55.10
-50.46
-42.04
-31.02
-19.08
-7.78
1.87
9.50
15.28
19.60
22.73
24.82
25.94
26.20
25.89
25.44
25.18
25.29
25.67
26.08
26.29
26.18
25.80
25.32
24.85
24.32
23.55
22.27
20.30
17.62
14.32
10.51
6.31
1.74
-3.15
-8.25
-13.29
-17.94
-21.95
-25.26
-28.06
-30.69
-33.64
-37.31
-41.82
-46.91
-51.92
-55.85
-57.58
-56.24
-51.45
-43.54
-33.44
-22.41
-11.75
-2.39
5.11
10.59
14.14
15.98
16.39
15.71
14.29
12.52
10.76
9.34
8.49
8.31
8.81
9.85
11.22
12.66
13.90
14.70
14.84
14.14
12.51
9.94
6.55
2.57
-1.70
-5.93
-9.88
-13.51
-16.94
-20.47
-24.42
-29.03
-34.18
-39.31
-43.46
-45.41
-44.08
-38.79
-29.44
-16.57
-1.30
14.95
30.63
44.30
54.82
61.49
64.05
62.74
58.24
51.51
43.70
35.96
29.24
24.26
21.36
20.57
21.56
23.89
26.94
30.05
32.58
34.02
34.15
33.06
31.05
28.48
25.58
22.42
18.85
14.79
10.17
5.06
-0.36
-5.87
-11.18
-16.06
-20.32
-23.94
-27.03
-29.92
-33.04
-36.85
-41.65
-47.42
-53.69
-59.51
-63.54
-64.41
-61.20
-53.78
-43.00
-30.42
-17.81
-6.58
2.49
9.31
14.23
17.75
20.22
21.88
22.82
23.14
22.97
22.48
21.87
21.36
21.10
21.21
21.72
22.48
23.26
23.82
24.00
23.70
22.97
21.88
20.49
18.76
16.61
13.89
10.55
6.69
2.56
-1.51
-5.26
-8.58
-11.52
-14.36
-17.38
-20.91
-25.18
-30.25
-35.93
-41.71
-46.65
-49.61
-49.50
-45.74
-38.49
-28.71
-17.73
-6.95
2.63
10.53
16.72
21.36
24.61
26.57
27.28
26.81
25.36
23.26
20.84
18.49
16.45
14.91
13.86
13.20
12.84
12.63
12.51
12.42
12.29
11.98
11.43
10.52
9.20
7.46
5.30
2.69
-0.35
-3.73
-7.26
-10.67
-13.66
-16.04
-17.88
-19.47
-21.32
-23.95
-27.76
-32.80
-38.65
-44.38
-48.82
-50.71
-49.20
-44.05
-35.79
-25.56
-14.72
-4.56
4.06
10.66
15.22
17.87
18.93
18.75
17.76
16.41
15.12
14.18
13.72
13.73
14.12
14.75
15.57
16.54
17.60
18.61
19.38
19.65
19.20
17.92
15.84
13.14
10.04
6.73
3.34
-0.06
-3.44
-6.86
-10.38
-14.14
-18.32
-23.00
-28.06
-32.97
-36.83
-38.63
-37.57
-33.37
-26.47
-17.83
-8.59
0.20
7.90
14.24
19.17
22.81
25.26
26.63
27.13
27.04
26.67
26.32
26.17
26.28
26.63
27.11
27.55
27.80
27.79
27.45
26.84
25.97
24.84
23.41
21.54
19.13
16.23
13.00
9.71
6.65
3.92
1.43
-1.06
-3.85
-7.00
-10.38
-13.61
-16.36
-18.47
-20.06
-21.52
-23.25
-25.66
-28.95
-33.12
-37.94
-42.89
-47.07
-49.37
-48.78
-44.76
-37.49
-27.94
-17.52
-7.62
0.83
7.56
12.75
16.75
19.81
21.95
23.15
23.40
22.93
22.12
21.36
20.93
20.89
21.15
21.52
21.83
21.97
21.96
21.82
21.56
21.12
20.41
19.40
18.02
16.32
14.28
11.89
9.08
5.83
2.14
-1.88
-6.06
-10.18
-14.02
-17.47
-20.47
-23.13
-25.71
-28.59
-32.06
-36.16
-40.43
-43.99
-45.73
-44.72
-40.60
-33.81
-25.37
-16.57
-8.45
-1.61
3.80
7.90
10.83
12.68
13.47
13.35
12.57
11.50
10.51
9.82
9.47
9.35
9.29
9.14
8.92
8.75
8.77
9.15
9.83
10.50
10.68
9.88
7.83
4.66
0.77
-3.24
-6.87
-9.91
-12.47
-14.84
-17.40
-20.42
-24.05
-28.30
-32.91
-37.34
-40.75
-42.17
-40.77
-36.25
-28.93
-19.73
-9.81
-0.29
8.05
14.86
20.08
23.90
26.47
27.94
28.42
28.03
26.85
25.04
22.90
20.82
19.26
18.59
18.85
19.83
21.03
21.95
22.20
21.73
20.66
19.26
17.73
16.07
14.23
12.08
9.56
6.69
3.60
0.34
-3.01
-6.45
-10.00
-13.56
-16.99
-20.20
-23.09
-25.78
-28.64
-32.01
-36.08
-40.56
-44.57
-46.86
-46.23
-42.00
-34.36
-24.37
-13.52
-3.26
5.42
12.17
17.04
20.20
21.89
22.20
21.32
19.61
17.61
15.95
15.07
15.15
15.98
17.13
18.13
18.68
18.74
18.46
18.07
17.73
17.43
17.01
16.27
15.05
13.29
10.98
8.16
4.91
1.39
-2.20
-5.62
-8.66
-11.28
-13.57
-15.80
-18.33
-21.52
-25.61
-30.56
-35.94
-40.87
-44.18
-44.73
-41.84
-35.61
-26.88
-17.01
-7.36
1.08
7.83
12.96
16.72
19.41
21.20
22.15
22.35
21.92
21.10
20.20
19.53
19.31
19.66
20.53
21.72
22.97
23.98
24.51
24.36
23.48
21.85
19.58
16.80
13.64
10.20
6.50
2.55
-1.66
-6.05
-10.50
-14.86
-18.96
-22.71
-26.07
-29.09
-31.91
-34.80
-38.06
-41.87
-46.12
-50.21
-53.18
-53.89
-51.47
-45.62
-36.89
-26.43
-15.63
-5.77
2.29
8.26
12.19
14.40
15.23
14.98
13.92
12.37
10.71
9.31
8.47
8.34
8.76
9.51
10.28
10.94
11.56
12.30
13.27
14.34
15.15
15.19
14.08
11.68
8.21
4.16
0.04
-3.73
-6.99
-9.90
-12.76
-15.99
-19.91
-24.61
-29.81
-34.77
-38.40
-39.55
-37.37
-31.70
-23.12
-12.93
-2.57
6.80
14.52
20.50
24.94
28.02
29.82
30.30
29.52
27.77
25.54
23.39
21.80
21.07
21.27
22.30
23.93
25.84
27.58
28.68
28.79
27.70
25.50
22.47
18.97
15.36
11.79
8.27
4.65
0.81
-3.22
-7.32
-11.28
-14.89
-18.04
-20.76
-23.20
-25.65
-28.48
-32.02
-36.51
-41.90
-47.72
-53.00
-56.54
-57.07
-53.82
-46.68
-36.36
-24.17
-11.66
-0.21
9.26
16.34
21.09
23.87
25.14
25.37
24.95
24.22
23.44
22.83
22.53
22.63
23.14
23.99
25.05
26.13
27.07
27.73
27.99
27.77
26.99
25.61
23.56
20.80
17.27
13.01
8.11
2.84
-2.45
-7.41
-11.83
-15.69
-19.08
-22.22
-25.32
-28.67
-32.48
-37.00
-42.18
-47.56
-52.09
-54.42
-53.32
-48.19
-39.40
-28.16
-16.09
-4.68
5.17
13.13
19.28
23.84
26.96
28.75
29.33
28.95
28.00
26.95
26.17
25.91
26.19
26.86
27.65
28.34
28.76
28.91
28.89
28.75
28.49
27.98
27.03
25.45
23.17
20.24
16.79
13.04
9.20
5.50
2.06
-1.03
-3.71
-6.01
-8.05
-10.06
-12.33
-15.12
-18.57
-22.60
-26.93
-31.13
-34.81
-37.78
-40.09
-42.05
-44.17
-46.95
-50.81
-55.83
-61.62
-67.21
-71.19
-72.10
-68.79
-60.88
-48.93
-34.22
-18.45
-3.21
10.35
21.73
30.95
38.36
44.32
49.07
52.62
54.83
55.49
54.47
51.73
47.27
41.20
33.59
24.64
14.65
4.09
-6.52
-16.77
-26.50
-35.85
-45.10
-54.45
-63.81
-72.70
-80.40
-86.22
-89.82
-91.56
-92.47
-94.00
-97.47
-103.36
-110.89
-117.95
-121.82
-119.89
-110.62
-93.95
-71.23
-44.88
-17.74
7.35
28.12
43.27
52.93
58.53
62.49
67.20
74.18
83.55
94.12
104.18
112.36
118.25
122.34
125.55
128.51
131.14
132.62
131.74
127.41
119.01
106.58
90.71
72.29
52.26
31.53
10.99
-8.34
-25.34
-39.08
-49.11
-55.72
-59.87
-62.83
-65.66
-68.86
-72.23
-75.02
-76.40
-75.74
-72.82
-67.78
-60.94
-52.57
-42.75
-31.26
-17.78
-2.21
14.98
32.69
49.30
63.17
73.11
78.73
80.47
79.37
76.66
73.45
70.59
68.58
67.57
67.45
67.81
68.09
67.69
66.07
62.88
57.96
51.60
44.53
37.88
32.78
29.75
28.27
26.84
23.68
17.66
9.15
0.17
-6.30
-7.42
-1.61
10.88
28.26
47.88
67.01
83.52
96.12
104.27
108.03
107.87
104.34
97.97
89.21
78.57
66.70
54.53
43.13
33.41
25.86
20.32
16.08
12.12
7.58
2.01
-4.60
-11.92
-19.58
-27.36
-35.30
-43.44
-51.81
-60.21
-68.41
-76.27
-83.90
-91.53
-99.29
-106.84
-113.20
-117.00
-116.97
-112.46
-103.81
-92.27
-79.56
-67.31
-56.67
-48.08
-41.44
-36.28
-32.10
-28.49
-25.21
-22.18
-19.42
-17.01
-14.98
-13.30
-11.80
-10.32
-8.72
-7.02
-5.38
-4.08
-3.36
-3.37
-4.15
-5.64
-7.79
-10.59
-14.04
-18.10
-22.69
-27.72
-33.12
-38.91
-45.09
-51.49
-57.53
-62.26
-64.49
-63.18
-57.89
-49.00
-37.73
-25.77
-14.86
-6.27
-0.62
2.14
2.56
1.39
-0.53
-2.45
-3.70
-3.79
-2.45
0.42
4.65
9.94
15.92
22.22
28.60
34.94
41.18
47.28
53.10
58.33
62.38
64.52
64.06
60.58
54.10
45.13
34.43
22.90
11.45
1.03
-7.36
-12.68
-14.12
-11.45
-5.27
3.03
11.73
19.26
24.70
27.89
29.21
29.22
28.25
26.36
23.35
19.10
13.74
7.77
1.98
-2.78
-5.88
-7.13
-6.83
-5.68
-4.47
-3.85
-4.14
-5.27
-6.93
-8.80
-10.68
-12.55
-14.55
-16.86
-19.63
-22.93
-26.73
-30.83
-34.80
-37.92
-39.27
-37.95
-33.50
-26.07
-16.53
-6.17
3.67
12.04
18.45
22.90
25.66
27.01
27.30
26.84
25.95
25.00
24.27
23.89
23.79
23.76
23.56
23.04
22.14
20.89
19.29
17.31
14.90
12.02
8.77
5.31
1.81
-1.59
-4.96
-8.49
-12.47
-17.12
-22.45
-28.20
-33.71
-38.11
-40.47
-40.07
-36.70
-30.67
-22.77
-13.99
-5.29
2.59
9.25
14.50
18.31
20.75
21.98
22.27
21.95
21.30
20.49
19.62
18.70
17.77
16.96
16.43
16.34
16.81
17.70
18.73
19.50
19.59
18.73
16.84
14.08
10.73
7.09
3.31
-0.60
-4.69
-9.15
-14.15
-19.83
-26.15
-32.83
-39.16
-44.17
-46.74
-46.03
-41.75
-34.32
-24.73
-14.29
-4.19
4.71
11.94
17.41
21.22
23.56
24.64
24.67
23.87
22.49
20.80
19.04
17.43
16.07
14.98
14.12
13.43
12.79
12.07
11.14
9.88
8.16
5.98
3.44
0.75
-1.90
-4.45
-6.97
-9.63
-12.67
-16.30
-20.66
-25.67
-30.92
-35.61
-38.73
-39.32
-36.79
-31.16
-23.10
-13.62
-3.90
5.16
12.96
19.19
23.78
26.74
28.17
28.23
27.19
25.39
23.17
20.90
18.85
17.22
16.09
15.38
14.97
14.74
14.65
14.67
14.83
15.02
15.06
14.61
13.34
11.09
7.93
4.11
0.01
-3.96
-7.63
-10.94
-14.03
-17.10
-20.36
-23.98
-28.05
-32.55
-37.21
-41.52
-44.71
-45.89
-44.35
-39.81
-32.56
-23.43
-13.53
-3.90
4.69
11.84
17.42
21.43
23.92
24.93
24.58
23.17
21.09
18.79
16.63
14.78
13.28
12.02
10.93
10.02
9.35
8.99
8.99
9.32
9.84
10.32
10.51
10.10
8.84
6.62
3.51
-0.21
-4.07
-7.67
-10.73
-13.29
-15.67
-18.32
-21.59
-25.66
-30.29
-34.82
-38.31
-39.74
-38.39
-34.09
-27.32
-19.01
-10.25
-2.01
5.15
10.95
15.37
18.47
20.31
21.03
20.80
19.89
18.61
17.22
15.90
14.82
14.05
13.64
13.58
13.77
14.09
14.42
14.69
14.75
14.46
13.53
11.74
8.95
5.30
1.10
-3.16
-7.09
-10.51
-13.45
-16.16
-18.89
-21.85
-25.14
-28.73
-32.39
-35.71
-38.01
-38.55
-36.73
-32.33
-25.67
-17.54
-8.90
-0.64
6.63
12.69
17.49
21.03
23.29
24.17
23.64
21.81
18.95
15.57
12.18
9.34
7.31
6.22
5.89
6.02
6.36
6.76
7.17
7.53
7.74
7.46
6.41
4.40
1.48
-2.03
-5.68
-9.05
-11.93
-14.35
-16.56
-18.87
-21.61
-24.96
-28.87
-32.97
-36.58
-38.82
-38.87
-36.24
-30.99
-23.66
-15.20
-6.55
1.48
8.39
13.93
18.00
20.53
21.53
21.13
19.58
17.30
14.76
12.38
10.47
9.16
8.45
8.24
8.40
8.83
9.39
9.99
10.42
10.47
9.92
8.62
6.52
3.73
0.39
-3.28
-7.07
-10.82
-14.38
-17.76
-21.03
-24.38
-28.04
-32.12
-36.47
-40.54
-43.45
-44.20
-41.98
-36.62
-28.62
-19.08
-9.27
-0.26
7.37
13.47
18.13
21.40
23.21
23.47
22.24
19.84
16.82
13.77
11.14
9.16
7.78
6.91
6.48
6.52
7.05
8.06
9.38
10.68
11.51
11.49
10.44
8.33
5.43
2.03
-1.58
-5.24
-8.96
-12.89
-17.19
-22.03
-27.45
-33.16
-38.48
-42.43
-43.87
-42.00
-36.65
-28.48
-18.67
-8.62
0.61
8.46
14.81
19.82
23.56
26.02
27.05
26.65
25.04
22.69
20.23
18.21
16.96
16.50
16.63
17.00
17.36
17.56
17.62
17.65
17.62
17.44
16.83
15.46
13.13
9.77
5.57
0.88
-3.84
-8.18
-11.93
-15.06
-17.79
-20.48
-23.54
-27.32
-31.92
-37.06
-42.02
-45.73
-47.06
-45.12
-39.67
-31.14
-20.58
-9.28
1.56
11.12
18.94
24.91
29.02
31.27
31.68
30.36
27.58
23.83
19.79
16.17
13.57
12.26
12.14
12.80
13.75
14.63
15.28
15.74
16.12
16.41
16.48
16.01
14.67
12.24
8.76
4.51
-0.01
-4.30
-7.99
-10.94
-13.32
-15.48
-17.81
-20.67
-24.27
-28.66
-33.61
-38.56
-42.57
-44.55
-43.51
-38.95
-31.08
-20.80
-9.43
1.70
11.50
19.42
25.24
29.04
30.94
31.07
29.63
26.88
23.29
19.49
16.14
13.77
12.64
12.66
13.42
14.49
15.54
16.44
17.24
18.00
18.69
19.09
18.86
17.67
15.30
11.83
7.55
2.92
-1.58
-5.64
-9.14
-12.24
-15.24
-18.52
-22.38
-26.99
-32.35
-38.13
-43.65
-47.91
-49.74
-48.17
-42.75
-33.81
-22.39
-9.98
1.91
12.14
20.09
25.71
29.21
30.93
31.18
30.18
28.16
25.41
22.35
19.51
17.37
16.21
16.06
16.71
17.75
18.80
19.63
20.12
20.27
20.08
19.44
18.17
16.11
13.11
9.23
4.65
-0.28
-5.21
-9.82
-13.91
-17.46
-20.55
-23.34
-26.08
-29.04
-32.46
-36.44
-40.80
-44.94
-47.90
-48.60
-46.14
-40.16
-31.04
-19.79
-7.71
3.86
13.92
21.94
27.72
31.32
32.88
32.59
30.74
27.70
24.08
20.57
17.80
16.25
16.02
16.87
18.27
19.67
20.63
21.03
20.97
20.62
20.10
19.31
18.01
15.87
12.73
8.63
3.92
-0.92
-5.46
-9.41
-12.78
-15.75
-18.64
-21.72
-25.21
-29.23
-33.82
-38.81
-43.79
-47.98
-50.29
-49.63
-45.28
-37.23
-26.29
-13.84
-1.41
9.81
19.12
26.35
31.51
34.64
35.72
34.78
32.06
28.13
23.78
19.79
16.82
15.19
14.84
15.43
16.50
17.57
18.30
18.52
18.27
17.68
16.81
15.69
14.10
11.79
8.62
4.62
0.08
-4.58
-8.93
-12.78
-16.17
-19.35
-22.60
-26.18
-30.22
-34.78
-39.75
-44.76
-49.12
-51.80
-51.75
-48.17
-40.95
-30.71
-18.68
-6.31
5.15
14.85
22.44
27.80
30.99
32.07
31.20
28.74
25.20
21.24
17.46
14.37
12.20
10.89
10.23
9.91
9.65
9.28
8.80
8.35
8.04
7.82
7.37
6.22
3.94
0.31
-4.50
-9.97
-15.41
-20.24
-24.20
-27.44
-30.42
-33.73
-37.92
-43.32
-49.86
-57.03
-63.82
-68.91
-70.94
-68.93
-62.71
-52.92
-40.98
-28.45
-16.72
-6.65
1.47
7.64
11.95
14.39
14.92
13.51
10.35
5.88
0.86
-3.78
-7.11
-8.37
-7.31
-4.11
0.70
6.49
12.76
19.25
25.80
32.12
37.72
41.88
43.95
43.57
40.91
36.69
32.03
28.22
26.43
27.43
31.47
38.18
46.65
55.61
63.76
70.09
74.35
77.20
80.08
84.69
92.25
102.76
114.82
125.93
133.43
135.34
131.03
121.26
107.66
92.17
76.39
61.48
48.19
36.97
28.01
21.20
16.12
12.02
8.11
3.88
-0.78
-5.47
-9.56
-12.54
-14.32
-15.36
-16.47
-18.47
-21.89
-26.88
-33.21
-40.57
-48.68
-57.34
-66.48
-76.03
-85.91
-95.95
-105.68
-114.26
-120.39
-122.55
-119.47
-110.69
-96.90
-79.90
-62.01
-45.43
-31.65
-21.27
-14.30
-10.38
-9.27
-10.79
-14.58
-20.03
-26.11
-31.64
-35.53
-37.14
-36.30
-33.39
-29.22
-24.84
-21.43
-20.07
-21.39
-25.26
-30.69
-36.08
-39.75
-40.55
-38.24
-33.42
-27.24
-20.94
-15.55
-11.80
-10.16
-10.70
-13.04
-16.11
-18.29
-17.82
-13.47
-5.10
6.12
18.02
28.13
34.43
36.07
33.43
27.77
20.67
13.35
6.42
-0.02
-5.97
-11.21
-15.21
-17.42
-17.72
-16.54
-14.82
-13.48
-12.94
-12.92
-12.67
-11.50
-9.20
-6.26
-3.59
-2.18
-2.60
-4.94
-8.98
-14.41
-20.96
-28.17
-35.18
-40.52
-42.37
-39.18
-30.27
-16.34
0.69
18.27
34.09
46.61
55.39
60.67
63.00
62.76
60.16
55.41
48.96
41.64
34.45
28.26
23.51
20.05
17.21
14.07
9.89
4.27
-2.68
-10.53
-18.69
-26.73
-34.56
-42.39
-50.72
-60.03
-70.62
-82.38
-94.69
-106.35
-115.76
-121.35
-121.98
-117.49
-108.83
-97.82
-86.56
-76.82
-69.62
-65.13
-62.95
-62.49
-63.17
-64.35
-65.08
-63.97
-59.25
-49.33
-33.43
-12.04
13.08
39.36
64.29
86.09
104.05
118.37
129.61
138.13
143.78
146.10
144.56
138.97
129.60
117.15
102.71
87.74
73.99
63.32
57.39
57.13
62.32
71.52
82.44
92.57
99.88
103.24
102.43
97.82
90.04
79.80
67.82
54.99
42.28
30.66
20.80
12.94
6.82
1.86
-2.55
-6.80
-10.90
-14.58
-17.46
-19.36
-20.48
-21.38
-22.86
-25.71
-30.48
-37.27
-45.54
-54.07
-61.05
-64.56
-63.11
-56.18
-44.48
-29.68
-13.91
1.00
13.86
24.22
31.93
36.95
39.18
38.57
35.44
30.55
25.01
19.89
15.90
13.10
11.08
9.26
7.24
5.05
3.09
1.82
1.43
1.59
1.58
0.42
-2.67
-8.13
-15.78
-24.95
-34.41
-42.58
-47.76
-48.56
-44.24
-35.09
-22.27
-7.53
7.34
20.89
32.24
41.04
47.22
50.91
52.34
51.91
50.27
48.20
46.37
45.22
44.71
44.47
43.97
42.90
41.38
40.00
39.59
40.76
43.53
47.16
50.31
51.50
49.68
44.72
37.68
30.79
26.89
28.64
37.51
52.88
71.94
90.24
102.98
106.53
99.53
83.10
60.31
34.91
10.17
-11.87
-30.45
-45.79
-58.47
-68.98
-77.62
-84.50
-89.74
-93.59
-96.34
-98.26
-99.44
-99.78
-99.08
-97.32
-94.75
-91.91
-89.62
-88.70
-89.68
-92.63
-96.81
-100.70
-102.21
-99.34
-90.81
-76.69
-58.48
-38.62
-19.75
-3.82
8.44
17.35
23.85
28.88
32.94
36.04
37.99
38.75
38.60
38.15
37.95
38.32
39.16
39.96
40.14
39.31
37.30
34.28
30.60
26.61
22.50
18.31
13.92
9.21
4.13
-1.35
-7.21
-13.49
-20.31
-27.69
-35.30
-42.29
-47.30
-48.87
-45.91
-38.33
-27.06
-13.84
-0.63
11.06
20.44
27.47
32.49
35.96
38.20
39.35
39.47
38.64
37.01
34.85
32.38
29.87
27.38
24.93
22.49
20.10
17.90
16.13
14.99
14.50
14.37
14.04
12.87
10.36
6.41
1.37
-4.08
-9.22
-13.48
-16.69
-19.06
-21.12
-23.62
-27.23
-32.37
-38.92
-46.08
-52.43
-56.33
-56.35
-51.87
-43.28
-31.89
-19.41
-7.43
2.93
11.26
17.58
22.21
25.42
27.37
28.16
27.95
26.95
25.51
24.00
22.65
21.56
20.64
19.75
18.82
17.88
17.04
16.40
15.88
15.19
13.92
11.80
8.74
4.95
0.76
-3.57
-7.93
-12.45
-17.30
-22.63
-28.44
-34.53
-40.46
-45.62
-49.14
-50.11
-47.79
-41.93
-32.97
-21.96
-10.37
0.39
9.34
16.08
20.74
23.77
25.67
26.79
27.30
27.19
26.42
25.05
23.29
21.45
19.82
18.59
17.72
17.07
16.45
15.68
14.72
13.46
11.81
9.64
6.92
3.69
0.14
-3.52
-7.14
-10.71
-14.41
-18.53
-23.32
-28.82
-34.70
-40.13
-43.96
-44.99
-42.41
-36.14
-26.95
-16.23
-5.53
3.91
11.52
17.32
21.65
24.89
27.19
28.52
28.83
28.21
26.97
25.57
24.37
23.57
23.10
22.70
22.10
21.18
19.95
18.57
17.28
16.21
15.39
14.61
13.52
11.72
8.89
4.99
0.26
-4.83
-9.73
-14.07
-17.74
-20.95
-24.12
-27.68
-31.96
-37.08
-42.83
-48.65
-53.65
-56.75
-56.96
-53.65
-46.80
-37.07
-25.60
-13.76
-2.73
6.68
14.14
19.66
23.46
25.79
26.88
26.94
26.21
24.94
23.47
22.09
21.05
20.47
20.29
20.41
20.67
20.93
21.06
20.92
20.41
19.39
17.83
15.75
13.24
10.44
7.45
4.27
0.90
-2.73
-6.62
-10.66
-14.74
-18.70
-22.38
-25.76
-28.93
-32.11
-35.63
-39.76
-44.55
-49.74
-54.56
-57.90
-58.62
-55.92
-49.67
-40.46
-29.45
-17.95
-7.17
2.12
9.61
15.31
19.43
22.29
24.16
25.29
25.86
25.99
25.79
25.43
25.07
24.90
25.05
25.51
26.15
26.78
27.23
27.41
27.21
26.55
25.29
23.23
20.30
16.59
12.41
8.22
4.46
1.31
-1.34
-3.89
-6.78
-10.32
-14.48
-18.88
-23.00
-26.46
-29.15
-31.27
-33.29
-35.71
-38.92
-43.10
-48.22
-53.86
-59.26
-63.37
-65.02
-63.23
-57.57
-48.29
-36.32
-23.04
-9.83
2.14
12.16
19.97
25.63
29.39
31.58
32.50
32.43
31.66
30.45
29.07
27.80
26.85
26.34
26.31
26.69
27.33
28.12
28.90
29.52
29.80
29.47
28.29
26.08
22.91
19.09
15.11
11.47
8.47
6.10
3.96
1.59
-1.43
-5.20
-9.44
-13.70
-17.46
-20.48
-22.83
-24.95
-27.41
-30.79
-35.47
-41.45
-48.28
-54.97
-60.15
-62.40
-60.67
-54.66
-44.95
-32.84
-19.83
-7.29
3.91
13.34
20.90
26.58
30.44
32.57
33.16
32.49
30.86
28.63
26.15
23.75
21.78
20.44
19.78
19.66
19.88
20.22
20.53
20.74
20.75
20.42
19.52
17.76
15.00
11.20
6.53
1.36
-3.88
-8.73
-12.91
-16.38
-19.39
-22.35
-25.74
-29.92
-34.97
-40.77
-46.92
-52.76
-57.42
-59.92
-59.31
-54.99
-46.86
-35.44
-21.80
-7.17
7.49
21.73
35.57
49.15
62.22
73.92
82.95
87.94
88.12
83.59
75.32
64.80
53.50
42.62
32.87
24.64
18.03
12.98
9.18
6.01
2.66
-1.68
-7.54
-14.99
-23.51
-32.06
-39.46
-44.76
-47.57
-48.17
-47.51
-46.78
-47.01
-48.46
-50.57
-52.00
-51.16
-46.81
-38.50
-26.85
-13.27
0.47
12.84
22.80
30.02
34.66
37.14
37.89
37.26
35.43
32.53
28.72
24.29
19.60
15.14
11.31
8.39
6.52
5.69
5.89
7.06
8.99
11.32
13.37
14.28
13.31
10.04
4.58
-2.48
-10.35
-18.27
-25.68
-32.28
-38.01
-42.96
-47.40
-51.81
-56.81
-62.81
-69.73
-76.65
-81.86
-83.34
-79.43
-69.60
-54.62
-36.46
-17.55
-0.19
14.03
24.23
30.35
32.98
33.32
33.08
34.10
37.76
44.45
53.25
62.17
69.01
72.14
71.11
66.65
60.18
53.08
46.17
39.60
33.08
26.23
18.89
11.10
3.19
-4.50
-11.63
-17.95
-23.37
-27.91
-31.80
-35.45
-39.37
-43.90
-49.05
-54.17
-58.05
-59.17
-56.30
-49.01
-37.91
-24.53
-10.66
2.18
13.22
22.45
30.25
36.97
42.64
46.98
49.59
50.19
48.73
45.47
40.82
35.28
29.39
23.59
18.17
13.16
8.36
3.45
-1.86
-7.60
-13.56
-19.29
-24.24
-28.04
-30.56
-32.01
-32.95
-34.11
-36.24
-39.84
-44.89
-50.67
-55.80
-58.57
-57.48
-51.75
-41.66
-28.47
-14.05
-0.35
11.17
19.84
25.73
29.44
31.78
33.41
34.73
35.80
36.50
36.63
36.14
35.13
33.79
32.35
30.96
29.60
28.23
26.73
24.99
22.86
20.21
16.87
12.78
7.97
2.66
-2.79
-8.06
-12.97
-17.63
-22.41
-27.77
-33.82
-40.08
-45.39
-48.14
-46.89
-40.91
-30.52
-17.08
-2.46
11.50
23.52
33.05
40.06
44.84
47.76
49.15
49.29
48.50
47.17
45.71
44.48
43.68
43.17
42.63
41.50
39.32
35.97
31.70
27.08
22.64
18.65
14.84
10.63
5.44
-0.95
-8.23
-15.73
-22.71
-28.68
-33.56
-37.68
-41.49
-45.41
-49.68
-54.28
-58.88
-62.79
-64.97
-64.26
-59.82
-51.41
-39.73
-26.21
-12.61
-0.48
9.28
16.54
21.70
25.38
28.10
30.17
31.68
32.69
33.24
33.44
33.42
33.27
33.04
32.69
32.12
31.16
29.72
27.70
25.11
21.99
18.43
14.52
10.36
5.99
1.46
-3.15
-7.80
-12.46
-17.18
-22.01
-26.87
-31.37
-34.85
-36.41
-35.22
-30.94
-23.81
-14.76
-5.00
4.33
12.46
19.10
24.33
28.37
31.36
33.30
34.17
34.00
32.98
31.41
29.61
27.82
26.11
24.43
22.67
20.81
18.81
16.62
14.18
11.33
7.96
4.03
-0.33
-4.88
-9.25
-13.20
-16.63
-19.69
-22.72
-26.14
-30.33
-35.41
-41.12
-46.74
-51.22
-53.41
-52.44
-48.07
-40.82
-31.78
-22.28
-13.48
-6.11
-0.36
3.98
7.28
9.87
11.97
13.67
14.99
15.93
16.49
16.65
16.50
16.11
15.53
14.87
14.19
13.61
13.14
12.72
12.10
10.98
9.03
6.05
2.11
-2.43
-7.08
-11.33
-14.88
-17.75
-20.25
-22.85
-26.01
-29.95
-34.56
-39.25
-43.13
-45.18
-44.54
-40.84
-34.31
-25.73
-16.22
-6.87
1.49
8.43
13.90
18.09
21.21
23.40
24.76
25.34
25.28
24.73
23.97
23.24
22.74
22.50
22.44
22.37
22.07
21.33
20.06
18.33
16.30
14.19
12.17
10.35
8.67
6.94
4.97
2.57
-0.29
-3.47
-6.77
-9.92
-12.74
-15.16
-17.26
-19.19
-21.22
-23.61
-26.63
-30.47
-34.97
-39.57
-43.26
-44.82
-43.24
-38.16
-30.07
-20.16
-10.00
-0.90
6.33
11.52
14.97
17.16
18.53
19.38
19.91
20.29
20.68
21.18
21.85
22.68
23.57
24.44
25.20
25.79
26.15
26.27
26.12
25.73
25.10
24.21
23.04
21.53
19.67
17.46
14.98
12.37
9.79
7.38
5.19
3.20
1.28
-0.71
-2.88
-5.32
-8.02
-10.90
-13.83
-16.63
-19.14
-21.24
-22.97
-24.53
-26.29
-28.72
-32.13
-36.57
-41.62
-46.38
-49.68
-50.36
-47.71
-41.75
-33.25
-23.51
-13.93
-5.56
1.08
6.04
9.68
12.38
14.44
15.96
17.00
17.65
18.11
18.54
19.09
19.75
20.46
21.14
21.66
22.00
22.16
22.15
21.99
21.62
20.98
19.95
18.40
16.19
13.36
10.05
6.61
3.44
0.77
-1.36
-3.19
-5.09
-7.39
-10.14
-13.19
-16.19
-18.82
-20.86
-22.35
-23.50
-24.56
-25.88
-27.71
-30.28
-33.54
-37.14
-40.34
-42.13
-41.57
-38.11
-31.87
-23.67
-14.78
-6.42
0.53
5.74
9.30
11.58
12.94
13.64
13.93
13.98
13.99
14.14
14.51
15.09
15.76
16.41
16.94
17.35
17.75
18.25
18.89
19.62
20.22
20.40
19.91
18.55
16.38
13.60
10.53
7.45
4.53
1.74
-1.06
-4.09
-7.42
-10.94
-14.41
-17.54
-20.08
-21.91
-23.14
-24.00
-24.91
-26.34
-28.74
-32.25
-36.60
-40.98
-44.19
-45.05
-42.80
-37.45
-29.77
-20.96
-12.27
-4.61
1.57
6.20
9.42
11.50
12.67
13.21
13.38
13.38
13.34
13.34
13.44
13.69
14.19
14.93
15.82
16.63
17.18
17.34
17.14
16.69
16.05
15.23
14.15
12.75
10.98
8.90
6.55
4.00
1.32
-1.42
-4.14
-6.72
-9.14
-11.44
-13.77
-16.34
-19.37
-22.97
-27.15
-31.65
-35.94
-39.25
-40.66
-39.48
-35.41
-28.75
-20.26
-11.03
-1.99
6.11
12.88
18.14
21.85
24.10
25.06
25.07
24.49
23.72
23.00
22.42
22.01
21.72
21.59
21.65
21.93
22.35
22.83
23.18
23.25
22.94
22.10
20.60
18.41
15.54
12.15
8.54
4.97
1.65
-1.34
-4.14
-6.93
-9.89
-13.03
-16.21
-19.16
-21.71
-23.86
-25.82
-28.03
-30.92
-34.71
-39.31
-44.07
-48.06
-50.20
-49.51
-45.51
-38.30
-28.56
-17.34
-5.90
4.64
13.46
20.10
24.55
27.01
27.92
27.72
26.84
25.58
24.19
22.87
21.78
21.07
20.82
21.03
21.61
22.40
23.19
23.73
23.80
23.19
21.82
19.77
17.23
14.51
11.81
9.21
6.59
3.76
0.51
-3.22
-7.28
-11.47
-15.51
-19.25
-22.59
-25.55
-28.22
-30.80
-33.54
-36.68
-40.24
-43.83
-46.69
-47.79
-46.26
-41.73
-34.61
-25.85
-16.72
-8.30
-1.24
4.31
8.46
11.48
13.60
14.90
15.51
15.50
15.02
14.24
13.41
12.78
12.51
12.68
13.20
13.86
14.45
14.87
15.22
15.63
16.17
16.77
17.14
16.87
15.62
13.19
9.68
5.41
0.86
-3.53
-7.43
-10.75
-13.58
-16.17
-18.84
-21.89
-25.53
-29.79
-34.44
-38.91
-42.35
-43.83
-42.50
-37.98
-30.50
-20.86
-10.28
-0.02
8.94
16.04
21.16
24.49
26.33
27.02
26.82
25.98
24.71
23.30
22.03
21.16
20.88
21.21
22.07
23.22
24.37
25.24
25.56
25.18
24.01
22.15
19.70
16.90
13.92
10.88
7.79
4.62
1.29
-2.22
-5.92
-9.77
-13.70
-17.63
-21.44
-25.02
-28.43
-31.89
-35.69
-40.05
-44.82
-49.36
-52.59
-53.33
-50.74
-44.69
-35.80
-25.23
-14.28
-3.99
5.04
12.60
18.67
23.29
26.38
27.95
28.12
27.20
25.70
24.18
23.06
22.57
22.70
23.25
23.98
24.69
25.26
25.59
25.56
25.04
23.96
22.27
20.12
17.66
15.03
12.23
9.12
5.60
1.67
-2.51
-6.69
-10.65
-14.32
-17.76
-21.09
-24.49
-28.12
-32.19
-36.87
-42.16
-47.64
-52.45
-55.36
-55.17
-51.16
-43.40
-32.73
-20.55
-8.35
2.67
11.78
18.73
23.65
26.81
28.57
29.25
29.13
28.54
27.72
26.91
26.28
25.90
25.74
25.76
25.92
26.19
26.51
26.73
26.58
25.78
24.13
21.58
18.34
14.64
10.70
6.62
2.36
-2.08
-6.52
-10.75
-14.47
-17.58
-20.22
-22.68
-25.29
-28.21
-31.52
-35.21
-39.36
-43.95
-48.74
-53.04
-55.76
-55.68
-51.90
-44.32
-33.75
-21.66
-9.68
0.97
9.66
16.31
21.20
24.62
26.76
27.78
27.82
27.16
26.13
25.13
24.50
24.42
24.92
25.82
26.82
27.62
27.92
27.68
26.98
25.99
24.81
23.40
21.52
18.92
15.41
11.03
5.99
0.63
-4.65
-9.55
-13.96
-17.91
-21.57
-25.22
-29.13
-33.48
-38.26
-43.07
-47.16
-49.42
-48.76
-44.49
-36.63
-25.97
-13.89
-1.85
8.96
17.91
24.83
29.91
33.32
35.19
35.70
35.08
33.73
32.08
30.50
29.21
28.25
27.60
27.26
27.27
27.61
28.16
28.65
28.77
28.24
27.00
25.16
22.93
20.43
17.65
14.48
10.85
6.78
2.44
-1.95
-6.24
-10.43
-14.61
-18.84
-23.10
-27.31
-31.49
-35.78
-40.42
-45.51
-50.70
-55.14
-57.54
-56.63
-51.68
-42.82
-30.99
-17.74
-4.62
7.13
16.77
24.04
29.00
31.96
33.30
33.55
33.23
32.80
32.59
32.75
33.21
33.84
34.45
34.86
34.97
34.67
33.95
32.77
31.16
29.14
26.73
24.01
21.07
18.04
15.04
12.09
9.13
6.01
2.61
-1.12
-5.11
-9.20
-13.16
-16.87
-20.28
-23.51
-26.82
-30.51
-34.89
-40.08
-45.91
-51.73
-56.48
-58.86
-57.80
-52.81
-44.30
-33.40
-21.59
-10.28
-0.37
7.75
14.09
18.80
22.03
23.90
24.58
24.35
23.55
22.56
21.67
21.05
20.80
20.94
21.45
22.19
22.98
23.61
23.90
23.76
23.15
22.06
20.45
18.27
15.48
12.08
8.23
4.15
0.07
-3.80
-7.35
-10.57
-13.50
-16.22
-18.85
-21.52
-24.46
-27.95
-32.13
-36.83
-41.43
-44.87
-45.92
-43.63
-37.71
-28.71
-17.83
-6.51
4.00
12.91
19.92
25.05
28.43
30.26
30.74
30.19
29.04
27.74
26.67
26.10
26.04
26.35
26.80
27.17
27.27
27.07
26.52
25.65
24.49
23.05
21.31
19.28
17.00
14.47
11.67
8.55
5.08
1.28
-2.67
-6.62
-10.36
-13.75
-16.83
-19.72
-22.61
-25.71
-29.24
-33.31
-37.94
-42.81
-47.29
-50.39
-51.01
-48.35
-42.21
-33.15
-22.42
-11.52
-1.74
6.12
11.90
15.90
18.63
20.54
21.84
22.62
22.86
22.62
22.13
21.67
21.62
22.17
23.27
24.65
25.91
26.73
26.92
26.51
25.64
24.45
22.95
21.06
18.64
15.51
11.62
6.99
1.77
-3.73
-9.18
-14.20
-18.55
-22.15
-25.14
-27.77
-30.34
-33.19
-36.57
-40.58
-45.02
-49.33
-52.57
-53.65
-51.71
-46.48
-38.41
-28.56
-18.25
-8.60
-0.34
6.30
11.37
15.07
17.61
19.18
20.00
20.25
20.13
19.78
19.24
18.52
17.62
16.55
15.41
14.28
13.30
12.57
12.13
11.88
11.62
10.97
9.57
7.20
3.91
0.03
-3.90
-7.42
-10.27
-12.53
-14.65
-17.16
-20.51
-24.81
-29.69
-34.35
-37.67
-38.54
-36.23
-30.64
-22.42
-12.76
-2.98
5.83
13.08
18.66
22.77
25.63
27.39
28.00
27.51
26.11
24.19
22.30
20.94
20.38
20.65
21.52
22.66
23.72
24.48
24.88
24.94
24.76
24.39
23.79
22.86
21.46
19.42
16.63
13.06
8.81
4.09
-0.81
-5.67
-10.30
-14.66
-18.84
-23.01
-27.41
-32.25
-37.55
-43.07
-48.22
-52.07
-53.58
-51.92
-46.84
-38.70
-28.52
-17.60
-7.18
1.87
9.16
14.72
18.80
21.68
23.55
24.56
24.87
24.71
24.37
24.12
24.06
24.12
24.04
23.56
22.57
21.20
19.74
18.46
17.43
16.47
15.19
13.19
10.23
6.33
1.74
-3.13
-7.89
-12.28
-16.24
-19.86
-23.43
-27.20
-31.43
-36.19
-41.31
-46.22
-50.01
-51.68
-50.35
-45.75
-38.22
-28.79
-18.74
-9.24
-0.99
5.75
11.05
15.15
18.16
20.12
21.09
21.20
20.66
19.78
18.87
18.14
17.71
17.61
17.73
17.95
18.16
18.28
18.34
18.39
18.39
18.19
17.51
16.05
13.68
10.44
6.60
2.52
-1.48
-5.20
-8.62
-11.85
-15.05
-18.33
-21.83
-25.59
-29.58
-33.54
-36.89
-38.75
-38.26
-34.82
-28.40
-19.67
-9.73
0.19
9.18
16.76
22.95
27.92
31.83
34.69
36.43
37.01
36.55
35.30
33.61
31.85
30.25
28.99
28.08
27.40
26.72
25.81
24.44
22.55
20.19
17.52
14.73
11.92
9.07
6.04
2.67
-1.19
-5.48
-10.01
-14.51
-18.69
-22.39
-25.66
-28.72
-31.88
-35.48
-39.77
-44.76
-50.16
-55.26
-59.08
-60.59
-59.00
-54.12
-46.45
-36.96
-26.83
-17.12
-8.50
-1.30
4.46
8.90
12.18
14.43
15.87
16.69
17.14
17.45
17.79
18.33
19.13
20.13
21.20
22.21
23.00
23.50
23.73
23.74
23.54
23.09
22.31
21.05
19.23
16.83
13.92
10.67
7.28
3.92
0.77
-2.05
-4.47
-6.55
-8.40
-10.20
-12.25
-14.84
-18.20
-22.41
-27.14
-31.70
-35.14
-36.45
-35.01
-30.70
-24.09
-16.11
-7.86
-0.13
6.54
11.98
16.17
19.09
20.81
21.37
20.95
19.88
18.55
17.25
16.14
15.27
14.53
13.87
13.25
12.73
12.39
12.29
12.33
12.32
12.00
11.07
9.41
7.05
4.21
1.23
-1.60
-4.18
-6.60
-9.07
-12.01
-15.62
-19.93
-24.64
-28.98
-32.00
-32.72
-30.49
-25.26
-17.63
-8.59
0.69
9.19
16.30
21.79
25.66
28.11
29.36
29.66
29.28
28.47
27.39
26.22
25.09
24.12
23.46
23.17
23.18
23.38
23.55
23.43
22.88
21.79
20.21
18.26
16.03
13.60
10.99
8.14
5.01
1.66
-1.79
-5.14
-8.21
-10.89
-13.18
-15.16
-16.96
-18.83
-21.06
-24.01
-27.90
-32.70
-37.89
-42.57
-45.56
-45.88
-43.02
-37.12
-28.96
-19.66
-10.32
-1.84
5.26
10.81
14.84
17.48
18.96
19.46
19.17
18.36
17.27
16.22
15.47
15.23
15.51
16.17
16.93
17.50
17.71
17.56
17.10
16.45
15.64
14.58
13.19
11.34
8.95
6.07
2.83
-0.58
-4.00
-7.33
-10.55
-13.63
-16.60
-19.43
-22.12
-24.73
-27.48
-30.63
-34.31
-38.30
-41.93
-44.19
-44.09
-41.06
-35.20
-27.22
-18.19
-9.20
-1.06
5.86
11.43
15.69
18.66
20.37
20.90
20.48
19.42
18.09
16.80
15.75
15.05
14.68
14.58
14.67
14.81
14.89
14.80
14.55
14.14
13.58
12.89
11.92
10.49
8.41
5.56
2.08
-1.80
-5.77
-9.54
-13.03
-16.27
-19.39
-22.49
-25.74
-29.24
-33.08
-37.22
-41.41
-45.01
-47.18
-47.05
-43.97
-37.93
-29.45
-19.59
-9.55
-0.38
7.20
12.92
16.83
19.17
20.22
20.29
19.69
18.66
17.50
16.42
15.57
14.95
14.53
14.24
14.07
14.08
14.25
14.54
14.74
14.56
13.74
12.16
9.88
7.08
4.07
1.08
-1.73
-4.35
-6.90
-9.64
-12.86
-16.79
-21.44
-26.35
-30.68
-33.30
-33.19
-29.85
-23.52
-15.17
-6.13
2.42
9.74
15.59
20.11
23.50
25.86
27.22
27.60
27.13
26.10
24.80
23.50
22.34
21.41
20.77
20.50
20.63
21.11
21.75
22.31
22.54
22.28
21.43
19.94
17.82
15.12
11.91
8.42
4.86
1.44
-1.74
-4.69
-7.54
-10.37
-13.19
-16.00
-18.73
-21.44
-24.34
-27.71
-31.82
-36.69
-41.95
-46.75
-49.96
-50.50
-47.71
-41.68
-33.13
-23.28
-13.42
-4.52
2.91
8.76
13.21
16.46
18.61
19.74
19.91
19.34
18.32
17.29
16.57
16.41
16.83
17.71
18.90
20.17
21.41
22.48
23.21
23.40
22.89
21.57
19.47
16.70
13.38
9.62
5.46
0.99
-3.61
-8.06
-12.12
-15.64
-18.67
-21.38
-24.11
-27.14
-30.66
-34.64
-38.89
-42.89
-45.88
-47.02
-45.59
-41.37
-34.72
-26.52
-17.86
-9.70
-2.63
3.15
7.69
11.08
13.38
14.58
14.74
14.07
12.90
11.59
10.40
9.44
8.68
8.05
7.51
7.12
6.99
7.21
7.77
8.40
8.70
8.21
6.68
4.11
0.83
-2.70
-6.07
-9.05
-11.73
-14.29
-17.08
-20.33
-24.24
-28.80
-33.71
-38.34
-41.73
-42.84
-40.83
-35.46
-27.20
-17.14
-6.59
3.29
11.83
18.86
24.50
28.89
32.01
33.68
33.74
32.25
29.66
26.59
23.72
21.56
20.26
19.67
19.51
19.50
19.49
19.47
19.44
19.39
19.17
18.53
17.24
15.11
12.09
8.33
4.14
-0.11
-4.14
-7.77
-11.02
-14.09
-17.17
-20.52
-24.27
-28.50
-33.20
-38.21
-43.17
-47.42
-50.06
-50.22
-47.31
-41.26
-32.61
-22.33
-11.57
-1.41
7.50
14.87
20.70
25.15
28.34
30.30
31.01
30.56
29.23
27.48
25.87
24.83
24.54
24.84
25.37
25.78
25.86
25.63
25.24
24.81
24.31
23.55
22.19
20.00
16.91
13.04
8.72
4.26
-0.11
-4.26
-8.16
-11.88
-15.44
-18.94
-22.55
-26.46
-30.88
-35.71
-40.44
-44.04
-45.38
-43.56
-38.33
-30.25
-20.43
-10.16
-0.53
7.91
15.00
20.76
25.22
28.34
30.07
30.54
30.03
28.95
27.72
26.60
25.76
25.25
25.07
25.22
25.65
26.20
26.69
26.88
26.63
25.93
24.83
23.42
21.69
19.55
16.83
13.38
9.20
4.33
-0.99
-6.44
-11.69
-16.41
-20.40
-23.66
-26.41
-28.99
-31.83
-35.29
-39.53
-44.37
-49.25
-53.24
-55.24
-54.30
-49.93
-42.32
-32.39
-21.49
-10.95
-1.76
5.70
11.52
16.00
19.40
21.81
23.20
23.54
22.98
21.86
20.63
19.68
19.24
19.38
19.98
20.87
21.93
22.99
23.90
24.49
24.60
24.11
22.98
21.29
19.06
16.37
13.25
9.76
6.04
2.31
-1.26
-4.57
-7.62
-10.56
-13.54
-16.69
-20.11
-23.89
-27.97
-32.18
-35.99
-38.62
-39.19
-37.01
-31.92
-24.28
-14.97
-5.11
4.31
12.61
19.47
24.80
28.63
31.01
32.01
31.80
30.65
28.94
27.10
25.49
24.32
23.68
23.56
23.85
24.46
25.30
26.24
27.11
27.68
27.64
26.80
25.05
22.50
19.38
16.01
12.56
9.08
5.53
1.79
-2.10
-6.05
-9.90
-13.46
-16.69
-19.58
-22.19
-24.64
-27.08
-29.73
-32.83
-36.61
-40.89
-45.14
-48.39
-49.56
-47.79
-42.83
-35.14
-25.71
-15.74
-6.20
2.25
9.37
15.11
19.52
22.67
24.66
25.67
25.98
25.90
25.70
25.54
25.42
25.31
25.15
24.90
24.61
24.36
24.25
24.32
24.47
24.46
23.99
22.76
20.64
17.78
14.50
11.26
8.40
6.01
3.93
1.77
-0.78
-3.88
-7.44
-11.20
-14.85
-18.19
-21.13
-23.73
-26.17
-28.73
-31.74
-35.46
-39.88
-44.63
-48.84
-51.42
-51.39
-48.29
-42.34
-34.43
-25.70
-17.21
-9.55
-2.88
2.86
7.77
11.83
14.97
17.08
18.17
18.38
17.92
17.00
15.87
14.78
13.91
13.43
13.39
13.79
14.53
15.42
16.27
16.83
16.86
16.18
14.77
12.76
10.33
7.69
4.90
1.89
-1.43
-5.09
-8.94
-12.76
-16.26
-19.33
-22.00
-24.44
-26.84
-29.39
-32.24
-35.47
-38.99
-42.45
-45.24
-46.47
-45.35
-41.37
-34.67
-25.96
-16.27
-6.62
2.20
9.82
16.16
21.18
24.95
27.43
28.66
28.76
27.92
26.47
24.75
23.13
21.85
21.07
20.78
20.87
21.18
21.53
21.84
22.06
22.15
21.99
21.42
20.25
18.41
15.98
13.07
9.84
6.37
2.66
-1.27
-5.33
-9.36
-13.20
-16.75
-20.12
-23.50
-27.18
-31.30
-35.68
-39.78
-42.73
-43.57
-41.61
-36.62
-29.06
-19.85
-10.15
-1.01
6.97
13.55
18.81
22.89
25.88
27.78
28.52
28.21
27.13
25.67
24.25
23.16
22.51
22.23
22.20
22.35
22.67
23.19
23.85
24.43
24.60
23.97
22.34
19.75
16.47
12.93
9.44
6.12
2.91
-0.39
-3.88
-7.53
-11.19
-14.69
-17.93
-20.91
-23.70
-26.40
-29.15
-32.15
-35.63
-39.68
-44.10
-48.28
-51.27
-52.07
-49.95
-44.85
-37.31
-28.37
-19.06
-10.22
-2.28
4.58
10.32
14.93
18.38
20.76
22.29
23.27
23.95
24.47
24.85
25.11
25.33
25.69
26.34
27.29
28.39
29.38
30.02
30.18
29.85
29.04
27.69
25.69
22.93
19.42
15.38
11.18
7.24
3.90
1.23
-0.87
-2.72
-4.69
-7.04
-9.81
-12.87
-15.95
-18.74
-21.11
-23.07
-24.89
-26.90
-29.40
-32.63
-36.60
-41.11
-45.58
-49.14
-50.77
-49.65
-45.44
-38.46
-29.65
-20.17
-11.04
-2.90
4.01
9.76
14.42
17.95
20.29
21.38
21.34
20.48
19.22
18.01
17.17
16.87
17.11
17.77
18.65
19.59
20.51
21.32
21.95
22.26
22.04
21.07
19.24
16.57
13.29
9.71
6.14
2.78
-0.29
-3.20
-6.12
-9.21
-12.51
-15.87
-19.03
-21.74
-23.91
-25.68
-27.44
-29.66
-32.71
-36.74
-41.46
-46.18
-49.96
-51.76
-50.79
-46.70
-39.69
-30.49
-20.12
-9.64
0.11
8.48
15.15
20.01
23.12
24.72
25.08
24.54
23.47
22.19
21.01
20.16
19.88
20.25
21.25
22.73
24.44
26.11
27.53
28.52
28.95
28.72
27.77
26.15
24.00
21.50
18.75
15.83
12.71
9.41
5.92
2.31
-1.25
-4.67
-7.88
-10.91
-13.90
-17.08
-20.72
-25.09
-30.28
-35.98
-41.47
-45.65
-47.37
-45.78
-40.74
-32.78
-23.02
-12.75
-3.05
5.45
12.50
18.18
22.56
25.64
27.40
27.91
27.45
26.46
25.51
25.00
25.10
25.67
26.38
26.94
27.18
27.20
27.15
27.15
27.15
26.97
26.38
25.20
23.35
20.89
17.93
14.67
11.32
8.00
4.82
1.79
-1.21
-4.34
-7.70
-11.28
-14.93
-18.46
-21.74
-24.84
-27.92
-31.27
-35.10
-39.48
-44.12
-48.45
-51.62
-52.73
-51.11
-46.51
-39.26
-30.16
-20.22
-10.43
-1.53
6.03
12.08
16.54
19.51
21.09
21.54
21.18
20.36
19.39
18.54
18.02
17.88
18.15
18.76
19.63
20.66
21.77
22.86
23.81
24.44
24.47
23.67
21.88
19.16
15.73
11.94
8.14
4.56
1.24
-2.01
-5.42
-9.19
-13.33
-17.61
-21.66
-25.14
-27.87
-29.92
-31.61
-33.37
-35.61
-38.59
-42.21
-46.08
-49.50
-51.60
-51.60
-49.04
-43.93
-36.72
-28.15
-19.02
-9.99
-1.61
5.78
11.88
16.46
19.44
20.92
21.19
20.76
20.10
19.59
19.42
19.51
19.74
19.95
20.08
20.21
20.56
21.24
22.26
23.40
24.22
24.33
23.41
21.38
18.37
14.65
10.52
6.30
2.21
-1.59
-5.11
-8.47
-11.93
-15.81
-20.24
-25.11
-29.89
-33.76
-35.83
-35.41
-32.31
-26.78
-19.48
-11.27
-2.95
4.89
11.90
17.87
22.77
26.56
29.26
30.92
31.73
31.92
31.72
31.37
30.97
30.60
30.31
30.10
29.99
30.05
30.25
30.62
31.10
31.52
31.69
31.31
30.08
27.85
24.69
20.86
16.77
12.81
9.21
5.99
2.98
-0.08
-3.40
-7.09
-11.05
-15.08
-18.90
-22.31
-25.26
-27.83
-30.30
-32.95
-36.12
-40.01
-44.59
-49.52
-54.06
-57.27
-58.12
-55.96
-50.66
-42.80
-33.39
-23.52
-14.10
-5.65
1.69
7.96
13.15
17.20
19.99
21.55
22.09
22.02
21.78
21.72
21.97
22.44
22.91
23.23
23.38
23.49
23.69
24.02
24.34
24.38
23.82
22.42
20.19
17.29
13.99
10.54
7.13
3.75
0.38
-3.05
-6.56
-10.11
-13.61
-16.96
-20.06
-22.91
-25.57
-28.23
-31.12
-34.46
-38.34
-42.58
-46.68
-49.88
-51.32
-50.32
-46.57
-40.33
-32.28
-23.29
-14.23
-5.69
2.00
8.73
14.37
18.78
21.79
23.27
23.36
22.49
21.21
20.13
19.62
19.87
20.80
22.23
23.87
25.43
26.66
27.40
27.52
26.99
25.86
24.22
22.12
19.59
16.60
13.13
9.22
4.99
0.67
-3.46
-7.10
-10.08
-12.34
-14.02
-15.45
-17.09
-19.39
-22.66
-26.91
-31.75
-36.36
-39.67
-40.64
-38.58
-33.39
-25.65
-16.35
-6.64
2.54
10.62
17.40
22.87
27.08
30.05
31.76
32.31
31.87
30.79
29.45
28.14
27.02
26.12
25.39
24.77
24.26
23.92
23.79
23.83
23.80
23.43
22.40
20.59
18.10
15.22
12.34
9.71
7.40
5.20
2.85
0.12
-3.05
-6.53
-10.05
-13.36
-16.32
-18.92
-21.35
-23.83
-26.69
-30.17
-34.41
-39.29
-44.32
-48.62
-51.11
-50.82
-47.26
-40.64
-31.84
-22.04
-12.39
-3.64
3.88
10.13
15.14
18.88
21.25
22.26
22.08
21.07
19.68
18.30
17.18
16.34
15.76
15.40
15.30
15.50
15.98
16.60
17.08
17.16
16.65
15.49
13.79
11.64
9.13
6.34
3.33
0.20
-2.90
-5.78
-8.34
-10.56
-12.51
-14.28
-15.92
-17.51
-19.17
-21.10
-23.58
-26.90
-31.11
-35.96
-40.75
-44.50
-46.14
-44.95
-40.75
-33.93
-25.37
-16.09
-6.96
1.38
8.59
14.54
19.22
22.66
24.94
26.19
26.61
26.49
26.13
25.81
25.76
26.06
26.60
27.16
27.52
27.49
27.02
26.16
25.06
23.90
22.75
21.59
20.23
18.47
16.07
12.96
9.23
5.11
0.96
-2.98
-6.56
-9.80
-12.83
-15.83
-19.07
-22.75
-27.03
-31.81
-36.67
-40.81
-43.25
-43.10
-39.87
-33.71
-25.32
-15.72
-5.97
3.16
11.21
18.02
23.46
27.46
29.95
30.97
30.72
29.63
28.16
26.72
25.52
24.59
23.89
23.33
22.95
22.81
23.01
23.46
24.03
24.44
24.39
23.68
22.25
20.16
17.54
14.60
11.47
8.27
5.06
1.88
-1.25
-4.33
-7.34
-10.27
-13.12
-15.89
-18.67
-21.54
-24.64
-28.12
-32.10
-36.50
-41.00
-44.93
-47.32
-47.29
-44.32
-38.55
-30.75
-22.03
-13.45
-5.65
1.17
7.06
12.06
16.10
18.99
20.67
21.28
21.19
20.86
20.57
20.48
20.57
20.79
21.04
21.28
21.47
21.54
21.40
21.01
20.33
19.36
18.14
16.65
14.91
12.90
10.65
8.13
5.40
2.44
-0.76
-4.19
-7.83
-11.58
-15.30
-18.79
-21.93
-24.66
-27.07
-29.43
-32.06
-35.31
-39.28
-43.73
-47.99
-51.11
-52.13
-50.36
-45.63
-38.38
-29.44
-19.84
-10.48
-1.98
5.31
11.28
15.92
19.25
21.32
22.21
22.07
21.13
19.68
18.09
16.69
15.73
15.30
15.36
15.73
16.22
16.66
16.96
17.06
16.90
16.40
15.48
14.18
12.58
10.76
8.79
6.58
4.03
1.08
-2.20
-5.62
-8.89
-11.81
-14.36
-16.78
-19.41
-22.58
-26.42
-30.70
-34.85
-37.99
-39.23
-37.88
-33.78
-27.31
-19.27
-10.62
-2.17
5.58
12.40
18.13
22.67
25.84
27.56
27.93
27.27
26.06
24.84
23.93
23.47
23.40
23.53
23.71
23.93
24.29
24.93
25.90
27.08
28.12
28.57
28.05
26.42
23.86
20.70
17.30
13.86
10.40
6.82
3.07
-0.79
-4.59
-8.13
-11.36
-14.31
-17.15
-20.02
-23.06
-26.44
-30.30
-34.76
-39.66
-44.53
-48.52
-50.60
-49.94
-46.15
-39.52
-30.91
-21.46
-12.27
-4.15
2.53
7.77
11.73
14.66
16.72
17.99
18.53
18.44
17.92
17.19
16.50
16.06
15.99
16.36
17.14
18.22
19.41
20.49
21.25
21.59
21.45
20.85
19.81
18.37
16.55
14.34
11.73
8.76
5.43
1.76
-2.12
-6.02
-9.75
-13.15
-16.16
-18.85
-21.38
-24.02
-27.05
-30.71
-34.98
-39.57
-43.75
-46.57
-47.10
-44.79
-39.64
-32.21
-23.44
-14.27
-5.51
2.33
8.95
14.19
17.98
20.26
21.14
20.82
19.66
18.08
16.50
15.24
14.43
14.06
14.05
14.31
14.82
15.55
16.41
17.26
17.85
17.96
17.49
16.39
14.77
12.73
10.29
7.41
4.09
0.36
-3.62
-7.58
-11.31
-14.65
-17.59
-20.24
-22.74
-25.28
-28.03
-31.15
-34.69
-38.59
-42.49
-45.81
-47.67
-47.25
-43.98
-37.88
-29.55
-20.03
-10.45
-1.71
5.67
11.58
16.14
19.47
21.65
22.71
22.71
21.87
20.55
19.19
18.17
17.76
18.05
18.93
20.22
21.59
22.69
23.31
23.35
22.86
21.98
20.75
19.10
16.84
13.80
10.02
5.80
1.63
-2.08
-5.15
-7.73
-10.14
-12.71
-15.67
-19.06
-22.91
-27.24
-32.03
-37.05
-41.68
-44.97
-45.81
-43.48
-37.91
-29.73
-20.11
-10.25
-1.06
6.96
13.68
19.13
23.31
26.23
27.92
28.52
28.38
27.84
27.26
26.82
26.55
26.40
26.28
26.09
25.80
25.44
25.03
24.56
23.93
22.96
21.49
19.41
16.73
13.51
9.90
6.01
1.95
-2.18
-6.26
-10.12
-13.63
-16.70
-19.41
-21.95
-24.60
-27.57
-31.02
-34.98
-39.31
-43.62
-47.26
-49.41
-49.23
-46.19
-40.22
-31.94
-22.30
-12.44
-3.25
4.75
11.40
16.75
20.87
23.83
25.60
26.19
25.72
24.43
22.69
20.90
19.44
18.52
18.20
18.31
18.55
18.66
18.47
17.96
17.24
16.38
15.39
14.16
12.52
10.32
7.49
4.06
0.19
-3.93
-8.05
-12.01
-15.65
-18.85
-21.56
-23.82
-25.80
-27.80
-30.19
-33.23
-36.83
-40.47
-43.23
-44.16
-42.49
-38.05
-31.25
-22.93
-14.07
-5.42
2.48
9.37
15.08
19.57
22.80
24.84
25.85
26.08
25.81
25.32
24.90
24.72
24.92
25.49
26.27
27.02
27.55
27.77
27.71
27.44
26.92
26.04
24.58
22.38
19.41
15.86
11.97
7.98
4.08
0.31
-3.34
-6.94
-10.52
-14.18
-18.10
-22.44
-27.30
-32.53
-37.59
-41.64
-43.70
-42.99
-39.23
-32.76
-24.44
-15.35
-6.42
1.68
8.68
14.53
19.29
23.01
25.69
27.35
28.07
28.00
27.36
26.36
25.23
24.12
23.10
22.24
21.56
21.09
20.84
20.79
20.85
20.76
20.24
19.04
17.08
14.52
11.67
8.89
6.35
3.97
1.47
-1.44
-4.81
-8.46
-11.97
-14.99
-17.34
-19.12
-20.64
-22.29
-24.40
-27.20
-30.73
-34.85
-39.08
-42.68
-44.70
-44.32
-41.13
-35.30
-27.51
-18.73
-9.91
-1.78
5.29
11.14
15.76
19.23
21.63
23.08
23.76
23.81
23.38
22.58
21.54
20.45
19.48
18.80
18.47
18.47
18.66
18.83
18.76
18.27
17.32
15.95
14.32
12.62
11.02
9.56
8.18
6.68
4.80
2.38
-0.63
-4.13
-7.87
-11.53
-14.88
-17.80
-20.38
-22.93
-25.84
-29.44
-33.76
-38.43
-42.58
-45.16
-45.22
-42.29
-36.53
-28.60
-19.41
-9.83
-0.57
7.89
15.17
21.00
25.19
27.66
28.53
28.09
26.78
25.12
23.59
22.51
22.04
22.12
22.53
22.99
23.23
23.14
22.70
22.02
21.09
19.91
18.38
16.47
14.19
11.68
9.06
6.43
3.82
1.15
-1.63
-4.53
-7.49
-10.43
-13.30
-16.18
-19.25
-22.74
-26.79
-31.33
-36.02
-40.17
-42.87
-43.20
-40.55
-34.90
-26.89
-17.59
-8.16
0.54
8.13
14.67
20.30
25.09
28.86
31.32
32.34
32.05
30.82
29.20
27.66
26.48
25.74
25.42
25.40
25.63
25.99
26.35
26.59
26.50
25.93
24.73
22.77
20.06
16.69
12.84
8.77
4.75
0.94
-2.60
-5.89
-8.99
-11.98
-14.91
-17.74
-20.51
-23.21
-25.97
-28.97
-32.41
-36.45
-40.98
-45.49
-49.12
-50.88
-50.02
-46.28
-40.05
-32.13
-23.45
-14.76
-6.57
0.82
7.19
12.28
15.93
18.09
18.97
18.96
18.57
18.16
17.97
18.01
18.17
18.36
18.55
18.80
19.20
19.86
20.75
21.65
22.23
22.11
21.06
19.05
16.33
13.29
10.35
7.80
5.69
3.85
1.98
-0.20
-2.80
-5.71
-8.75
-11.64
-14.25
-16.58
-18.72
-20.90
-23.33
-26.27
-29.88
-34.18
-38.82
-43.18
-46.37
-47.45
-45.85
-41.44
-34.66
-26.36
-17.45
-8.76
-0.89
5.83
11.25
15.27
17.90
19.20
19.30
18.51
17.27
15.98
15.00
14.46
14.33
14.37
14.40
14.29
14.07
13.91
13.95
14.26
14.74
15.18
15.33
14.95
13.91
12.16
9.75
6.82
3.57
0.22
-3.03
-6.09
-8.96
-11.78
-14.68
-17.79
-21.18
-24.85
-28.75
-32.67
-36.28
-38.99
-40.10
-39.00
-35.40
-29.52
-22.04
-13.86
-5.74
1.82
8.65
14.66
19.73
23.60
26.10
27.15
27.02
26.13
24.96
23.89
23.09
22.54
22.20
22.02
21.99
22.09
22.19
22.11
21.65
20.66
19.09
17.06
14.83
12.64
10.60
8.63
6.47
3.90
0.84
-2.58
-5.99
-9.13
-11.96
-14.65
-17.55
-21.00
-25.11
-29.81
-34.83
-39.82
-44.31
-47.67
-49.23
-48.35
-44.75
-38.64
-30.70
-21.85
-13.06
-5.07
1.71
7.14
11.29
14.29
16.31
17.53
18.13
18.30
18.23
18.11
18.11
18.32
18.72
19.21
19.64
19.88
19.84
19.50
18.88
17.96
16.78
15.33
13.71
11.92
9.92
7.60
4.81
1.52
-2.19
-6.03
-9.69
-12.97
-15.82
-18.34
-20.72
-23.06
-25.47
-27.99
-30.72
-33.77
-37.21
-40.76
-43.81
-45.39
-44.58
-40.82
-34.18
-25.41
-15.62
-6.01
2.57
9.71
15.39
19.75
22.91
24.85
25.49
24.85
23.21
21.02
18.90
17.32
16.55
16.50
16.87
17.31
17.58
17.71
17.75
17.83
17.93
17.83
17.25
15.96
13.86
11.02
7.69
4.09
0.50
-2.95
-6.27
-9.50
-12.73
-16.04
-19.51
-23.15
-27.07
-31.26
-35.53
-39.48
-42.34
-43.22
-41.39
-36.61
-29.19
-20.07
-10.42
-1.29
6.65
13.18
18.36
22.36
25.32
27.27
28.24
28.31
27.70
26.73
25.77
25.08
24.86
25.16
25.90
26.91
27.99
28.93
29.53
29.61
29.07
27.83
25.94
23.54
20.79
17.84
14.77
11.53
8.01
4.10
-0.24
-4.91
-9.68
-14.29
-18.48
-22.21
-25.57
-28.86
-32.42
-36.54
-41.13
-45.76
-49.60
-51.70
-51.32
-48.13
-42.34
-34.56
-25.57
-16.11
-6.81
1.85
9.40
15.46
19.79
22.39
23.47
23.43
22.68
21.57
20.35
19.23
18.39
17.98
18.04
18.46
19.05
19.61
20.01
20.19
20.11
19.64
18.62
17.00
14.86
12.45
10.06
7.83
5.74
3.56
1.08
-1.81
-5.00
-8.27
-11.38
-14.16
-16.58
-18.68
-20.58
-22.55
-24.99
-28.19
-32.24
-36.76
-40.86
-43.37
-43.23
-39.92
-33.63
-25.22
-15.81
-6.47
2.06
9.38
15.32
19.81
22.84
24.53
25.12
24.92
24.25
23.33
22.31
21.25
20.32
19.67
19.43
19.61
20.12
20.72
21.19
21.44
21.42
21.17
20.63
19.66
18.09
15.83
12.88
9.40
5.67
1.87
-1.76
-5.16
-8.29
-11.21
-13.99
-16.81
-19.82
-23.16
-26.91
-30.98
-35.10
-38.77
-41.22
-41.68
-39.53
-34.57
-27.15
-18.10
-8.41
0.96
9.32
16.31
21.80
25.76
28.25
29.38
29.30
28.36
26.96
25.52
24.46
23.99
24.16
24.82
25.64
26.29
26.52
26.19
25.38
24.24
22.89
21.37
19.67
17.66
15.28
12.49
9.31
5.79
2.03
-1.91
-5.92
-9.83
-13.50
-16.83
-19.87
-22.84
-26.05
-29.87
-34.48
-39.69
-44.91
-49.17
-51.35
-50.59
-46.53
-39.47
-30.33
-20.31
-10.55
-1.88
5.31
10.97
15.27
18.32
20.21
20.94
20.63
19.52
18.01
16.50
15.39
14.89
15.01
15.66
16.62
17.67
18.65
19.38
19.81
19.87
19.47
18.61
17.22
15.33
12.98
10.21
7.07
3.63
-0.06
-3.94
-7.89
-11.80
-15.48
-18.86
-21.88
-24.63
-27.31
-30.15
-33.37
-36.98
-40.66
-43.81
-45.60
-45.23
-42.25
-36.73
-29.23
-20.67
-11.95
-3.76
3.52
9.81
15.08
19.26
22.20
23.77
23.94
22.98
21.30
19.43
17.84
16.79
16.39
16.51
17.04
17.86
18.90
20.03
21.08
21.79
21.88
21.17
19.64
17.47
14.90
12.15
9.33
6.41
3.37
0.20
-3.03
-6.18
-9.17
-11.91
-14.39
-16.69
-18.94
-21.32
-24.08
-27.37
-31.12
-34.92
-38.02
-39.45
-38.42
-34.60
-28.26
-20.18
-11.37
-2.75
5.01
11.53
16.68
20.40
22.64
23.43
22.93
21.47
19.53
17.59
16.05
15.12
14.86
15.13
15.75
16.52
17.29
17.92
18.31
18.45
18.28
17.80
16.93
15.62
13.73
11.18
7.96
4.19
0.15
-3.89
-7.68
-11.14
-14.31
-17.35
-20.47
-23.84
-27.56
-31.58
-35.67
-39.30
-41.78
-42.34
-40.41
-35.82
-28.83
-20.17
-10.82
-1.76
6.23
12.74
17.64
21.01
23.07
24.08
24.24
23.72
22.72
21.43
20.11
18.99
18.27
18.06
18.37
19.09
20.02
20.94
21.57
21.73
21.31
20.30
18.76
16.78
14.44
11.75
8.69
5.26
1.55
-2.28
-5.93
-9.22
-12.04
-14.48
-16.77
-19.17
-21.90
-25.07
-28.77
-33.04
-37.80
-42.73
-47.11
-49.93
-50.16
-47.15
-40.99
-32.44
-22.73
-13.06
-4.29
3.20
9.34
14.17
17.68
19.80
20.52
20.03
18.70
17.08
15.71
14.96
15.02
15.75
16.88
18.05
18.96
19.50
19.66
19.51
19.09
18.30
17.05
15.26
13.03
10.63
8.35
6.40
4.75
3.17
1.36
-0.88
-3.58
-6.59
-9.70
-12.72
-15.57
-18.27
-21.00
-24.02
-27.66
-32.15
-37.38
-42.77
-47.29
-49.71
-49.06
-45.00
-37.96
-28.91
-19.03
-9.34
-0.47
7.24
13.64
18.61
22.03
23.85
24.21
23.37
21.80
19.96
18.27
17.03
16.40
16.33
16.71
17.41
18.24
19.12
19.96
20.58
20.77
20.37
19.23
17.31
14.65
11.42
7.73
3.76
-0.32
-4.38
-8.31
-12.06
-15.62
-19.03
-22.39
-25.80
-29.40
-33.22
-37.08
-40.46
-42.55
-42.46
-39.52
-33.57
-25.11
-15.14
-4.80
4.89
13.30
20.16
25.48
29.36
31.85
33.05
33.09
32.21
30.73
29.10
27.69
26.81
26.57
26.90
27.56
28.21
28.58
28.43
27.68
26.35
24.52
22.29
19.65
16.64
13.23
9.43
5.29
0.88
-3.62
-8.07
-12.27
-16.05
-19.30
-22.02
-24.35
-26.57
-29.07
-32.20
-36.16
-40.74
-45.25
-48.67
-49.88
-48.11
-43.22
-35.69
-26.48
-16.71
-7.30
1.14
8.30
14.05
18.38
21.33
22.96
23.45
23.06
22.08
20.86
19.68
18.79
18.30
18.20
18.38
18.72
19.14
19.62
20.11
20.55
20.78
20.60
19.82
18.44
16.52
14.30
11.99
9.72
7.52
5.30
2.88
0.12
-3.04
-6.61
-10.41
-14.17
-17.63
-20.56
-22.90
-24.83
-26.75
-29.09
-32.24
-36.21
-40.60
-44.56
-47.06
-47.08
-44.06
-38.00
-29.47
-19.48
-9.12
0.66
9.18
16.09
21.23
24.61
26.31
26.51
25.52
23.76
21.75
19.93
18.65
18.01
17.94
18.23
18.68
19.10
19.46
19.70
19.82
19.80
19.57
19.05
18.22
17.05
15.59
13.93
12.25
10.68
9.36
8.25
7.15
5.79
3.89
1.30
-1.85
-5.23
-8.47
-11.29
-13.67
-15.84
-18.18
-21.05
-24.65
-28.91
-33.42
-37.47
-40.16
-40.64
-38.32
-33.08
-25.37
-16.07
-6.30
2.95
10.99
17.53
22.50
25.99
28.03
28.62
27.88
26.08
23.77
21.56
19.97
19.19
19.10
19.37
19.75
20.16
20.74
21.64
22.80
23.89
24.43
24.00
22.47
20.07
17.24
14.34
11.59
8.91
6.06
2.84
-0.79
-4.66
-8.42
-11.74
-14.51
-16.76
-18.73
-20.68
-22.82
-25.32
-28.34
-31.94
-35.99
-40.09
-43.54
-45.42
-44.93
-41.63
-35.63
-27.54
-18.27
-8.69
0.42
8.55
15.38
20.72
24.54
26.86
27.89
27.90
27.28
26.43
25.71
25.35
25.43
25.84
26.37
26.80
27.03
27.08
27.05
26.99
26.86
26.47
25.62
24.15
22.07
19.48
16.61
13.65
10.74
7.89
5.04
2.09
-1.10
-4.56
-8.25
-11.97
-15.46
-18.50
-20.98
-23.03
-24.97
-27.21
-30.12
-33.89
-38.38
-43.11
-47.34
-50.19
-50.89
-49.03
-44.58
-37.96
-29.86
-21.10
-12.35
-4.15
3.14
9.23
13.92
17.13
18.95
19.59
19.42
18.85
18.23
17.78
17.62
17.68
17.88
18.12
18.35
18.57
18.83
19.16
19.54
19.87
19.99
19.75
19.00
17.67
15.75
13.33
10.58
7.69
4.90
2.29
-0.16
-2.54
-4.97
-7.50
-10.08
-12.59
-14.90
-16.92
-18.67
-20.28
-22.00
-24.12
-26.91
-30.51
-34.76
-39.18
-42.94
-45.04
-44.69
-41.50
-35.70
-27.98
-19.30
-10.52
-2.28
5.08
11.33
16.27
19.69
21.50
21.77
20.88
19.36
17.82
16.66
16.05
15.98
16.32
16.94
17.73
18.54
19.21
19.53
19.29
18.41
16.91
14.91
12.58
10.03
7.30
4.32
1.00
-2.72
-6.77
-11.00
-15.14
-18.93
-22.18
-24.80
-26.86
-28.57
-30.20
-32.07
-34.35
-37.11
-40.11
-42.85
-44.64
-44.76
-42.70
-38.27
-31.74
-23.71
-14.92
-6.13
2.05
9.10
14.68
18.61
20.87
21.59
21.09
19.73
18.00
16.27
14.87
14.01
13.77
14.07
14.76
15.62
16.49
17.26
17.93
18.50
18.91
18.95
18.37
16.90
14.43
11.02
6.93
2.54
-1.84
-6.05
-10.09
-14.15
-18.43
-23.13
-28.22
-33.47
-38.28
-41.88
-43.41
-42.21
-38.07
-31.28
-22.57
-12.88
-3.15
5.88
13.77
20.27
25.29
28.81
30.84
31.49
30.93
29.43
27.34
25.00
22.75
20.91
19.67
19.12
19.21
19.79
20.60
21.46
22.11
22.38
22.19
21.40
20.00
18.00
15.47
12.52
9.34
6.07
2.77
-0.57
-3.97
-7.50
-11.12
-14.84
-18.63
-22.48
-26.49
-30.83
-35.68
-41.02
-46.56
-51.56
-55.09
-56.24
-54.34
-49.29
-41.51
-31.80
-21.18
-10.55
-0.67
7.89
14.80
19.92
23.36
25.39
26.34
26.45
25.90
24.76
23.19
21.45
19.87
18.71
18.07
17.81
17.65
17.31
16.73
16.04
15.42
14.96
14.53
13.79
12.35
9.94
6.55
2.37
-2.24
-6.95
-11.46
-15.59
-19.30
-22.60
-25.62
-28.56
-31.67
-35.17
-39.16
-43.32
-47.02
-49.39
-49.50
-46.75
-41.01
-32.73
-22.76
-12.15
-1.85
7.41
15.12
21.03
24.99
27.12
27.69
27.16
26.02
24.76
23.66
22.81
22.19
21.66
21.17
20.71
20.33
20.07
19.91
19.77
19.49
18.89
17.69
15.72
12.88
9.21
4.92
0.35
-4.10
-8.15
-11.65
-14.64
-17.41
-20.36
-23.85
-28.07
-32.83
-37.46
-40.93
-42.12
-40.28
-35.25
-27.54
-18.13
-8.04
1.88
11.09
19.19
25.94
31.06
34.34
35.81
35.75
34.64
33.01
31.29
29.73
28.47
27.59
27.17
27.23
27.70
28.44
29.14
29.52
29.34
28.44
26.83
24.58
21.82
18.68
15.31
11.81
8.24
4.59
0.85
-3.03
-7.03
-11.12
-15.19
-19.12
-22.82
-26.26
-29.53
-32.85
-36.54
-40.91
-46.11
-51.84
-57.26
-61.16
-62.21
-59.47
-52.71
-42.47
-29.94
-16.47
-3.32
8.57
18.60
26.42
31.95
35.31
36.87
37.12
36.61
35.82
34.98
34.19
33.39
32.57
31.76
31.08
30.61
30.36
30.24
30.08
29.69
28.97
27.86
26.33
24.42
22.10
19.38
16.31
12.92
9.31
5.55
1.65
-2.40
-6.54
-10.66
-14.65
-18.39
-21.89
-25.23
-28.59
-32.18
-36.21
-40.79
-45.83
-50.87
-55.12
-57.54
-57.18
-53.44
-46.39
-36.67
-25.29
-13.39
-1.89
8.51
17.29
24.13
28.84
31.45
32.22
31.58
30.08
28.24
26.44
24.90
23.77
23.08
22.82
22.88
23.14
23.42
23.55
23.39
22.84
21.83
20.35
18.39
15.97
13.15
9.99
6.56
2.89
-0.98
-5.05
-9.31
-13.65
-17.87
-21.68
-24.91
-27.51
-29.69
-31.85
-34.49
-37.97
-42.28
-46.92
-50.94
-53.16
-52.52
-48.42
-40.98
-30.96
-19.55
-8.04
2.52
11.52
18.65
23.95
27.54
29.56
30.17
29.61
28.15
26.12
23.90
21.77
20.01
18.76
18.14
18.13
18.64
19.52
20.51
21.40
21.97
22.07
21.66
20.66
18.97
16.44
13.01
8.76
3.95
-1.03
-5.79
-10.04
-13.72
-16.96
-19.99
-23.10
-26.52
-30.38
-34.62
-38.86
-42.42
-44.39
-43.87
-40.25
-33.45
-24.02
-12.97
-1.49
9.31
18.63
26.00
31.28
34.54
35.98
35.89
34.70
32.89
30.95
29.25
28.02
27.28
26.94
26.83
26.81
26.73
26.55
26.19
25.59
24.62
23.20
21.29
18.93
16.19
13.16
9.87
6.32
2.49
-1.62
-5.88
-10.11
-14.08
-17.64
-20.77
-23.62
-26.46
-29.61
-33.36
-37.85
-42.96
-48.18
-52.64
-55.28
-55.10
-51.54
-44.63
-35.06
-23.98
-12.64
-2.08
7.06
14.53
20.35
24.60
27.42
28.97
29.47
29.18
28.39
27.41
26.46
25.76
25.39
25.42
25.81
26.44
27.08
27.47
27.37
26.68
25.41
23.69
21.68
19.47
17.01
14.24
11.01
7.33
3.21
-1.22
-5.76
-10.31
-14.70
-18.82
-22.57
-25.92
-28.97
-31.99
-35.33
-39.25
-43.77
-48.36
-52.09
-53.84
-52.64
-48.05
-40.32
-30.23
-18.92
-7.52
3.02
12.03
19.06
23.93
26.65
27.43
26.64
24.78
22.29
19.62
17.14
15.11
13.76
13.20
13.36
14.05
15.05
16.10
17.10
17.90
18.41
18.52
18.09
17.05
15.40
13.21
10.55
7.50
4.12
0.46
-3.37
-7.23
-11.02
-14.66
-18.09
-21.31
-24.25
-26.94
-29.50
-32.20
-35.41
-39.36
-43.86
-48.21
-51.30
-51.94
-49.36
-43.52
-35.11
-25.31
-15.28
-5.88
2.45
9.67
15.81
20.86
24.70
27.25
28.54
28.78
28.36
27.70
27.16
26.97
27.17
27.63
28.18
28.65
28.95
29.13
29.26
29.36
29.27
28.65
27.09
24.28
20.23
15.20
9.79
4.62
0.15
-3.44
-6.27
-8.66
-10.95
-13.48
-16.53
-20.23
-24.56
-29.21
-33.57
-36.71
-37.70
-35.85
-31.00
-23.63
-14.64
-5.13
3.90
11.76
18.12
22.96
26.46
28.84
30.23
30.65
30.08
28.54
26.21
23.46
20.80
18.72
17.46
17.01
17.14
17.53
17.92
18.15
18.13
17.82
17.12
15.95
14.23
11.93
9.03
5.60
1.75
-2.34
-6.41
-10.17
-13.43
-16.13
-18.43
-20.60
-22.93
-25.66
-28.93
-32.80
-37.19
-41.82
-46.07
-49.13
-50.08
-48.23
-43.38
-35.97
-26.87
-17.16
-7.76
0.77
8.19
14.43
19.39
22.92
24.84
25.19
24.20
22.37
20.26
18.37
17.01
16.24
15.99
16.07
16.32
16.55
16.64
16.48
16.04
15.33
14.34
13.14
11.76
10.20
8.45
6.51
4.39
2.10
-0.33
-2.92
-5.62
-8.36
-11.07
-13.70
-16.31
-19.05
-22.17
-25.93
-30.44
-35.62
-41.11
-46.31
-50.46
-52.78
-52.68
-49.93
-44.74
-37.68
-29.53
-21.04
-12.80
-5.25
1.25
6.40
9.89
11.59
11.54
10.12
7.87
5.37
3.08
1.34
0.31
0.10
0.75
2.26
4.49
7.22
10.16
13.04
15.59
17.55
18.65
18.59
17.16
14.34
10.32
5.58
0.69
-3.88
-7.94
-11.62
-15.26
-19.26
-23.85
-28.96
-34.16
-38.78
-41.96
-43.00
-41.47
-37.27
-30.73
-22.40
-13.02
-3.36
5.83
13.87
20.20
24.49
26.68
27.00
25.91
23.94
21.55
19.06
16.74
14.78
13.30
12.38
12.03
12.25
12.98
14.12
15.49
16.81
17.65
17.58
16.31
13.73
10.06
5.70
1.12
-3.30
-7.33
-10.95
-14.32
-17.70
-21.40
-25.63
-30.33
-35.18
-39.48
-42.35
-42.97
-40.76
-35.58
-27.85
-18.34
-8.10
1.87
10.70
17.89
23.24
26.83
28.89
29.71
29.55
28.64
27.19
25.50
23.86
22.58
21.88
21.83
22.38
23.33
24.45
25.48
26.19
26.37
25.84
24.53
22.41
19.56
16.14
12.29
8.12
3.75
-0.72
-5.15
-9.38
-13.32
-16.94
-20.28
-23.48
-26.65
-29.96
-33.55
-37.56
-42.01
-46.62
-50.79
-53.59
-54.01
-51.28
-45.19
-36.17
-25.22
-13.55
-2.29
7.76
16.13
22.68
27.38
30.38
31.82
32.00
31.26
30.05
28.80
27.84
27.34
27.30
27.65
28.28
29.13
30.08
31.01
31.69
31.93
31.53
30.39
28.52
25.99
22.91
19.35
15.38
11.06
6.53
1.94
-2.55
-6.83
-10.81
-14.51
-17.97
-21.38
-24.97
-29.05
-33.76
-38.98
-44.19
-48.52
-50.97
-50.70
-47.31
-40.95
-32.23
-22.02
-11.21
-0.58
9.24
17.73
24.51
29.32
32.16
33.18
32.80
31.50
29.76
27.99
26.45
25.27
24.51
24.19
24.35
25.02
26.15
27.59
29.03
30.04
30.25
29.41
27.48
24.69
21.35
17.73
14.00
10.19
6.21
2.00
-2.43
-6.96
-11.38
-15.47
-19.07
-22.13
-24.69
-26.94
-29.15
-31.70
-34.92
-39.01
-43.76
-48.51
-52.19
-53.64
-51.93
-46.77
-38.56
-28.26
-17.08
-6.10
3.92
12.57
19.71
25.33
29.47
32.18
33.53
33.65
32.74
31.13
29.26
27.60
26.52
26.23
26.68
27.65
28.87
30.04
30.96
31.49
31.54
31.02
29.83
27.89
25.22
21.89
18.09
14.03
9.98
6.14
2.56
-0.78
-4.03
-7.35
-10.86
-14.48
-18.06
-21.41
-24.40
-27.01
-29.35
-31.60
-34.04
-37.00
-40.68
-45.12
-49.92
-54.26
-57.02
-57.11
-53.90
-47.41
-38.34
-27.75
-16.71
-6.09
3.60
11.97
18.77
23.73
26.73
27.91
27.62
26.40
24.80
23.26
22.03
21.23
20.88
20.96
21.44
22.25
23.27
24.41
25.51
26.31
26.53
25.81
23.98
21.07
17.43
13.51
9.68
6.16
2.80
-0.59
-4.17
-7.93
-11.67
-15.16
-18.32
-21.24
-24.11
-27.06
-30.09
-33.15
-36.21
-39.40
-42.93
-46.92
-51.13
-54.90
-57.28
-57.24
-54.17
-47.97
-39.16
-28.65
-17.53
-6.84
2.51
9.83
14.60
16.63
16.06
13.60
10.46
8.09
7.84
10.43
15.69
22.63
29.79
35.77
39.74
41.56
41.60
40.40
38.42
35.87
32.91
29.80
26.88
24.61
23.31
23.01
23.50
24.34
25.07
25.40
25.22
24.56
23.53
22.16
20.42
18.21
15.43
12.04
8.18
4.00
-0.24
-4.34
-8.19
-11.78
-15.16
-18.38
-21.51
-24.58
-27.60
-30.62
-33.81
-37.43
-41.72
-46.64
-51.75
-56.12
-58.61
-58.18
-54.30
-47.11
-37.36
-26.08
-14.29
-2.83
7.68
16.73
23.90
28.89
31.55
32.04
30.79
28.42
25.56
22.82
20.64
19.26
18.72
18.91
19.68
20.84
22.28
23.94
25.71
27.39
28.67
29.21
28.71
27.07
24.34
20.83
16.91
12.96
9.19
5.62
2.06
-1.74
-5.92
-10.40
-14.97
-19.30
-23.08
-26.23
-28.77
-30.95
-33.05
-35.44
-38.45
-42.32
-46.96
-51.91
-56.28
-58.93
-58.85
-55.40
-48.65
-39.23
-28.16
-16.50
-5.17
5.17
14.10
21.29
26.55
29.79
31.10
30.79
29.30
27.15
24.81
22.64
20.82
19.43
18.52
18.09
18.25
19.02
20.35
22.02
23.70
24.95
25.41
24.92
23.46
21.25
18.49
15.41
12.10
8.58
4.78
0.71
-3.53
-7.73
-11.65
-15.14
-18.19
-20.96
-23.70
-26.61
-29.89
-33.66
-37.96
-42.62
-47.19
-50.87
-52.61
-51.48
-46.97
-39.26
-29.21
-18.03
-6.88
3.41
12.36
19.80
25.62
29.70
31.92
32.29
31.09
28.83
26.21
23.93
22.49
22.11
22.70
23.99
25.64
27.39
29.03
30.45
31.55
32.18
32.17
31.37
29.66
27.04
23.67
19.75
15.56
11.33
7.16
3.03
-1.20
-5.66
-10.30
-14.95
-19.31
-23.10
-26.24
-28.88
-31.42
-34.36
-38.16
-43.01
-48.65
-54.37
-59.07
-61.52
-60.74
-56.33
-48.52
-38.18
-26.50
-14.59
-3.33
6.75
15.34
22.27
27.40
30.69
32.26
32.40
31.59
30.37
29.19
28.33
27.89
27.79
27.87
28.00
28.15
28.31
28.50
28.65
28.61
28.17
27.11
25.35
22.94
20.06
16.94
13.74
10.52
7.21
3.70
-0.14
-4.36
-8.86
-13.42
-17.73
-21.47
-24.48
-26.81
-28.71
-30.62
-33.04
-36.42
-40.91
-46.27
-51.72
-56.09
-58.13
-56.86
-51.98
-43.88
-33.51
-22.03
-10.46
0.46
10.24
18.52
25.01
29.47
31.91
32.57
31.92
30.50
28.81
27.19
25.87
25.03
24.73
25.00
25.73
26.69
27.65
28.36
28.64
28.37
27.45
25.82
23.46
20.49
17.08
13.54
10.15
7.03
4.11
1.13
-2.19
-5.99
-10.20
-14.57
-18.72
-22.45
-25.67
-28.53
-31.29
-34.22
-37.62
-41.62
-46.16
-50.75
-54.60
-56.67
-55.97
-51.97
-44.79
-35.17
-24.20
-12.99
-2.44
6.89
14.61
20.52
24.50
26.57
26.92
25.95
24.16
22.08
20.18
18.79
18.11
18.22
19.00
20.31
21.97
23.74
25.40
26.71
27.38
27.20
26.07
24.07
21.44
18.47
15.33
12.05
8.53
4.66
0.44
-3.98
-8.34
-12.40
-16.02
-19.31
-22.47
-25.78
-29.51
-33.81
-38.64
-43.66
-48.17
-51.21
-51.82
-49.20
-43.12
-33.96
-22.70
-10.60
1.12
11.51
20.05
26.54
31.02
33.70
34.80
34.69
33.77
32.47
31.12
29.94
28.99
28.20
27.53
27.02
26.76
26.90
27.43
28.23
28.94
29.18
28.59
27.03
24.57
21.39
17.72
13.65
9.19
4.28
-1.08
-6.69
-12.26
-17.39
-21.84
-25.48
-28.43
-30.93
-33.31
-35.92
-39.08
-42.98
-47.54
-52.28
-56.32
-58.55
-57.94
-53.88
-46.40
-36.20
-24.39
-12.16
-0.55
9.74
18.25
24.77
29.22
31.63
32.21
31.39
29.74
27.86
26.26
25.19
24.70
24.63
24.71
24.76
24.67
24.47
24.19
23.87
23.39
22.57
21.23
19.22
16.55
13.33
9.74
5.93
1.97
-2.17
-6.50
-11.04
-15.66
-20.16
-24.29
-27.88
-30.90
-33.47
-35.97
-38.79
-42.35
-46.68
-51.34
-55.40
-57.63
-56.95
-52.74
-45.15
-34.94
-23.21
-11.11
0.39
10.59
18.98
25.25
29.28
31.16
31.30
30.25
28.57
26.75
25.10
23.79
22.94
22.64
22.90
23.68
24.76
25.83
26.56
26.68
26.08
24.76
22.82
20.35
17.44
14.12
10.39
6.30
1.95
-2.53
-6.98
-11.25
-15.23
-18.85
-22.09
-25.04
-27.94
-31.14
-35.01
-39.66
-44.78
-49.60
-52.94
-53.69
-51.06
-44.93
-35.83
-24.73
-12.81
-1.16
9.41
18.35
25.42
30.60
34.05
36.02
36.82
36.72
35.96
34.83
33.59
32.52
31.83
31.64
31.91
32.58
33.49
34.47
35.31
35.74
35.49
34.29
32.01
28.66
24.46
19.73
14.84
10.09
5.57
1.30
-2.88
-7.11
-11.45
-15.81
-19.99
-23.79
-27.17
-30.30
-33.53
-37.34
-42.12
-47.90
-54.21
-60.03
-64.06
-65.03
-62.17
-55.37
-45.25
-32.90
-19.54
-6.26
6.07
16.85
25.60
32.02
35.97
37.64
37.49
36.23
34.57
33.08
32.03
31.45
31.21
31.14
31.15
31.22
31.35
31.49
31.56
31.43
31.00
30.08
28.52
26.18
22.97
19.01
14.56
10.02
5.78
2.00
-1.39
-4.67
-8.12
-11.85
-15.73
-19.47
-22.75
-25.45
-27.68
-29.82
-32.39
-35.86
-40.54
-46.34
-52.63
-58.31
-61.99
-62.40
-58.79
-51.22
-40.50
-27.94
-14.92
-2.61
8.23
17.19
24.12
28.98
31.90
33.12
33.02
32.12
30.88
29.69
28.81
28.34
28.26
28.41
28.68
28.97
29.26
29.55
29.80
29.83
29.32
27.90
25.27
21.41
16.59
11.34
6.27
1.85
-1.79
-4.83
-7.64
-10.63
-13.97
-17.52
-21.01
-24.13
-26.77
-29.04
-31.22
-33.67
-36.71
-40.48
-44.88
-49.45
-53.37
-55.57
-54.99
-50.95
-43.39
-32.93
-20.69
-8.00
3.95
14.35
22.70
28.84
32.80
34.75
34.95
33.83
31.84
29.55
27.43
25.88
25.12
25.20
25.99
27.22
28.56
29.64
30.20
30.07
29.19
27.62
25.53
23.02
20.17
16.93
13.23
9.01
4.35
-0.62
-5.61
-10.38
-14.72
-18.51
-21.83
-24.84
-27.77
-30.86
-34.37
-38.44
-43.06
-47.86
-52.14
-54.88
-55.02
-51.85
-45.22
-35.64
-24.16
-12.04
-0.44
9.83
18.32
24.92
29.70
32.84
34.54
35.07
34.67
33.58
32.07
30.40
28.80
27.51
26.63
26.24
26.27
26.59
27.00
27.29
27.24
26.67
25.47
23.64
21.30
18.66
15.89
13.05
10.09
6.81
3.02
-1.34
-6.19
-11.21
-16.03
-20.31
-23.91
-26.86
-29.40
-31.90
-34.83
-38.59
-43.34
-48.77
-54.07
-58.00
-59.28
-57.04
-51.06
-41.88
-30.57
-18.35
-6.32
4.70
14.16
21.74
27.21
30.62
32.22
32.46
31.92
31.09
30.26
29.54
28.92
28.35
27.87
27.59
27.60
28.00
28.71
29.53
30.12
30.16
29.36
27.64
25.07
21.83
18.19
14.32
10.36
6.30
2.12
-2.23
-6.75
-11.35
-15.90
-20.19
-24.12
-27.59
-30.63
-33.43
-36.28
-39.56
-43.55
-48.25
-53.17
-57.35
-59.60
-58.79
-54.38
-46.56
-36.20
-24.59
-12.97
-2.31
6.83
14.24
19.93
24.00
26.57
27.77
27.82
26.98
25.63
24.16
22.96
22.27
22.18
22.63
23.41
24.32
25.16
25.76
25.92
25.49
24.32
22.36
19.72
16.54
13.03
9.33
5.49
1.53
-2.48
-6.40
-10.06
-13.35
-16.26
-18.97
-21.71
-24.74
-28.22
-32.23
-36.76
-41.67
-46.62
-51.02
-54.00
-54.58
-51.94
-45.73
-36.28
-24.47
-11.58
1.10
12.48
21.90
29.07
34.00
36.89
38.00
37.67
36.28
34.26
32.06
30.08
28.58
27.64
27.19
27.00
26.86
26.60
26.11
25.38
24.43
23.26
21.87
20.23
18.21
15.66
12.45
8.52
3.95
-1.01
-6.01
-10.73
-14.96
-18.70
-22.12
-25.49
-29.08
-33.10
-37.65
-42.68
-47.87
-52.56
-55.83
-56.70
-54.41
-48.71
-39.95
-29.03
-17.07
-5.17
5.80
15.24
22.84
28.49
32.15
34.02
34.37
33.57
32.11
30.40
28.84
27.74
27.28
27.51
28.37
29.63
31.01
32.22
32.91
32.84
31.86
29.97
27.29
24.03
20.33
16.32
12.02
7.38
2.39
-2.86
-8.20
-13.36
-18.01
-22.02
-25.43
-28.44
-31.44
-34.73
-38.57
-42.99
-47.74
-52.28
-55.85
-57.53
-56.43
-52.03
-44.33
-34.03
-22.27
-10.35
0.60
9.90
17.31
22.91
26.86
29.39
30.68
30.93
30.43
29.47
28.38
27.42
26.74
26.36
26.27
26.39
26.67
27.09
27.59
28.07
28.32
28.07
26.98
24.89
21.79
17.85
13.39
8.73
4.12
-0.30
-4.53
-8.59
-12.59
-16.57
-20.50
-24.24
-27.66
-30.73
-33.60
-36.60
-40.06
-44.14
-48.74
-53.27
-56.82
-58.40
-57.16
-52.70
-45.18
-35.31
-24.10
-12.69
-2.07
7.08
14.39
19.77
23.27
25.00
25.17
24.05
22.10
19.88
17.95
16.71
16.30
16.52
17.00
17.42
17.64
17.80
18.13
18.71
19.38
19.73
19.26
17.56
14.52
10.36
5.50
0.41
-4.49
-8.98
-13.02
-16.67
-20.10
-23.45
-26.89
-30.53
-34.36
-38.13
-41.27
-42.98
-42.41
-38.96
-32.47
-23.40
-12.65
-1.33
9.50
19.10
26.98
32.94
36.95
39.09
39.53
38.54
36.53
34.01
31.53
29.54
28.33
27.92
28.08
28.45
28.70
28.62
28.18
27.46
26.58
25.56
24.36
22.77
20.60
17.75
14.23
10.17
5.74
1.13
-3.61
-8.45
-13.40
-18.40
-23.33
-28.11
-32.77
-37.55
-42.71
-48.33
-54.06
-58.99
-61.89
-61.63
-57.61
-50.01
-39.77
-28.16
-16.47
-5.66
3.71
11.39
17.31
21.49
24.07
25.27
25.38
24.75
23.69
22.44
21.20
20.15
19.40
19.09
19.21
19.66
20.28
20.83
21.13
20.99
20.25
18.78
16.48
13.30
9.28
4.58
-0.58
-5.86
-10.94
-15.60
-19.77
-23.55
-27.16
-30.90
-35.05
-39.72
-44.81
-49.93
-54.35
-57.21
-57.64
-55.10
-49.52
-41.39
-31.54
-20.93
-10.41
-0.67
7.89
14.93
20.29
23.94
26.05
26.98
27.20
27.16
27.19
27.53
28.33
29.62
31.33
33.30
35.34
37.19
38.61
39.30
38.86
36.72
32.28
25.20
15.65
4.44
-7.11
-17.64
-26.15
-32.37
-36.72
-40.03
-43.16
-46.71
-50.80
-55.11
-58.93
-61.28
-61.24
-58.09
-51.73
-42.70
-32.17
-21.60
-12.35
-5.39
-1.11
0.54
-0.06
-2.34
-5.72
-9.60
-13.45
-16.79
-19.36
-20.90
-21.27
-20.37
-18.24
-15.14
-11.55
-8.12
-5.37
-3.58
-2.71
-2.43
-2.34
-2.14
-1.75
-1.20
-0.53
0.33
1.59
3.43
5.88
8.78
11.73
14.26
15.89
16.29
15.22
12.65
8.81
4.20
-0.26
-3.41
-4.11
-1.53
4.37
12.87
22.64
32.18
40.35
46.57
50.82
53.48
54.92
55.32
54.69
53.07
50.64
47.78
45.00
42.72
41.20
40.43
40.22
40.27
40.36
40.30
40.00
39.40
38.51
37.30
35.70
33.64
31.04
27.82
24.05
19.90
15.69
11.77
8.31
5.31
2.62
-0.07
-3.01
-6.41
-10.30
-14.66
-19.31
-23.87
-27.76
-30.17
-30.33
-27.72
-22.48
-15.33
-7.42
0.06
6.25
10.84
13.95
15.90
16.94
17.19
16.64
15.41
13.82
12.32
11.39
11.27
11.88
12.94
14.02
14.79
15.11
15.05
14.74
14.31
13.70
12.73
11.16
8.80
5.64
1.85
-2.19
-6.04
-9.38
-12.10
-14.40
-16.72
-19.55
-23.27
-27.87
-32.86
-37.34
-40.18
-40.45
-37.62
-31.86
-23.97
-15.12
-6.56
0.77
6.40
10.34
12.94
14.58
15.54
15.92
15.75
15.09
14.13
13.20
12.62
12.63
13.17
14.03
14.90
15.50
15.71
15.49
14.90
13.99
12.82
11.43
9.87
8.16
6.25
3.99
1.18
-2.24
-6.13
-10.23
-14.15
-17.56
-20.31
-22.45
-24.14
-25.67
-27.38
-29.61
-32.60
-36.34
-40.39
-43.88
-45.68
-44.76
-40.64
-33.61
-24.65
-15.13
-6.30
0.94
6.26
9.75
11.72
12.53
12.51
11.98
11.21
10.52
10.10
10.06
10.39
11.00
11.80
12.71
13.71
14.71
15.68
16.44
16.80
16.56
15.56
13.82
11.50
8.93
6.42
4.15
2.17
0.27
-1.78
-4.17
-6.86
-9.60
-12.07
-13.98
-15.30
-16.28
-17.38
-19.11
-21.87
-25.73
-30.33
-34.92
-38.51
-40.06
-38.81
-34.56
-27.80
-19.53
-10.98
-3.23
3.05
7.64
10.67
12.43
13.19
13.23
12.83
12.23
11.69
11.37
11.32
11.55
11.98
12.60
13.39
14.28
15.10
15.68
15.80
15.41
14.58
13.51
12.35
11.22
10.03
8.61
6.76
4.39
1.56
-1.54
-4.63
-7.46
-9.85
-11.73
-13.20
-14.51
-15.95
-17.89
-20.60
-24.21
-28.57
-33.15
-37.07
-39.28
-38.84
-35.32
-28.95
-20.63
-11.67
-3.37
3.38
8.23
11.32
13.04
13.82
13.93
13.53
12.68
11.54
10.33
9.39
9.00
9.30
10.22
11.49
12.75
13.74
14.32
14.48
14.31
13.84
13.02
11.74
9.93
7.65
5.02
2.27
-0.44
-2.96
-5.25
-7.31
-9.15
-10.79
-12.29
-13.83
-15.59
-17.82
-20.77
-24.53
-28.93
-33.39
-37.03
-38.79
-37.81
-33.74
-26.93
-18.40
-9.47
-1.40
5.02
9.49
12.19
13.54
13.95
13.75
13.16
12.41
11.65
11.06
10.72
10.70
10.99
11.51
12.19
12.88
13.45
13.75
13.72
13.36
12.77
12.06
11.26
10.33
9.11
7.43
5.15
2.23
-1.24
-5.00
-8.70
-12.03
-14.75
-16.84
-18.55
-20.24
-22.28
-24.99
-28.47
-32.54
-36.75
-40.33
-42.39
-42.12
-39.05
-33.29
-25.55
-16.94
-8.64
-1.53
4.00
8.01
10.81
12.75
14.01
14.66
14.73
14.31
13.60
12.90
12.53
12.65
13.29
14.28
15.33
16.20
16.68
16.77
16.58
16.28
15.96
15.61
15.05
14.01
12.35
10.04
7.22
4.18
1.21
-1.52
-3.91
-6.00
-7.91
-9.77
-11.85
-14.44
-17.83
-22.13
-27.09
-32.00
-35.82
-37.42
-36.04
-31.54
-24.49
-15.99
-7.27
0.62
7.02
11.73
14.81
16.51
17.09
16.78
15.77
14.29
12.63
11.09
9.99
9.53
9.73
10.37
11.13
11.70
11.92
11.90
11.87
12.10
12.66
13.38
13.87
13.67
12.48
10.30
7.44
4.39
1.60
-0.68
-2.54
-4.32
-6.44
-9.26
-12.95
-17.49
-22.70
-28.12
-33.08
-36.66
-37.88
-36.07
-31.06
-23.44
-14.37
-5.24
2.79
9.02
13.33
16.00
17.39
17.84
17.53
16.61
15.28
13.79
12.45
11.62
11.54
12.30
13.82
15.83
17.94
19.76
20.97
21.44
21.19
20.37
19.08
17.36
15.12
12.23
8.65
4.48
-0.03
-4.56
-8.80
-12.57
-15.81
-18.60
-21.10
-23.53
-26.18
-29.36
-33.34
-38.14
-43.38
-48.24
-51.53
-52.09
-49.10
-42.56
-33.24
-22.50
-11.90
-2.68
4.48
9.49
12.67
14.48
15.30
15.46
15.18
14.69
14.21
13.90
13.88
14.16
14.64
15.23
15.79
16.21
16.43
16.39
16.11
15.64
15.06
14.41
13.61
12.47
10.75
8.23
4.89
0.86
-3.52
-7.88
-11.85
-15.22
-18.01
-20.45
-22.92
-25.89
-29.73
-34.53
-39.95
-45.15
-49.00
-50.35
-48.42
-43.08
-34.90
-24.96
-14.47
-4.50
4.24
11.42
16.93
20.74
22.84
23.28
22.24
20.15
17.64
15.34
13.81
13.27
13.71
14.86
16.34
17.77
18.81
19.21
18.85
17.80
16.32
14.85
13.79
13.24
12.89
12.00
9.75
5.59
-0.45
-7.70
-15.07
-21.51
-26.32
-29.37
-31.05
-32.02
-32.97
-34.50
-37.03
-40.69
-45.30
-50.18
-54.17
-55.96
-54.32
-48.71
-39.35
-27.30
-14.10
-1.30
9.92
18.90
25.49
29.87
32.36
33.34
33.20
32.37
31.30
30.44
30.19
30.77
32.18
34.17
36.32
38.23
39.64
40.45
40.78
40.79
40.53
39.92
38.68
36.45
33.02
28.42
22.94
17.10
11.43
6.33
2.01
-1.62
-4.84
-8.06
-11.80
-16.43
-22.12
-28.67
-35.39
-41.14
-44.70
-45.04
-41.64
-34.70
-25.06
-13.92
-2.54
7.99
16.98
24.11
29.33
32.84
34.84
35.59
35.31
34.28
32.75
31.07
29.57
28.61
28.38
28.88
29.89
31.07
32.02
32.40
31.99
30.75
28.74
26.10
22.97
19.49
15.77
11.87
7.81
3.55
-0.94
-5.59
-10.28
-14.82
-19.02
-22.80
-26.17
-29.29
-32.47
-36.06
-40.34
-45.32
-50.46
-54.68
-56.56
-54.80
-48.74
-38.71
-25.96
-12.26
0.69
11.72
20.26
26.34
30.20
32.11
32.35
31.19
29.01
26.27
23.45
21.02
19.31
18.57
18.83
19.98
21.72
23.65
25.34
26.45
26.78
26.27
24.97
22.92
20.21
16.85
12.94
8.63
4.13
-0.40
-4.81
-9.04
-13.02
-16.63
-19.73
-22.22
-24.14
-25.78
-27.68
-30.44
-34.52
-40.01
-46.32
-52.25
-56.20
-56.57
-52.30
-43.36
-30.77
-16.40
-2.37
9.61
18.61
24.59
28.07
29.71
30.01
29.21
27.35
24.67
21.58
18.78
16.95
16.53
17.55
19.57
21.95
24.03
25.44
26.05
26.04
25.56
24.74
23.53
21.71
19.13
15.70
11.46
6.63
1.49
-3.66
-8.49
-12.76
-16.38
-19.43
-22.19
-25.10
-28.65
-33.27
-39.05
-45.60
-51.90
-56.53
-57.90
-54.86
-47.10
-35.34
-21.17
-6.58
6.61
17.22
24.81
29.52
31.77
32.02
30.70
28.15
24.78
21.05
17.50
14.68
13.00
12.63
13.36
14.74
16.16
17.10
17.27
16.63
15.35
13.58
11.37
8.67
5.41
1.62
-2.48
-6.56
-10.31
-13.53
-16.20
-18.42
-20.34
-22.11
-23.85
-25.71
-27.92
-30.79
-34.50
-38.85
-43.14
-46.08
-46.24
-42.48
-34.44
-22.85
-9.24
4.51
16.75
26.49
33.45
37.86
40.12
40.59
39.48
37.08
33.82
30.35
27.38
25.50
24.93
25.50
26.71
27.96
28.84
29.21
29.15
28.87
28.47
27.88
26.83
25.06
22.35
18.67
14.12
8.91
3.35
-2.20
-7.41
-12.04
-16.03
-19.54
-22.92
-26.64
-31.19
-36.88
-43.75
-51.29
-58.36
-63.39
-64.67
-61.01
-52.22
-39.33
-24.26
-9.27
3.85
14.14
21.49
26.31
29.10
30.24
30.02
28.68
26.66
24.47
22.61
21.37
20.88
21.02
21.63
22.52
23.55
24.59
25.47
25.98
25.84
24.85
22.90
20.08
16.64
12.87
9.04
5.21
1.32
-2.74
-7.05
-11.52
-15.95
-20.03
-23.65
-26.78
-29.65
-32.67
-36.30
-40.92
-46.51
-52.49
-57.63
-60.40
-59.40
-53.90
-44.19
-31.48
-17.51
-4.04
7.65
16.89
23.50
27.68
29.69
29.91
28.77
26.75
24.44
22.40
21.17
21.13
22.33
24.47
26.97
29.16
30.47
30.67
29.98
28.85
27.79
26.97
26.19
24.91
22.56
18.82
13.72
7.75
1.49
-4.49
-9.89
-14.68
-18.98
-23.01
-26.95
-31.08
-35.72
-41.09
-47.00
-52.64
-56.62
-57.35
-53.69
-45.42
-33.50
-19.74
-6.14
5.70
14.92
21.42
25.57
27.85
28.72
28.51
27.43
25.67
23.49
21.16
19.04
17.48
16.73
16.90
17.87
19.36
21.02
22.50
23.53
23.99
23.79
22.85
21.16
18.74
15.74
12.37
8.83
5.24
1.60
-2.17
-6.11
-10.14
-14.08
-17.68
-20.80
-23.61
-26.54
-30.16
-34.91
-40.73
-46.82
-51.77
-53.88
-51.87
-45.32
-34.93
-22.23
-9.12
2.74
12.35
19.35
23.88
26.36
27.19
26.76
25.46
23.65
21.77
20.18
19.09
18.54
18.41
18.52
18.74
19.02
19.41
19.98
20.70
21.34
21.55
21.00
19.51
17.18
14.25
11.08
7.95
5.00
2.19
-0.55
-3.32
-6.15
-9.01
-11.85
-14.64
-17.36
-20.08
-22.93
-26.13
-29.94
-34.56
-39.93
-45.58
-50.58
-53.63
-53.49
-49.36
-41.36
-30.49
-18.32
-6.57
3.44
11.05
16.28
19.47
21.15
21.77
21.67
21.16
20.51
19.95
19.65
19.71
20.16
20.94
21.96
23.05
24.10
24.95
25.52
25.74
25.56
24.95
23.90
22.39
20.36
17.79
14.62
10.84
6.48
1.68
-3.30
-8.12
-12.48
-16.12
-18.90
-20.81
-22.01
-22.81
-23.75
-25.44
-28.41
-32.73
-37.84
-42.56
-45.33
-44.87
-40.57
-32.79
-22.69
-11.87
-1.77
6.66
13.02
17.38
20.02
21.34
21.65
21.27
20.47
19.53
18.73
18.29
18.38
18.99
20.04
21.31
22.60
23.78
24.84
25.77
26.49
26.79
26.40
25.11
22.95
20.15
17.04
13.89
10.86
7.95
5.12
2.35
-0.27
-2.70
-4.89
-6.98
-9.20
-11.86
-15.27
-19.66
-25.07
-31.22
-37.48
-42.77
-45.91
-45.84
-42.10
-35.03
-25.70
-15.56
-6.00
2.10
8.35
12.84
15.87
17.69
18.49
18.48
17.87
16.90
15.81
14.79
13.96
13.41
13.22
13.48
14.21
15.37
16.81
18.29
19.53
20.29
20.39
19.79
18.57
16.93
15.09
13.23
11.38
9.42
7.15
4.43
1.22
-2.34
-6.05
-9.65
-12.88
-15.65
-17.95
-19.95
-22.00
-24.46
-27.64
-31.56
-35.79
-39.40
-41.22
-40.20
-35.84
-28.43
-18.89
-8.49
1.58
10.48
17.85
23.64
27.97
30.94
32.54
32.82
31.93
30.13
27.75
25.05
22.17
19.11
15.88
12.54
9.37
6.69
4.76
3.54
2.65
1.56
-0.22
-2.78
-5.84
-8.77
-10.97
-12.13
-12.26
-11.69
-10.84
-9.98
-9.11
-8.00
-6.18
-3.30
0.78
5.73
10.79
14.95
17.24
17.05
14.32
9.61
3.95
-1.42
-5.26
-6.63
-5.10
-0.85
5.37
12.46
19.33
25.14
29.46
32.09
32.78
31.10
26.46
18.40
6.88
-7.50
-23.56
-39.85
-54.91
-67.68
-77.35
-83.38
-85.30
-82.83
-76.11
-65.98
-53.97
-42.01
-31.98
-25.03
-21.29
-20.00
-19.87
-19.70
-18.79
-17.09
-14.99
-13.10
-11.91
-11.75
-12.81
-15.18
-18.80
-23.37
-28.22
-32.35
-34.61
-34.04
-30.31
-23.89
-15.94
-7.99
-1.31
3.41
6.11
7.27
7.52
7.30
6.77
5.85
4.43
2.54
0.43
-1.50
-2.88
-3.40
-2.96
-1.59
0.49
2.87
5.04
6.45
6.73
5.79
3.90
1.61
-0.49
-1.98
-2.78
-3.16
-3.58
-4.51
-6.21
-8.66
-11.64
-14.75
-17.71
-20.40
-22.86
-25.24
-27.79
-30.71
-34.12
-37.99
-41.99
-45.47
-47.60
-47.54
-44.79
-39.36
-31.84
-23.15
-14.32
-6.08
1.11
7.09
11.86
15.48
18.11
19.88
21.08
21.92
22.61
23.23
23.86
24.55
25.38
26.44
27.81
29.42
31.05
32.41
33.18
33.20
32.56
31.47
30.07
28.31
25.90
22.44
17.79
12.13
6.03
0.21
-4.74
-8.60
-11.47
-13.70
-15.72
-17.92
-20.66
-24.17
-28.38
-32.89
-36.81
-39.11
-38.88
-35.75
-29.86
-21.82
-12.44
-2.40
7.68
17.22
25.56
31.98
35.99
37.52
37.06
35.41
33.45
31.78
30.58
29.73
29.00
28.22
27.40
26.70
26.27
26.28
26.73
27.44
28.04
28.06
27.03
24.72
21.16
16.68
11.76
6.88
2.38
-1.62
-5.23
-8.72
-12.54
-17.12
-22.63
-28.82
-34.89
-39.65
-41.81
-40.49
-35.51
-27.44
-17.35
-6.47
4.22
14.11
22.84
30.28
36.27
40.62
43.13
43.70
42.49
39.86
36.40
32.76
29.47
26.79
24.67
22.83
20.91
18.62
15.90
12.89
9.84
6.95
4.33
1.97
-0.25
-2.41
-4.55
-6.68
-8.86
-11.22
-14.01
-17.42
-21.53
-26.29
-31.54
-37.24
-43.37
-49.86
-56.37
-62.10
-65.90
-66.55
-63.29
-56.00
-45.43
-32.82
-19.56
-6.83
4.62
14.43
22.48
28.74
33.25
36.04
37.21
37.05
35.88
34.16
32.34
30.87
30.07
30.07
30.78
31.88
33.03
33.91
34.36
34.35
33.89
32.90
31.22
28.60
24.91
20.24
14.93
9.43
4.12
-0.79
-5.30
-9.47
-13.36
-17.01
-20.60
-24.37
-28.57
-33.14
-37.59
-41.03
-42.47
-41.34
-37.68
-32.14
-25.55
-18.54
-11.42
-4.22
3.00
9.85
15.77
20.19
22.90
24.31
25.18
26.27
27.94
29.94
31.68
32.61
32.51
31.68
30.70
30.06
29.90
29.90
29.49
28.23
26.01
23.04
19.66
16.09
12.33
8.25
3.74
-1.10
-5.96
-10.40
-14.10
-17.04
-19.51
-22.09
-25.35
-29.57
-34.62
-39.85
-44.28
-46.91
-46.98
-44.17
-38.64
-30.79
-21.23
-10.64
0.24
10.64
19.87
27.39
33.02
36.84
39.14
40.21
40.21
39.23
37.32
34.69
31.81
29.15
27.14
25.94
25.36
24.99
24.34
23.02
20.89
18.06
14.88
11.81
9.26
7.45
6.33
5.53
4.49
2.65
-0.36
-4.61
-9.93
-15.97
-22.37
-28.77
-34.84
-40.19
-44.44
-47.40
-49.11
-49.81
-49.77
-49.08
-47.44
-44.20
-38.70
-30.53
-19.84
-7.42
5.49
17.52
27.49
34.69
39.05
40.98
41.32
41.05
41.08
42.10
44.50
48.27
52.97
57.62
60.95
61.66
58.97
52.98
44.73
35.76
27.47
20.51
14.58
8.80
2.38
-4.84
-12.27
-18.88
-23.76
-26.69
-28.11
-28.88
-29.84
-31.51
-34.01
-37.24
-40.86
-44.46
-47.42
-48.96
-48.27
-44.75
-38.29
-29.36
-18.98
-8.36
1.39
9.54
15.80
20.22
23.07
24.67
25.31
25.27
24.81
24.16
23.61
23.35
23.51
24.09
24.98
25.95
26.74
27.11
26.89
26.07
24.69
22.84
20.60
17.99
15.02
11.69
8.06
4.18
0.11
-4.08
-8.36
-12.68
-16.94
-20.97
-24.60
-27.73
-30.45
-33.03
-35.90
-39.48
-43.89
-48.83
-53.47
-56.74
-57.48
-54.99
-49.13
-40.36
-29.62
-17.99
-6.50
4.07
13.15
20.39
25.60
28.79
30.19
30.22
29.40
28.23
27.10
26.24
25.71
25.48
25.49
25.72
26.14
26.74
27.40
27.91
27.94
27.23
25.62
23.16
20.07
16.59
12.87
8.89
4.54
-0.23
-5.35
-10.60
-15.69
-20.35
-24.49
-28.12
-31.41
-34.58
-37.92
-41.70
-46.04
-50.71
-55.05
-58.04
-58.58
-55.89
-49.78
-40.79
-29.91
-18.32
-6.99
3.42
12.57
20.32
26.59
31.30
34.43
35.99
36.11
35.06
33.23
31.06
28.98
27.33
26.28
25.83
25.81
26.00
26.22
26.28
26.05
25.34
23.98
21.82
18.82
15.09
10.86
6.39
1.91
-2.49
-6.85
-11.20
-15.54
-19.75
-23.62
-26.94
-29.60
-31.63
-33.19
-34.57
-36.10
-37.99
-40.22
-42.44
-44.02
-44.19
-42.24
-37.80
-30.93
-22.13
-12.16
-1.90
7.91
16.66
23.94
29.55
33.46
35.79
36.76
36.67
35.81
34.53
33.15
32.00
31.26
31.03
31.19
31.55
31.89
32.06
32.06
31.95
31.79
31.51
30.93
29.79
27.95
25.37
22.17
18.51
14.49
10.18
5.64
1.01
-3.55
-7.87
-11.85
-15.56
-19.20
-22.98
-27.06
-31.50
-36.27
-41.25
-46.15
-50.43
-53.33
-54.01
-51.80
-46.52
-38.51
-28.60
-17.83
-7.18
2.66
11.25
18.37
23.92
27.86
30.24
31.29
31.31
30.63
29.52
28.19
26.76
25.36
24.11
23.11
22.45
22.08
21.93
21.86
21.68
21.20
20.26
18.70
16.44
13.46
9.89
5.89
1.67
-2.64
-6.96
-11.27
-15.61
-19.89
-24.02
-27.82
-31.19
-34.15
-36.84
-39.56
-42.63
-46.31
-50.63
-55.27
-59.56
-62.64
-63.58
-61.74
-56.92
-49.41
-39.90
-29.26
-18.33
-7.86
1.56
9.46
15.52
19.66
21.97
22.77
22.42
21.29
19.72
17.96
16.26
14.86
13.93
13.55
13.70
14.26
15.05
15.92
16.76
17.42
17.77
17.63
16.82
15.20
12.73
9.47
5.58
1.31
-3.13
-7.50
-11.64
-15.44
-18.87
-21.96
-24.77
-27.45
-30.20
-33.25
-36.81
-40.88
-45.14
-48.90
-51.16
-51.00
-47.79
-41.52
-32.79
-22.58
-11.97
-1.84
7.30
15.22
21.85
27.18
31.12
33.57
34.47
33.91
32.11
29.54
26.72
24.20
22.41
21.49
21.32
21.65
22.21
22.78
23.25
23.50
23.42
22.82
21.52
19.42
16.55
13.03
9.05
4.80
0.42
-4.00
-8.36
-12.55
-16.45
-19.96
-23.10
-26.07
-29.16
-32.77
-37.10
-41.99
-46.84
-50.66
-52.39
-51.22
-46.86
-39.55
-29.92
-18.85
-7.19
4.28
14.87
23.98
31.12
36.01
38.63
39.25
38.30
36.31
33.72
30.93
28.22
25.84
24.00
22.83
22.36
22.52
23.15
23.98
24.72
25.03
24.71
23.63
21.87
19.58
16.92
13.99
10.72
6.98
2.66
-2.26
-7.61
-13.08
-18.33
-23.12
-27.32
-30.97
-34.22
-37.34
-40.67
-44.46
-48.81
-53.31
-57.09
-59.06
-58.13
-53.80
-46.16
-36.00
-24.36
-12.31
-0.70
9.87
18.92
26.12
31.21
34.17
35.25
34.89
33.59
31.82
29.87
27.94
26.19
24.76
23.77
23.29
23.38
23.93
24.79
25.69
26.28
26.24
25.31
23.40
20.57
17.10
13.33
9.56
5.93
2.36
-1.34
-5.39
-9.89
-14.77
-19.79
-24.62
-28.93
-32.55
-35.58
-38.35
-41.43
-45.32
-50.20
-55.72
-60.94
-64.57
-65.35
-62.53
-56.09
-46.65
-35.30
-23.13
-11.11
0.03
9.80
17.82
23.86
27.85
29.92
30.41
29.77
28.45
26.83
25.20
23.77
22.70
22.13
22.09
22.53
23.36
24.39
25.41
26.22
26.60
26.35
25.39
23.67
21.24
18.20
14.65
10.65
6.23
1.39
-3.84
-9.32
-14.82
-20.04
-24.69
-28.58
-31.75
-34.49
-37.23
-40.47
-44.45
-48.93
-53.19
-56.16
-56.77
-54.27
-48.44
-39.62
-28.57
-16.24
-3.64
8.25
18.64
26.95
32.92
36.65
38.42
38.67
37.79
36.12
33.94
31.58
29.44
27.81
26.92
26.77
27.20
27.98
28.92
29.85
30.61
31.00
30.67
29.34
26.82
23.13
18.57
13.56
8.56
3.85
-0.48
-4.58
-8.63
-12.78
-17.03
-21.24
-25.23
-28.78
-31.80
-34.42
-36.97
-39.90
-43.68
-48.41
-53.67
-58.44
-61.39
-61.29
-57.45
-49.97
-39.55
-27.29
-14.23
-1.20
11.18
22.35
31.73
38.77
43.13
44.80
44.21
42.12
39.37
36.67
34.43
32.76
31.55
30.66
30.02
29.71
29.83
30.43
31.33
32.18
32.52
31.98
30.34
27.69
24.32
20.60
16.82
13.12
9.44
5.59
1.40
-3.29
-8.47
-13.98
-19.56
-24.88
-29.70
-33.84
-37.36
-40.55
-43.87
-47.79
-52.58
-58.11
-63.69
-68.23
-70.47
-69.37
-64.43
-55.77
-44.08
-30.40
-15.89
-1.62
11.47
22.65
31.43
37.67
41.45
43.11
43.10
41.90
40.03
37.94
36.08
34.77
34.18
34.27
34.85
35.68
36.59
37.49
38.23
38.55
38.08
36.43
33.41
29.15
24.04
18.60
13.30
8.34
3.67
-0.92
-5.63
-10.55
-15.55
-20.45
-25.03
-29.14
-32.76
-36.04
-39.19
-42.51
-46.29
-50.77
-55.98
-61.59
-66.83
-70.52
-71.34
-68.21
-60.74
-49.30
-35.06
-19.52
-4.21
9.75
21.61
31.04
37.89
42.16
43.95
43.54
41.37
38.05
34.24
30.50
27.27
24.75
22.96
21.93
21.68
22.31
23.81
26.01
28.44
30.45
31.37
30.71
28.34
24.49
19.61
14.23
8.77
3.51
-1.46
-6.17
-10.69
-15.07
-19.32
-23.38
-27.18
-30.69
-33.87
-36.77
-39.50
-42.29
-45.44
-49.24
-53.74
-58.55
-62.74
-64.96
-63.82
-58.34
-48.35
-34.61
-18.56
-1.92
13.82
27.60
38.87
47.41
53.24
56.41
57.08
55.58
52.46
48.43
44.23
40.47
37.49
35.36
33.96
33.09
32.63
32.48
32.54
32.65
32.56
31.90
30.41
27.91
24.44
20.19
15.39
10.29
5.05
-0.24
-5.55
-10.80
-15.87
-20.61
-24.92
-28.80
-32.39
-36.00
-40.00
-44.71
-50.16
-55.93
-61.13
-64.53
-64.90
-61.41
-53.81
-42.60
-28.79
-13.71
1.29
15.03
26.68
35.75
42.08
45.81
47.22
46.72
44.73
41.66
37.98
34.18
30.77
28.11
26.38
25.54
25.37
25.64
26.12
26.60
26.92
26.85
26.18
24.73
22.39
19.19
15.21
10.60
5.53
0.17
-5.31
-10.77
-16.07
-21.09
-25.79
-30.16
-34.32
-38.53
-43.15
-48.45
-54.42
-60.53
-65.74
-68.70
-68.15
-63.39
-54.53
-42.42
-28.40
-13.87
0.03
12.46
22.90
31.07
36.80
40.14
41.33
40.80
39.03
36.58
33.90
31.37
29.33
28.02
27.53
27.85
28.76
29.93
30.99
31.58
31.51
30.68
29.11
26.88
24.02
20.47
16.17
11.11
5.38
-0.74
-6.88
-12.69
-17.94
-22.59
-26.73
-30.52
-34.17
-37.84
-41.73
-46.02
-50.73
-55.58
-59.86
-62.48
-62.29
-58.46
-50.83
-39.95
-27.03
-13.44
-0.40
11.26
21.10
28.92
34.59
38.01
39.20
38.32
35.80
32.27
28.45
25.04
22.53
21.15
20.79
21.17
21.87
22.51
22.81
22.69
22.13
21.18
19.82
17.98
15.57
12.49
8.69
4.23
-0.74
-5.97
-11.20
-16.20
-20.82
-24.98
-28.71
-32.16
-35.54
-39.22
-43.54
-48.60
-54.09
-59.14
-62.45
-62.69
-58.91
-50.91
-39.32
-25.42
-10.69
3.49
16.07
26.42
34.21
39.37
41.98
42.28
40.72
37.89
34.55
31.32
28.75
27.04
26.17
25.90
25.94
26.09
26.24
26.39
26.55
26.65
26.48
25.76
24.23
21.66
18.07
13.59
8.51
3.18
-2.10
-7.14
-11.88
-16.30
-20.49
-24.51
-28.54
-32.84
-37.60
-42.90
-48.31
-52.99
-55.73
-55.32
-51.05
-42.87
-31.47
-18.01
-3.88
9.66
21.61
31.30
38.41
42.89
44.98
45.07
43.65
41.09
37.74
33.90
30.03
26.61
24.12
22.80
22.60
23.15
23.96
24.65
25.02
25.06
24.86
24.35
23.37
21.61
18.83
15.02
10.35
5.17
-0.17
-5.41
-10.50
-15.45
-20.30
-25.03
-29.55
-33.81
-37.93
-42.19
-46.85
-51.85
-56.63
-60.17
-61.24
-58.90
-52.86
-43.63
-32.22
-19.87
-7.64
3.69
13.62
21.78
27.93
31.91
33.79
33.86
32.62
30.65
28.44
26.37
24.68
23.49
22.86
22.79
23.24
24.06
25.10
26.07
26.70
26.72
25.96
24.34
21.90
18.77
15.10
11.04
6.67
2.03
-2.84
-7.82
-12.78
-17.53
-21.96
-25.99
-29.65
-33.04
-36.35
-39.81
-43.67
-48.12
-52.99
-57.70
-61.17
-62.19
-59.75
-53.56
-44.16
-32.70
-20.59
-8.97
1.41
10.23
17.35
22.72
26.22
27.82
27.62
25.96
23.34
20.39
17.68
15.63
14.51
14.32
14.81
15.65
16.43
16.83
16.67
15.91
14.57
12.64
10.08
6.79
2.71
-2.23
-7.95
-14.29
-20.98
-27.74
-34.37
-40.72
-46.75
-52.49
-58.07
-63.66
-69.50
-75.85
-82.89
-90.51
-98.23
-105.16
-110.22
-112.53
-111.73
-108.10
-102.55
-96.32
-90.64
-86.56
-84.83
-85.74
-89.31
-95.18
-102.60
-110.40
-116.97
-120.49
-119.20
-111.61
-96.90
-75.03
-46.82
-13.82
21.90
58.13
92.74
123.89
150.10
170.37
184.14
191.37
192.52
188.39
180.07
168.75
155.55
141.48
127.31
113.58
100.61
88.51
77.11
66.16
55.30
44.28
33.03
21.79
11.18
2.17
-4.19
-7.08
-6.22
-1.92
4.92
13.20
21.80
29.84
36.75
42.24
46.15
48.47
49.20
48.47
46.44
43.41
39.73
35.90
32.33
29.38
27.21
25.76
24.87
24.33
23.97
23.66
23.29
22.67
21.57
19.78
17.12
13.55
9.10
3.99
-1.53
-7.08
-12.29
-16.86
-20.69
-23.85
-26.64
-29.48
-32.79
-36.85
-41.67
-46.93
-51.92
-55.67
-57.12
-55.51
-50.60
-42.71
-32.70
-21.67
-10.63
-0.33
8.81
16.57
22.85
27.55
30.59
31.97
31.82
30.46
28.30
25.84
23.48
21.55
20.21
19.45
19.18
19.20
19.33
19.36
19.16
18.59
17.55
15.95
13.71
10.75
7.06
2.75
-1.97
-6.82
-11.57
-16.07
-20.31
-24.26
-27.94
-31.37
-34.64
-37.96
-41.60
-45.68
-49.89
-53.48
-55.35
-54.47
-50.29
-42.98
-33.34
-22.46
-11.37
-0.85
8.64
16.72
23.07
27.38
29.53
29.67
28.25
25.93
23.36
21.09
19.39
18.36
17.93
17.94
18.24
18.74
19.34
19.98
20.53
20.81
20.51
19.38
17.19
13.96
9.88
5.27
0.53
-4.05
-8.35
-12.38
-16.33
-20.42
-24.87
-29.81
-35.07
-40.20
-44.44
-46.90
-46.77
-43.60
-37.42
-28.77
-18.51
-7.57
3.17
13.01
21.43
28.08
32.76
35.48
36.48
36.14
34.96
33.37
31.65
30.01
28.52
27.25
26.30
25.72
25.49
25.47
25.49
25.26
24.54
23.22
21.30
18.85
15.97
12.73
9.17
5.27
0.95
-3.79
-8.87
-14.06
-19.06
-23.51
-27.18
-30.07
-32.48
-34.91
-37.84
-41.54
-45.89
-50.26
-53.73
-55.31
-54.22
-50.15
-43.30
-34.29
-24.02
-13.39
-3.15
6.08
13.91
20.03
24.32
26.74
27.46
26.78
25.16
23.16
21.27
19.90
19.25
19.34
20.01
20.98
21.96
22.75
23.21
23.25
22.85
22.00
20.64
18.74
16.28
13.19
9.53
5.37
0.90
-3.67
-8.14
-12.38
-16.35
-20.09
-23.65
-27.13
-30.66
-34.36
-38.34
-42.52
-46.56
-49.76
-51.25
-50.21
-46.21
-39.38
-30.36
-20.12
-9.66
0.19
8.85
16.01
21.48
25.21
27.20
27.61
26.71
24.90
22.75
20.73
19.30
18.66
18.79
19.40
20.08
20.55
20.65
20.45
20.05
19.44
18.47
16.84
14.28
10.75
6.46
1.85
-2.65
-6.76
-10.43
-13.79
-17.06
-20.44
-24.08
-28.07
-32.49
-37.24
-41.95
-45.94
-48.30
-48.14
-44.88
-38.45
-29.41
-18.68
-7.34
3.66
13.62
22.12
28.94
34.00
37.25
38.75
38.59
37.07
34.63
31.78
29.07
26.91
25.50
24.79
24.59
24.62
24.57
24.29
23.68
22.72
21.43
19.84
17.95
15.71
13.06
9.88
6.08
1.72
-3.10
-8.12
-13.02
-17.57
-21.65
-25.32
-28.75
-32.19
-35.85
-39.89
-44.32
-48.84
-52.88
-55.57
-55.99
-53.46
-47.80
-39.42
-29.19
-18.12
-7.14
3.11
12.16
19.73
25.53
29.36
31.21
31.32
30.15
28.26
26.16
24.21
22.61
21.40
20.55
20.00
19.63
19.40
19.26
19.12
18.89
18.41
17.49
15.98
13.80
11.05
7.89
4.56
1.15
-2.41
-6.20
-10.27
-14.46
-18.49
-22.00
-24.87
-27.21
-29.44
-32.09
-35.51
-39.72
-44.31
-48.42
-51.03
-51.20
-48.42
-42.70
-34.57
-24.88
-14.56
-4.39
5.05
13.38
20.26
25.42
28.71
30.18
30.13
29.03
27.45
25.86
24.54
23.61
23.05
22.81
22.79
22.97
23.30
23.69
23.98
23.97
23.42
22.21
20.30
17.78
14.80
11.48
7.92
4.13
0.19
-3.86
-7.93
-11.92
-15.80
-19.53
-23.13
-26.69
-30.39
-34.44
-38.97
-43.79
-48.30
-51.60
-52.67
-50.76
-45.66
-37.69
-27.66
-16.51
-5.17
5.57
15.07
22.87
28.63
32.22
33.80
33.69
32.39
30.40
28.25
26.37
25.18
24.86
25.39
26.46
27.61
28.37
28.47
27.88
26.78
25.34
23.62
21.50
18.77
15.26
10.99
6.18
1.13
-3.85
-8.55
-12.91
-16.91
-20.58
-24.00
-27.26
-30.57
-34.19
-38.26
-42.66
-46.86
-50.02
-51.12
-49.42
-44.64
-37.13
-27.72
-17.41
-7.14
2.42
10.84
17.88
23.41
27.34
29.71
30.67
30.44
29.32
27.67
25.85
24.22
23.07
22.59
22.75
23.34
24.06
24.58
24.63
24.13
22.99
21.25
18.92
16.08
12.78
9.15
5.28
1.21
-2.97
-7.22
-11.41
-15.44
-19.17
-22.58
-25.74
-28.81
-32.07
-35.77
-39.99
-44.66
-49.35
-53.34
-55.69
-55.55
-52.33
-45.99
-36.99
-26.21
-14.66
-3.29
7.15
16.11
23.24
28.28
31.08
31.71
30.52
28.04
24.98
22.03
19.66
18.10
17.33
17.20
17.48
18.04
18.75
19.53
20.24
20.66
20.60
19.90
18.50
16.46
13.91
10.94
7.56
3.72
-0.66
-5.51
-10.64
-15.76
-20.48
-24.51
-27.80
-30.54
-33.09
-35.98
-39.57
-43.91
-48.62
-52.83
-55.43
-55.34
-51.92
-45.18
-35.81
-24.86
-13.47
-2.56
7.30
15.79
22.71
27.94
31.35
32.88
32.70
31.19
28.89
26.40
24.25
22.77
22.08
22.12
22.71
23.61
24.60
25.46
26.02
26.06
25.42
23.92
21.43
17.94
13.55
8.47
2.97
-2.68
-8.30
-13.75
-18.93
-23.78
-28.26
-32.48
-36.68
-41.15
-45.95
-50.77
-54.81
-56.96
-56.19
-51.90
-44.17
-33.70
-21.58
-8.97
3.11
13.95
23.08
30.20
35.10
37.69
37.99
36.19
32.69
28.05
22.92
17.93
13.59
10.19
7.80
6.38
5.80
5.95
6.66
7.71
8.75
9.36
9.07
7.50
4.37
-0.36
-6.56
-13.79
-21.43
-28.70
-34.85
-39.24
-41.64
-42.21
-41.63
-40.90
-41.12
-43.04
-46.69
-51.26
-55.26
-56.97
-55.11
-49.32
-40.37
-29.92
-20.04
-12.53
-8.48
-8.10
-10.91
-15.96
-22.25
-28.80
-34.74
-39.28
-41.76
-41.72
-39.11
-34.36
-28.28
-21.83
-15.76
-10.31
-5.21
0.15
6.38
13.78
22.13
30.71
38.57
44.78
48.70
50.14
49.34
46.79
43.12
38.88
34.52
30.46
27.10
24.88
24.21
25.41
28.72
34.37
42.50
53.12
65.92
80.09
94.46
107.69
118.58
126.27
130.34
130.61
127.01
119.54
108.33
93.95
77.42
60.06
43.19
27.77
14.18
2.31
-8.20
-17.70
-26.21
-33.48
-39.10
-42.75
-44.48
-44.74
-44.22
-43.60
-43.30
-43.41
-43.71
-44.01
-44.23
-44.57
-45.44
-47.24
-50.28
-54.71
-60.42
-67.02
-73.74
-79.30
-82.22
-81.15
-75.39
-65.29
-52.26
-38.35
-25.56
-15.27
-8.00
-3.50
-1.14
-0.33
-0.59
-1.66
-3.28
-5.06
-6.54
-7.27
-7.00
-5.80
-4.04
-2.31
-1.13
-0.79
-1.26
-2.24
-3.32
-4.11
-4.46
-4.43
-4.28
-4.33
-4.89
-6.26
-8.72
-12.40
-17.24
-22.82
-28.20
-32.13
-33.26
-30.58
-23.82
-13.63
-1.27
11.67
23.73
33.87
41.50
46.49
48.91
48.97
46.97
43.32
38.53
33.20
28.00
23.47
19.99
17.73
16.58
16.30
16.55
16.98
17.35
17.44
17.07
16.09
14.40
11.89
8.62
4.65
0.12
-4.88
-10.34
-16.34
-22.88
-29.67
-36.06
-40.93
-43.11
-41.64
-36.20
-27.20
-15.69
-3.05
9.36
20.40
29.40
35.98
40.04
41.68
41.09
38.59
34.57
29.59
24.28
19.31
15.28
12.56
11.21
11.02
11.58
12.42
13.12
13.41
13.11
12.12
10.35
7.80
4.50
0.55
-3.87
-8.54
-13.33
-18.16
-22.98
-27.69
-31.92
-35.00
-36.03
-34.18
-28.96
-20.44
-9.32
3.34
16.34
28.66
39.52
48.39
54.91
58.91
60.31
59.25
56.10
51.41
45.89
40.28
35.25
31.32
28.66
27.18
26.60
26.53
26.59
26.54
26.13
25.16
23.39
20.64
16.83
12.14
6.92
1.65
-3.22
-7.45
-11.06
-14.31
-17.57
-21.22
-25.56
-30.62
-36.13
-41.33
-45.21
-46.69
-44.91
-39.58
-30.97
-19.87
-7.29
5.74
18.36
29.84
39.61
47.24
52.46
55.20
55.62
54.01
50.79
46.43
41.47
36.46
31.92
28.18
25.35
23.34
21.90
20.81
19.93
19.21
18.57
17.86
16.83
15.20
12.76
9.44
5.38
0.86
-3.81
-8.32
-12.50
-16.32
-19.85
-23.25
-26.78
-30.65
-34.92
-39.39
-43.57
-46.66
-47.82
-46.38
-42.00
-34.85
-25.55
-14.95
-4.05
6.27
15.21
22.29
27.20
29.95
30.79
30.13
28.49
26.42
24.37
22.64
21.38
20.60
20.11
19.70
19.19
18.53
17.82
17.22
16.85
16.65
16.32
15.51
13.88
11.30
7.92
4.00
-0.12
-4.21
-8.19
-12.05
-15.79
-19.44
-23.01
-26.57
-30.21
-33.92
-37.43
-40.12
-41.20
-39.95
-36.00
-29.52
-21.20
-11.94
-2.65
5.94
13.33
19.23
23.54
26.18
27.24
26.87
25.34
22.96
20.07
17.04
14.20
11.84
10.12
9.04
8.45
8.11
7.78
7.34
6.77
6.12
5.44
4.64
3.56
1.98
-0.25
-3.07
-6.26
-9.50
-12.49
-15.07
-17.27
-19.14
-20.81
-22.35
-23.89
-25.56
-27.50
-29.70
-31.85
-33.40
-33.62
-31.82
-27.68
-21.33
-13.42
-4.90
3.24
10.14
15.24
18.34
19.56
19.18
17.64
15.36
12.76
10.20
7.95
6.22
5.16
4.82
5.13
5.92
6.93
7.89
8.57
8.86
8.78
8.41
7.86
7.17
6.28
5.06
3.36
1.09
-1.60
-4.49
-7.31
-9.85
-12.05
-14.00
-15.87
-17.82
-19.94
-22.25
-24.77
-27.50
-30.30
-32.87
-34.62
-34.80
-32.75
-28.17
-21.39
-13.29
-5.11
2.02
7.34
10.69
12.41
13.07
13.14
12.83
12.16
11.03
9.43
7.52
5.58
3.92
2.76
2.14
1.96
2.08
2.39
2.86
3.43
3.98
4.33
4.25
3.56
2.26
0.44
-1.70
-3.97
-6.21
-8.37
-10.44
-12.43
-14.31
-16.06
-17.65
-19.10
-20.55
-22.19
-24.19
-26.53
-28.90
-30.59
-30.79
-28.83
-24.49
-18.14
-10.65
-3.04
3.76
9.16
12.94
15.15
15.97
15.64
14.35
12.29
9.66
6.69
3.63
0.82
-1.43
-2.82
-3.23
-2.73
-1.59
-0.15
1.25
2.45
3.38
4.06
4.52
4.74
4.57
3.80
2.29
-0.00
-2.94
-6.22
-9.51
-12.52
-15.06
-17.16
-18.95
-20.68
-22.61
-24.96
-27.68
-30.50
-32.84
-34.00
-33.35
-30.55
-25.65
-19.13
-11.74
-4.22
2.75
8.67
13.24
16.31
17.83
17.91
16.75
14.72
12.17
9.46
6.88
4.67
2.98
1.94
1.57
1.76
2.38
3.21
4.09
4.87
5.51
5.87
5.81
5.11
3.58
1.20
-1.84
-5.20
-8.44
-11.26
-13.63
-15.68
-17.70
-19.92
-22.50
-25.47
-28.82
-32.40
-35.91
-38.79
-40.31
-39.71
-36.48
-30.58
-22.52
-13.22
-3.69
5.17
12.73
18.64
22.76
25.08
25.71
24.86
22.86
20.11
16.99
13.88
11.09
8.89
7.50
6.98
7.25
8.03
8.95
9.72
10.16
10.25
10.00
9.31
7.98
5.78
2.64
-1.30
-5.64
-9.88
-13.61
-16.67
-19.15
-21.31
-23.40
-25.67
-28.27
-31.26
-34.57
-37.89
-40.55
-41.70
-40.41
-36.05
-28.58
-18.67
-7.48
3.58
13.34
21.07
26.53
29.85
31.30
31.10
29.43
26.55
22.80
18.72
14.95
12.02
10.23
9.56
9.76
10.43
11.26
12.05
12.77
13.44
14.06
14.45
14.35
13.43
11.44
8.37
4.35
-0.26
-5.05
-9.65
-13.82
-17.47
-20.61
-23.40
-26.11
-29.11
-32.65
-36.72
-40.85
-44.06
-45.12
-42.94
-36.98
-27.48
-15.55
-2.73
9.35
19.49
27.05
31.99
34.62
35.32
34.46
32.23
28.86
24.66
20.14
15.96
12.73
10.85
10.42
11.22
12.81
14.71
16.52
17.94
18.84
19.15
18.89
18.04
16.57
14.39
11.44
7.81
3.65
-0.70
-4.96
-8.95
-12.62
-16.10
-19.53
-23.08
-26.88
-31.01
-35.48
-40.02
-44.02
-46.49
-46.29
-42.48
-34.74
-23.55
-10.18
3.69
16.43
26.79
34.17
38.55
40.27
39.85
37.82
34.62
30.67
26.41
22.31
18.84
16.43
15.26
15.33
16.38
18.03
19.89
21.63
23.02
23.95
24.33
24.10
23.14
21.34
18.56
14.85
10.32
5.27
0.07
-4.94
-9.49
-13.43
-16.84
-19.91
-22.91
-26.16
-29.89
-34.19
-38.88
-43.51
-47.23
-49.01
-47.77
-42.75
-33.82
-21.64
-7.53
6.83
19.91
30.62
38.45
43.42
45.80
45.90
44.01
40.45
35.67
30.30
25.12
20.81
17.92
16.68
16.97
18.35
20.24
22.06
23.37
24.01
24.01
23.49
22.53
21.13
19.11
16.30
12.65
8.29
3.52
-1.26
-5.72
-9.66
-13.08
-16.10
-18.95
-21.86
-25.04
-28.67
-32.83
-37.46
-42.16
-46.15
-48.37
-47.61
-43.08
-34.61
-22.86
-9.18
4.75
17.36
27.52
34.64
38.70
40.00
39.00
36.27
32.33
27.72
22.95
18.51
14.85
12.34
11.19
11.36
12.66
14.70
16.98
19.07
20.64
21.45
21.42
20.49
18.72
16.27
13.27
9.88
6.24
2.38
-1.70
-5.93
-10.19
-14.29
-18.06
-21.40
-24.34
-26.98
-29.53
-32.25
-35.33
-38.83
-42.47
-45.48
-46.77
-45.15
-39.82
-30.75
-18.83
-5.59
7.20
18.13
26.38
31.78
34.59
35.25
34.18
31.82
28.57
24.80
20.92
17.27
14.15
11.78
10.29
9.70
9.92
10.76
11.92
13.10
14.04
14.58
14.67
14.27
13.35
11.90
9.89
7.34
4.33
1.05
-2.34
-5.68
-8.89
-11.97
-14.99
-18.03
-21.15
-24.43
-27.96
-31.79
-35.86
-39.80
-42.96
-44.42
-43.30
-39.07
-31.77
-22.08
-11.17
-0.30
9.49
17.56
23.69
27.92
30.39
31.23
30.55
28.51
25.39
21.65
17.84
14.54
12.16
10.89
10.61
11.10
12.03
13.09
14.04
14.70
14.92
14.60
13.73
12.30
10.36
7.92
4.97
1.57
-2.17
-6.01
-9.65
-12.89
-15.70
-18.16
-20.46
-22.78
-25.25
-27.97
-31.03
-34.49
-38.23
-41.78
-44.32
-44.81
-42.34
-36.56
-27.88
-17.37
-6.37
3.87
12.56
19.36
24.25
27.30
28.58
28.16
26.21
23.11
19.37
15.61
12.32
9.86
8.37
7.87
8.26
9.29
10.75
12.34
13.76
14.73
15.05
14.61
13.39
11.51
9.08
6.30
3.32
0.29
-2.71
-5.66
-8.55
-11.42
-14.24
-16.94
-19.42
-21.64
-23.66
-25.70
-28.07
-30.98
-34.39
-37.80
-40.39
-41.14
-39.35
-34.71
-27.55
-18.71
-9.25
-0.21
7.74
14.20
19.09
22.47
24.43
25.11
24.63
23.25
21.27
19.05
16.89
15.10
13.86
13.27
13.31
13.85
14.66
15.44
15.92
15.91
15.39
14.44
13.19
11.69
9.90
7.68
4.91
1.61
-2.03
-5.65
-9.00
-11.93
-14.48
-16.88
-19.36
-22.10
-25.18
-28.62
-32.35
-36.22
-39.81
-42.45
-43.32
-41.65
-37.06
-29.72
-20.40
-10.20
-0.32
8.39
15.39
20.54
23.95
25.86
26.48
26.02
24.66
22.59
20.15
17.68
15.52
13.97
13.12
12.87
13.02
13.33
13.60
13.79
13.86
13.78
13.46
12.75
11.46
9.39
6.45
2.64
-1.89
-6.81
-11.71
-16.17
-19.93
-22.87
-25.19
-27.14
-29.07
-31.27
-33.90
-36.94
-40.06
-42.63
-43.75
-42.58
-38.55
-31.66
-22.60
-12.45
-2.40
6.64
14.19
20.21
24.86
28.27
30.46
31.27
30.61
28.54
25.38
21.71
18.21
15.43
13.67
12.91
12.82
13.02
13.13
12.98
12.62
12.25
12.14
12.42
12.99
13.43
13.24
11.97
9.45
5.86
1.62
-2.83
-7.20
-11.41
-15.52
-19.57
-23.59
-27.53
-31.26
-34.55
-36.97
-37.97
-36.98
-33.66
-28.06
-20.70
-12.33
-3.72
4.56
12.12
18.73
24.09
27.95
30.08
30.43
29.14
26.56
23.16
19.46
16.05
13.43
12.04
11.99
13.12
14.93
16.80
18.10
18.46
17.83
16.38
14.41
12.16
9.67
6.83
3.39
-0.79
-5.71
-11.12
-16.64
-21.91
-26.69
-30.89
-34.56
-37.86
-41.00
-44.26
-47.86
-51.88
-56.11
-59.92
-62.40
-62.61
-59.88
-54.04
-45.57
-35.36
-24.59
-14.39
-5.55
1.57
7.08
11.43
15.17
18.72
22.19
25.43
28.08
29.94
31.06
31.82
32.67
33.97
35.81
37.99
40.13
41.73
42.40
41.89
40.19
37.43
33.86
29.78
25.48
21.31
17.68
15.02
13.79
14.26
16.37
19.71
23.54
27.09
29.90
31.90
33.44
35.10
37.31
40.33
44.26
49.11
54.94
61.76
69.20
76.27
81.36
82.70
78.97
70.03
56.98
41.81
26.65
12.91
0.98
-9.65
-19.81
-30.12
-40.62
-50.79
-59.81
-66.80
-71.16
-72.64
-71.36
-67.72
-62.32
-55.81
-48.89
-42.15
-36.12
-31.21
-27.66
-25.49
-24.51
-24.36
-24.64
-25.06
-25.64
-26.56
-28.07
-30.26
-33.02
-36.02
-38.86
-41.25
-43.11
-44.68
-46.35
-48.50
-51.21
-54.15
-56.56
-57.42
-55.82
-51.31
-44.08
-34.92
-24.95
-15.23
-6.51
0.88
6.91
11.73
15.42
18.05
19.62
20.08
19.50
18.02
15.94
13.77
12.01
11.24
11.81
13.86
17.22
21.45
25.94
30.07
33.34
35.46
36.40
36.39
35.84
35.14
34.58
34.22
33.80
32.83
30.68
26.79
20.79
12.76
3.21
-6.97
-16.80
-25.43
-32.35
-37.47
-40.87
-42.66
-42.80
-41.11
-37.53
-32.21
-25.74
-18.90
-12.48
-7.04
-2.73
0.54
2.98
4.74
5.91
6.55
6.73
6.68
6.65
6.89
7.59
8.74
10.23
11.83
13.36
14.70
15.92
17.17
18.58
20.17
21.73
22.87
23.28
22.76
21.33
19.20
16.59
13.69
10.65
7.56
4.54
1.66
-1.07
-3.71
-6.30
-8.91
-11.46
-13.84
-15.92
-17.71
-19.27
-20.68
-21.88
-22.54
-22.21
-20.38
-16.69
-11.04
-3.67
4.91
13.94
22.60
30.10
35.82
39.45
41.07
41.09
40.07
38.53
36.75
34.67
32.02
28.40
23.53
17.41
10.34
2.85
-4.37
-10.72
-15.80
-19.38
-21.48
-22.24
-21.84
-20.53
-18.64
-16.55
-14.68
-13.43
-13.10
-13.90
-15.88
-19.01
-23.21
-28.35
-34.27
-40.70
-47.36
-53.79
-59.55
-64.22
-67.54
-69.41
-69.79
-68.62
-65.70
-60.75
-53.57
-44.34
-33.69
-22.56
-12.01
-2.82
4.65
10.47
14.89
18.17
20.51
22.08
23.09
23.81
24.48
25.25
26.05
26.76
27.19
27.30
27.14
26.86
26.60
26.48
26.61
27.09
27.99
29.24
30.66
31.93
32.73
32.75
31.79
29.61
26.07
21.27
15.63
9.96
5.16
1.88
0.31
0.12
0.74
1.84
3.46
6.02
9.98
15.46
22.16
29.38
36.28
42.06
46.07
47.85
47.19
44.09
38.71
31.20
21.75
10.58
-1.67
-13.91
-24.54
-31.91
-34.93
-33.53
-28.66
-21.79
-14.41
-7.43
-1.23
4.07
8.27
11.05
12.07
11.26
8.93
5.65
1.99
-1.75
-5.65
-10.04
-15.25
-21.46
-28.51
-35.91
-43.02
-49.32
-54.74
-59.69
-64.93
-70.96
-77.49
-83.11
-85.75
-83.47
-75.29
-61.80
-44.71
-26.17
-7.98
8.76
23.44
35.51
44.20
48.87
49.53
47.34
44.37
42.81
44.03
47.90
52.95
57.19
59.09
58.15
54.92
50.51
45.88
41.48
37.27
32.94
28.25
23.21
18.01
12.93
8.14
3.62
-0.73
-5.07
-9.60
-14.34
-19.21
-24.03
-28.62
-32.92
-37.00
-40.89
-44.40
-46.97
-47.80
-46.17
-41.82
-35.22
-27.39
-19.55
-12.66
-7.06
-2.63
1.01
4.11
6.56
8.05
8.31
7.45
5.89
4.29
3.19
2.84
3.15
3.83
4.66
5.53
6.53
7.69
8.95
10.05
10.65
10.43
9.20
6.96
3.84
0.08
-4.02
-8.10
-11.84
-14.96
-17.40
-19.32
-21.07
-23.09
-25.77
-29.33
-33.65
-38.31
-42.64
-45.88
-47.40
-46.82
-44.17
-39.77
-34.11
-27.73
-21.11
-14.70
-8.97
-4.35
-1.22
0.23
0.01
-1.60
-4.15
-7.15
-10.15
-12.77
-14.81
-16.16
-16.85
-16.91
-16.38
-15.32
-13.81
-12.01
-10.10
-8.22
-6.40
-4.54
-2.37
0.54
4.57
9.96
16.64
24.06
31.39
37.73
42.42
45.26
46.53
46.83
46.78
46.89
47.44
48.65
50.78
54.15
59.02
65.41
72.96
80.73
87.24
90.65
89.29
82.11
69.24
52.07
32.85
14.08
-2.26
-15.13
-24.43
-30.75
-34.86
-37.42
-38.82
-39.21
-38.65
-37.26
-35.28
-33.05
-30.94
-29.18
-27.90
-27.06
-26.57
-26.44
-26.77
-27.67
-29.25
-31.46
-34.16
-37.16
-40.26
-43.28
-45.86
-47.51
-47.56
-45.35
-40.46
-32.96
-23.40
-12.64
-1.67
8.60
17.47
24.46
29.33
32.00
32.63
31.57
29.43
26.87
24.53
22.83
21.91
21.64
21.76
21.95
22.00
21.89
21.70
21.59
21.60
21.56
21.12
19.94
17.83
14.91
11.49
7.91
4.42
0.99
-2.57
-6.56
-11.18
-16.48
-22.36
-28.56
-34.64
-39.94
-43.63
-44.85
-43.03
-38.08
-30.43
-20.89
-10.45
-0.01
9.67
18.04
24.64
29.21
31.75
32.52
32.02
30.85
29.53
28.38
27.50
26.89
26.40
25.91
25.29
24.46
23.45
22.39
21.40
20.62
20.02
19.45
18.67
17.43
15.56
12.98
9.75
5.93
1.65
-2.87
-7.40
-11.62
-15.30
-18.31
-20.75
-22.92
-25.26
-28.10
-31.47
-34.97
-37.78
-38.95
-37.68
-33.61
-26.94
-18.35
-8.80
0.73
9.43
16.70
22.28
26.11
28.27
29.07
28.91
28.26
27.53
26.98
26.67
26.53
26.40
26.24
26.12
26.18
26.52
27.06
27.51
27.51
26.74
25.07
22.54
19.34
15.58
11.38
6.79
1.97
-2.90
-7.54
-11.75
-15.45
-18.69
-21.68
-24.64
-27.82
-31.44
-35.52
-39.89
-43.97
-46.94
-47.84
-45.97
-41.09
-33.57
-24.27
-14.29
-4.58
4.22
11.78
18.07
23.04
26.68
28.88
29.61
28.99
27.35
25.17
22.95
21.04
19.60
18.56
17.82
17.34
17.14
17.24
17.53
17.72
17.42
16.27
14.10
11.07
7.47
3.68
-0.05
-3.62
-7.05
-10.37
-13.62
-16.73
-19.66
-22.41
-25.11
-27.92
-31.04
-34.50
-38.07
-41.29
-43.54
-44.24
-42.99
-39.68
-34.44
-27.61
-19.63
-10.98
-2.16
6.29
13.83
19.98
24.39
26.97
27.79
27.17
25.55
23.45
21.32
19.55
18.36
17.82
17.87
18.29
18.89
19.49
19.91
20.02
19.74
18.98
17.71
15.95
13.76
11.22
8.38
5.28
2.02
-1.30
-4.52
-7.54
-10.35
-13.10
-16.09
-19.63
-23.81
-28.41
-32.85
-36.31
-38.02
-37.53
-34.77
-30.04
-23.84
-16.68
-9.01
-1.22
6.33
13.26
19.22
23.89
27.13
28.92
29.37
28.67
27.15
25.15
23.05
21.16
19.64
18.49
17.61
16.87
16.22
15.65
15.19
14.78
14.28
13.44
12.02
9.90
7.14
3.94
0.56
-2.76
-5.93
-8.96
-11.95
-15.03
-18.24
-21.63
-25.19
-28.87
-32.55
-35.95
-38.64
-40.08
-39.76
-37.46
-33.21
-27.37
-20.46
-13.04
-5.57
1.56
8.00
13.41
17.49
20.03
21.08
20.89
19.89
18.53
17.16
15.92
14.83
13.80
12.78
11.84
11.08
10.61
10.45
10.48
10.46
10.11
9.20
7.62
5.39
2.63
-0.45
-3.67
-6.92
-10.12
-13.33
-16.57
-19.94
-23.48
-27.21
-31.15
-35.17
-38.98
-42.12
-44.09
-44.50
-43.21
-40.26
-35.91
-30.40
-23.93
-16.72
-9.13
-1.66
5.07
10.52
14.43
16.82
17.95
18.19
17.86
17.21
16.40
15.54
14.69
13.91
13.25
12.71
12.38
12.32
12.61
13.26
14.11
14.89
15.24
14.84
13.54
11.34
8.40
5.01
1.40
-2.19
-5.66
-8.95
-12.09
-15.20
-18.39
-21.76
-25.16
-28.21
-30.30
-30.84
-29.40
-25.90
-20.61
-13.98
-6.54
1.20
8.80
15.82
21.81
26.39
29.34
30.60
30.40
29.11
27.15
24.89
22.62
20.52
18.69
17.20
16.09
15.44
15.26
15.44
15.84
16.20
16.25
15.81
14.76
13.07
10.74
7.83
4.45
0.79
-2.90
-6.39
-9.52
-12.32
-14.96
-17.69
-20.77
-24.32
-28.30
-32.37
-35.99
-38.49
-39.31
-38.08
-34.78
-29.65
-23.15
-15.74
-7.95
-0.28
6.85
12.94
17.64
20.75
22.31
22.64
22.16
21.27
20.24
19.27
18.43
17.81
17.55
17.73
18.34
19.18
19.94
20.33
20.16
19.42
18.18
16.52
14.44
11.90
8.77
5.09
1.00
-3.26
-7.44
-11.33
-14.86
-18.04
-20.96
-23.80
-26.67
-29.71
-32.90
-36.06
-38.73
-40.41
-40.59
-38.91
-35.33
-30.03
-23.43
-15.98
-8.20
-0.54
6.52
12.53
17.16
20.31
22.12
22.86
22.84
22.30
21.35
20.06
18.55
17.04
15.77
14.97
14.66
14.76
15.04
15.30
15.45
15.42
15.16
14.52
13.36
11.56
9.14
6.29
3.29
0.36
-2.45
-5.22
-8.09
-11.11
-14.18
-17.15
-19.92
-22.48
-24.97
-27.57
-30.41
-33.45
-36.43
-38.85
-40.07
-39.51
-36.78
-31.84
-24.99
-16.87
-8.20
0.34
8.23
15.14
20.87
25.33
28.50
30.44
31.36
31.56
31.39
31.12
30.84
30.44
29.73
28.53
26.83
24.81
22.79
21.00
19.47
18.05
16.47
14.48
12.00
9.13
6.05
2.92
-0.24
-3.50
-6.96
-10.67
-14.55
-18.38
-21.95
-25.07
-27.69
-29.91
-31.95
-34.11
-36.53
-39.11
-41.41
-42.68
-42.14
-39.25
-33.94
-26.58
-17.96
-8.92
-0.18
7.77
14.65
20.30
24.64
27.62
29.32
29.85
29.44
28.39
26.98
25.46
24.04
22.86
21.98
21.42
21.17
21.22
21.53
22.00
22.41
22.57
22.23
21.29
19.70
17.52
14.86
11.79
8.35
4.62
0.67
-3.40
-7.40
-11.19
-14.60
-17.53
-19.91
-21.86
-23.55
-25.26
-27.37
-30.07
-33.36
-36.92
-40.07
-42.04
-42.08
-39.71
-34.84
-27.85
-19.44
-10.53
-2.06
5.21
10.73
14.28
15.91
15.97
14.93
13.38
11.82
10.63
9.98
9.90
10.27
10.93
11.76
12.69
13.74
14.94
16.23
17.51
18.54
19.05
18.78
17.58
15.41
12.34
8.53
4.19
-0.46
-5.25
-9.96
-14.41
-18.44
-22.01
-25.18
-28.06
-30.79
-33.47
-36.15
-38.79
-41.23
-43.25
-44.55
-44.69
-43.24
-39.85
-34.35
-26.86
-17.89
-8.27
1.06
9.15
15.30
19.16
20.73
20.25
18.16
14.96
11.21
7.51
4.44
2.43
1.63
1.82
2.61
3.56
4.44
5.27
6.23
7.45
8.87
10.22
11.13
11.31
10.64
9.21
7.17
4.69
1.89
-1.14
-4.20
-7.14
-9.81
-12.22
-14.58
-17.09
-19.85
-22.60
-24.81
-25.75
-24.88
-22.00
-17.31
-11.30
-4.55
2.38
9.02
15.02
20.06
23.98
26.68
28.19
28.66
28.15
26.79
24.72
22.24
19.72
17.52
15.90
14.90
14.36
14.06
13.87
13.72
13.69
13.68
13.48
12.63
10.65
7.26
2.53
-2.98
-8.50
-13.26
-16.90
-19.47
-21.45
-23.39
-25.68
-28.45
-31.50
-34.53
-37.19
-39.17
-40.18
-39.97
-38.35
-35.16
-30.42
-24.26
-17.01
-9.09
-1.10
6.37
12.76
17.58
20.59
21.75
21.32
19.80
17.89
16.25
15.32
15.16
15.45
15.73
15.67
15.26
14.86
14.86
15.44
16.36
17.11
17.17
16.42
15.06
13.54
12.26
11.28
10.28
8.73
6.22
2.53
-2.13
-7.34
-12.51
-17.02
-20.35
-21.95
-21.32
-18.03
-11.89
-3.10
7.70
19.50
31.13
41.59
50.26
56.94
61.69
64.59
65.67
64.84
62.12
57.75
52.25
46.25
40.32
34.75
29.54
24.55
19.62
14.75
10.02
5.51
1.20
-3.07
-7.53
-12.40
-17.72
-23.43
-29.27
-35.02
-40.47
-45.47
-49.98
-54.03
-57.74
-61.25
-64.69
-68.11
-71.44
-74.46
-76.73
-77.77
-77.06
-74.22
-69.10
-61.86
-52.90
-42.87
-32.48
-22.47
-13.54
-6.28
-1.10
1.78
2.46
1.43
-0.44
-2.04
-2.31
-0.56
3.35
8.92
15.24
21.26
26.16
29.54
31.52
32.60
33.37
34.33
35.74
37.62
39.87
42.43
45.20
48.04
50.66
52.59
53.36
52.67
50.61
47.59
44.14
40.76
37.83
35.87
35.54
37.54
42.15
48.81
56.01
61.71
64.07
62.19
56.43
47.98
38.38
28.68
19.34
10.34
1.57
-6.83
-14.50
-20.98
-25.97
-29.45
-31.58
-32.59
-32.64
-31.82
-30.17
-27.80
-24.90
-21.78
-18.80
-16.27
-14.43
-13.39
-13.17
-13.64
-14.62
-15.90
-17.29
-18.66
-20.04
-21.53
-23.27
-25.40
-27.92
