1720025976.00
64.000000
-0.00
-0.00
-0.00
-0.00
-0.00
-0.00
-0.00
-0.00
-0.00
-0.00
0.00
0.01
0.01
-0.00
-0.03
-0.05
-0.05
0.00
0.13
0.36
0.66
1.01
1.37
1.72
2.06
2.40
2.79
3.24
3.80
4.42
5.06
5.66
6.20
6.68
7.15
7.68
8.31
9.14
10.09
11.04
11.88
12.56
13.14
13.76
14.65
15.96
17.91
20.32
22.90
25.38
27.58
29.57
31.68
34.32
37.81
42.54
48.15
54.10
59.83
64.97
69.58
74.14
79.34
85.71
93.76
103.00
112.62
121.73
129.77
136.75
143.30
150.75
157.77
166.64
177.95
191.79
206.97
220.57
228.25
225.36
208.53
176.87
132.76
80.05
23.07
-34.94
-92.44
-149.16
-205.23
-260.37
-313.74
-363.87
-409.83
-450.91
-486.50
-515.74
-537.23
-549.22
-549.96
-538.37
-514.20
-478.66
-433.86
-382.41
-326.96
-269.76
-212.52
-156.51
-102.76
-52.13
-5.61
35.92
71.83
101.81
126.03
144.97
159.36
169.89
177.20
181.67
183.59
183.20
180.76
176.61
171.17
164.85
157.99
150.83
143.53
136.16
128.75
121.35
114.03
106.86
99.91
93.23
86.86
80.81
75.09
69.70
64.67
59.99
55.69
51.75
48.20
45.01
42.20
39.75
37.67
35.95
34.57
33.55
32.86
32.52
32.52
32.85
33.50
34.46
35.67
37.06
38.55
40.00
41.25
42.12
42.45
42.07
40.88
38.85
35.99
32.37
28.15
23.54
18.76
14.02
9.52
5.37
1.64
-1.69
-4.71
-7.49
-10.17
-12.82
-15.47
-18.12
-20.70
-23.13
-25.32
-27.21
-28.77
-30.10
-31.34
-32.71
-34.46
-36.82
-39.95
-43.93
-48.64
-53.83
-59.10
-63.94
-67.81
-70.19
-70.66
-68.95
-65.01
-59.03
-51.35
-42.60
-33.37
-24.15
-15.29
-6.91
1.05
8.84
16.79
25.25
34.35
44.09
54.32
64.67
74.73
84.00
92.01
98.39
103.00
105.70
106.61
106.05
104.48
102.38
100.18
98.20
96.56
96.36
98.08
101.89
107.71
115.25
124.03
133.47
142.89
151.59
158.94
164.18
166.77
166.34
162.72
155.95
146.20
133.85
119.42
103.60
87.06
70.59
55.03
41.13
29.52
20.55
14.34
10.71
9.26
9.38
10.48
12.00
13.47
14.48
14.62
13.49
10.85
6.62
1.03
-5.40
-11.97
-17.98
-23.07
-27.36
-31.53
-36.58
-43.53
-53.03
-65.07
-79.05
-94.03
-109.24
-124.39
-139.79
-156.11
-173.92
-193.15
-212.92
-231.70
-247.75
-259.85
-267.80
-272.51
-275.78
-279.87
-286.77
-297.55
-311.63
-326.45
-337.63
-339.96
-328.90
-302.25
-261.27
-210.62
-157.15
-107.81
-67.66
-38.74
-20.28
-9.81
-4.64
-3.04
-4.41
-8.72
-15.61
-23.79
-31.03
-34.82
-33.39
-26.49
-15.46
-2.78
8.72
16.78
20.19
18.89
13.72
6.02
-2.56
-10.18
-14.69
-13.80
-5.58
10.61
33.36
59.13
82.95
99.85
106.61
102.67
90.06
72.78
55.47
42.30
36.15
37.92
45.93
56.00
62.30
59.24
43.91
18.08
-11.66
-35.79
-45.29
-35.11
-6.03
36.01
82.55
125.79
160.76
185.63
200.28
204.99
200.04
186.73
168.39
150.42
138.39
135.28
139.66
146.00
147.32
138.62
119.01
91.41
60.22
28.66
-2.66
-35.24
-70.84
-109.75
-150.14
-188.83
-222.50
-248.78
-266.51
-275.45
-276.08
-269.15
-255.37
-235.34
-209.20
-176.69
-137.51
-92.22
-42.90
6.68
51.83
88.45
114.43
130.39
139.10
143.81
146.33
145.96
140.06
125.77
102.16
71.44
38.71
10.47
-7.40
-11.14
0.44
26.10
62.71
105.70
149.51
188.78
220.03
243.43
263.21
286.07
317.66
359.00
405.09
446.22
472.08
475.90
456.87
419.64
371.69
320.31
270.56
225.13
184.98
150.24
120.33
93.74
67.96
40.01
7.57
-30.20
-72.03
-115.21
-156.65
-194.17
-227.52
-258.83
-292.20
-332.19
-381.44
-438.21
-495.51
-542.30
-567.08
-562.28
-527.31
-468.77
-397.59
-324.50
-256.47
-194.97
-137.12
-78.32
-15.05
53.32
123.84
190.76
247.07
286.23
304.36
301.34
280.72
248.03
208.87
167.17
124.83
82.18
38.29
-7.84
-56.58
-106.98
-156.13
-198.93
-229.24
-241.87
-234.81
-211.69
-179.99
-148.46
-123.95
-109.37
-103.76
-103.96
-106.52
-108.65
-110.84
-113.66
-116.66
-117.81
-114.40
-104.84
-90.18
-74.20
-61.66
-60.78
-77.64
-114.80
-171.31
-243.56
-326.75
-415.80
-505.27
-588.66
-665.01
-733.90
-795.08
-848.04
-891.88
-925.86
-950.20
-965.85
-948.60
-883.70
-765.03
-600.09
-409.28
-217.68
-44.73
101.55
216.91
315.27
404.27
485.09
553.69
605.09
637.25
653.02
654.14
644.42
628.78
606.46
576.63
540.48
502.35
469.10
447.27
439.99
446.21
461.54
476.31
481.80
472.99
449.78
416.82
381.72
352.63
336.21
335.67
347.57
364.36
377.19
379.23
368.17
347.02
322.47
302.37
292.66
294.88
307.19
325.89
346.96
366.58
380.92
385.99
378.57
357.30
323.73
282.47
239.80
201.51
170.77
147.44
129.01
112.25
94.54
74.61
52.02
26.76
-0.93
-30.17
-58.53
-81.82
-95.11
-94.78
-80.53
-56.48
-30.19
-10.24
-3.66
-13.65
-39.32
-76.93
-121.91
-170.27
-219.31
-267.36
-313.34
-357.36
-400.07
-442.44
-485.16
-528.30
-570.50
-608.66
-637.88
-651.88
-645.50
-615.44
-561.87
-489.36
-406.32
-322.68
-246.29
-179.58
-118.93
-59.62
1.31
61.42
112.73
144.95
150.28
127.11
80.79
20.85
-46.37
-118.31
-195.81
-279.78
-367.95
-454.21
-530.46
-589.52
-609.90
-578.44
-492.90
-364.70
-214.99
-65.46
69.11
182.36
273.66
344.71
394.69
422.65
429.10
417.46
394.08
366.40
340.66
320.62
307.18
297.04
286.16
271.49
252.48
231.08
210.35
192.89
179.91
171.19
164.49
157.42
148.59
138.04
127.14
117.61
110.37
105.58
102.49
99.84
96.59
92.64
88.41
84.56
81.49
78.37
74.53
67.88
57.11
42.20
24.28
5.16
-13.37
-30.35
-46.04
-61.52
-78.40
-98.06
-121.00
-146.44
-171.27
-190.35
-197.03
-185.94
-155.03
-107.63
-51.49
3.84
49.74
81.94
100.57
109.76
114.96
121.31
131.75
146.79
165.14
182.64
194.31
195.15
182.84
158.50
126.23
90.68
55.01
20.15
-16.58
-55.18
-95.86
-137.24
-176.57
-210.91
-238.69
-260.09
-275.35
-286.01
-292.99
-297.56
-300.06
-301.60
-303.68
-307.02
-315.27
-321.57
-318.13
-298.40
-260.74
-207.44
-145.91
-86.23
-37.62
-5.74
9.19
9.38
-1.48
-19.96
-40.26
-57.01
-65.82
-63.51
-47.66
-16.35
30.44
91.58
164.55
249.40
344.89
447.03
549.19
643.13
721.15
776.52
804.66
783.78
705.05
575.28
414.66
247.77
93.91
-36.45
-140.74
-221.14
-282.22
-325.29
-351.53
-363.75
-365.99
-362.49
-356.45
-349.76
-343.00
-336.78
-330.29
-320.32
-305.55
-286.07
-262.82
-236.58
-207.50
-175.25
-140.29
-101.08
-56.20
-8.06
40.14
85.12
124.27
155.66
182.94
204.57
218.85
224.44
220.06
205.94
183.51
155.05
122.94
89.24
54.46
19.48
-14.21
-47.83
-78.87
-102.74
-114.67
-110.95
-90.07
-53.55
-3.95
56.04
124.36
194.36
258.61
309.92
344.19
362.02
366.98
362.85
350.69
327.78
289.96
235.27
166.24
91.04
20.95
-33.97
-68.71
-84.54
-87.54
-84.84
-80.93
-77.19
-72.24
-64.70
-54.97
-45.29
-38.10
-36.72
-42.47
-54.59
-70.95
-88.70
-105.21
-118.77
-128.65
-134.93
-137.76
-136.83
-131.71
-122.81
-111.33
-99.10
-87.79
-77.66
-67.18
-53.60
-34.49
-8.55
19.90
43.38
55.12
52.28
37.12
15.11
-7.72
-27.27
-42.52
-54.19
-63.05
-68.99
-71.26
-69.50
-64.63
-58.78
-54.37
-53.43
-56.46
-62.14
-68.09
-71.93
-72.52
-70.51
-67.92
-67.12
-70.03
-77.06
-86.75
-96.51
-103.65
-106.48
-104.78
-100.24
-93.39
-84.47
-72.70
-56.47
-34.09
-4.52
32.14
74.34
119.30
163.19
200.61
225.14
231.21
216.45
183.66
140.45
96.95
61.98
39.97
29.87
27.05
26.46
25.22
23.34
22.36
23.48
26.44
29.47
30.43
28.18
23.17
17.19
12.74
11.67
14.50
20.44
27.58
33.93
38.17
39.82
38.80
35.23
28.39
18.24
6.19
-4.78
-11.05
-10.22
-2.81
7.56
15.50
16.53
9.31
-4.12
-19.70
-33.68
-44.28
-51.69
-57.00
-61.07
-63.84
-64.60
-63.00
-59.58
-55.78
-53.22
-53.11
-55.45
-59.37
-63.54
-66.75
-68.55
-69.31
-69.96
-71.58
-74.72
-79.12
-83.74
-87.15
-87.92
-85.39
-79.26
-69.91
-58.13
-44.82
-30.70
-16.36
-2.25
11.20
23.45
33.94
42.14
47.75
50.71
51.31
49.95
47.15
43.38
38.95
34.07
28.86
23.44
18.01
12.80
8.00
3.80
0.38
-2.28
-4.33
-5.98
-7.52
-9.30
-11.63
-14.85
-19.15
-24.63
-31.34
-39.29
-48.05
-57.33
-66.80
-76.16
-85.06
-93.16
-100.15
-105.92
-110.56
-113.84
-115.81
-116.67
-116.61
-115.75
-114.10
-111.64
-108.45
-104.86
-100.70
-96.07
-90.96
-85.06
-77.59
-67.31
-52.62
-31.67
-7.24
19.15
45.87
71.42
94.68
115.10
132.67
147.68
160.36
170.49
178.06
182.65
183.86
181.74
176.99
170.88
165.21
162.28
164.46
173.95
190.97
212.82
233.94
247.11
245.87
227.02
191.89
145.57
95.24
47.53
7.21
-22.71
-40.48
-45.37
-38.13
-21.63
-0.84
18.73
32.64
39.13
39.17
35.34
30.25
25.70
22.55
21.26
22.29
25.59
30.15
33.91
34.60
31.13
24.40
17.28
13.19
14.41
20.67
29.11
35.44
35.73
28.12
13.66
-4.11
-20.67
-32.33
-37.68
-38.08
-36.86
-37.79
-43.79
-56.12
-74.47
-97.23
-121.51
-143.22
-157.83
-161.69
-153.76
-136.41
-114.66
-93.96
-77.74
-66.25
-56.98
-46.66
-33.09
-15.97
3.55
24.08
44.73
64.97
83.94
99.97
110.82
114.88
112.00
103.70
92.68
81.70
72.53
65.54
59.67
53.27
45.07
34.87
23.73
13.33
5.18
-0.03
-2.70
-3.91
-4.91
-6.65
-9.55
-13.43
-17.68
-21.65
-24.75
-26.82
-28.10
-29.02
-29.93
-30.89
-31.59
-31.58
-30.58
-28.64
-26.28
-24.19
-22.89
-22.59
-23.14
-24.17
-25.31
-26.25
-26.89
-27.35
-27.84
-28.54
-29.47
-30.34
-30.70
-30.12
-28.55
-26.39
-24.50
-23.75
-24.61
-26.93
-29.89
-32.40
-33.62
-33.31
-31.95
-30.51
-29.99
-30.94
-33.32
-36.28
-38.77
-39.88
-39.34
-37.83
-36.79
-37.89
-42.29
-50.03
-59.67
-68.90
-75.28
-77.26
-74.84
-69.30
-62.73
-57.19
-54.12
-54.15
-57.45
-63.86
-72.75
-82.61
-91.06
-95.70
-95.50
-91.82
-88.13
-88.46
-94.78
-105.32
-115.33
-119.58
-115.65
-105.19
-92.49
-80.95
-70.04
-54.91
-29.22
10.41
61.42
115.51
162.26
193.57
206.79
204.77
193.27
177.74
160.99
143.11
122.89
99.69
74.41
49.61
28.63
14.20
7.51
7.79
13.00
20.59
28.49
35.59
41.77
47.43
52.68
56.93
58.62
55.81
47.02
32.03
12.40
-8.79
-27.81
-41.62
-48.62
-49.11
-44.65
-37.06
-27.54
-16.38
-3.27
12.05
29.21
47.22
64.77
80.75
94.59
106.32
116.32
125.00
132.44
138.42
142.62
144.82
145.20
144.38
143.30
142.98
144.15
147.09
151.50
156.56
161.22
164.41
165.23
162.88
156.65
145.90
130.15
109.04
82.53
51.08
15.81
-21.62
-59.09
-94.51
-126.10
-152.68
-173.77
-189.59
-200.88
-208.53
-213.32
-215.62
-215.41
-212.43
-206.35
-196.90
-184.00
-167.70
-148.21
-125.91
-101.25
-74.86
-47.57
-20.39
5.55
28.95
48.33
61.98
68.44
67.08
58.59
45.10
29.61
15.08
3.51
-4.38
-8.97
-11.14
-11.46
-10.10
-6.86
-1.71
4.95
12.28
19.27
25.17
29.63
32.69
34.52
35.36
35.50
34.99
33.63
30.84
25.95
18.68
9.41
-0.72
-10.29
-18.22
-24.38
-29.48
-34.71
-41.12
-49.25
-59.07
-70.21
-82.28
-94.91
-107.68
-119.90
-130.61
-138.74
-143.45
-144.33
-141.42
-134.98
-125.26
-112.35
-96.15
-76.76
-54.65
-30.71
-5.93
18.88
43.45
67.79
91.93
115.53
137.90
158.33
176.71
193.63
209.84
225.41
239.04
248.30
250.87
245.81
234.08
217.91
199.36
179.18
156.86
131.68
103.94
75.43
48.60
25.19
5.17
-13.18
-32.10
-52.86
-75.00
-96.65
-115.46
-129.68
-138.67
-142.80
-143.11
-140.83
-137.04
-132.36
-126.80
-119.64
-109.74
-95.90
-77.35
-54.13
-27.10
2.17
31.81
59.84
84.55
104.48
118.64
126.60
128.57
125.40
118.33
108.53
96.75
83.29
68.20
51.71
34.43
17.35
1.45
-12.61
-24.77
-35.36
-44.73
-53.01
-60.11
-65.85
-70.36
-74.14
-77.86
-82.04
-86.76
-91.59
-95.96
-99.44
-101.97
-103.94
-105.86
-108.21
-111.25
-114.98
-119.27
-123.93
-128.72
-133.32
-137.28
-140.14
-141.51
-141.20
-139.31
-136.23
-132.44
-128.35
-124.04
-119.10
-112.62
-103.46
-90.66
-73.90
-53.75
-31.61
-9.25
11.86
31.22
49.44
67.99
88.45
111.53
136.60
161.74
184.37
202.25
214.07
219.58
218.97
212.28
198.87
177.92
149.12
113.32
72.64
29.87
-12.26
-51.65
-86.88
-117.06
-141.64
-160.47
-174.11
-183.98
-192.32
-201.29
-211.96
-223.17
-231.48
-232.30
-221.96
-199.66
-168.06
-132.35
-97.69
-66.88
-39.35
-12.30
16.90
48.38
79.11
104.26
119.62
123.80
118.73
108.50
97.43
88.38
82.26
78.43
75.77
73.70
72.61
73.52
77.39
84.35
93.48
103.15
111.75
118.46
123.51
128.03
133.39
140.58
149.81
160.52
171.68
182.24
191.39
198.73
204.06
207.07
207.22
203.76
195.99
183.56
166.80
146.60
124.21
100.73
76.87
52.96
29.09
5.54
-17.07
-37.75
-55.44
-69.37
-79.47
-86.35
-91.11
-94.90
-98.51
-102.20
-105.86
-109.35
-112.87
-117.06
-122.69
-130.21
-139.21
-148.43
-156.04
-160.37
-160.44
-156.45
-149.66
-142.12
-136.03
-133.19
-134.43
-139.31
-146.18
-152.32
-154.59
-150.15
-137.34
-116.36
-89.50
-60.57
-33.74
-12.12
3.27
13.72
21.92
30.58
40.97
52.31
62.17
67.69
66.98
60.06
48.96
36.98
27.63
23.41
25.26
32.46
43.18
55.12
66.35
75.55
82.10
85.93
87.12
85.88
82.60
77.87
72.52
67.42
63.20
59.91
57.05
53.61
48.52
41.19
31.80
21.39
11.57
3.88
-0.79
-2.46
-2.04
-0.89
-0.16
-0.49
-1.72
-3.16
-4.03
-3.80
-2.44
-0.47
1.37
2.34
1.96
0.20
-2.64
-5.98
-9.27
-12.10
-14.41
-16.34
-18.09
-19.84
-21.57
-23.19
-24.56
-25.60
-26.29
-26.66
-26.65
-26.12
-24.99
-23.19
-20.83
-18.21
-15.71
-13.67
-12.26
-11.33
-10.58
-9.74
-8.68
-7.56
-6.73
-6.47
-6.87
-7.77
-8.82
-9.75
-10.45
-10.94
-11.29
-11.54
-11.57
-11.18
-10.24
-8.75
-6.83
-4.65
-2.34
0.07
2.58
5.23
7.95
10.58
12.90
14.70
15.90
16.49
16.60
16.37
15.90
15.21
14.30
13.14
11.77
10.30
8.82
7.36
5.83
4.11
2.19
0.18
-1.55
-2.70
-3.12
-3.03
-2.99
-3.66
-5.54
-8.74
-12.90
-17.35
-21.36
-24.41
-26.43
-27.78
-29.13
-31.17
-34.28
-38.30
-42.52
-46.00
-48.07
-48.68
-48.58
-48.98
-50.97
-54.96
-60.36
-65.84
-69.88
-71.48
-70.64
-68.35
-66.20
-65.89
-68.82
-75.67
-86.04
-97.97
-107.66
-110.04
-100.05
-74.78
-35.19
13.47
62.98
105.00
133.82
148.03
150.06
144.38
135.24
125.31
115.65
106.44
97.94
90.79
85.72
82.93
81.78
80.88
78.70
74.29
67.63
59.57
51.41
44.25
38.55
33.96
29.62
24.63
18.63
11.94
5.42
0.03
-3.71
-5.86
-7.08
-8.22
-9.89
-12.36
-15.43
-18.76
-22.11
-25.40
-28.65
-31.87
-34.86
-37.27
-38.86
-39.57
-39.82
-40.30
-41.80
-44.85
-49.58
-55.61
-62.11
-67.76
-70.67
-68.70
-59.93
-43.34
-19.35
10.17
42.60
75.46
107.13
136.94
164.51
188.94
208.56
221.34
225.83
221.92
211.07
195.62
178.01
160.15
143.25
127.97
114.61
103.09
92.75
82.30
70.15
54.98
36.37
15.01
-7.56
-29.61
-49.74
-67.30
-82.23
-94.74
-105.03
-113.10
-118.92
-122.59
-124.45
-124.91
-124.25
-122.42
-119.07
-113.82
-106.54
-97.63
-87.86
-78.12
-69.14
-61.22
-54.40
-48.57
-43.74
-39.94
-37.15
-35.21
-33.75
-32.11
-29.37
-24.59
-17.34
-7.90
2.72
13.10
21.91
28.30
32.03
33.19
31.89
27.92
20.84
10.23
-4.00
-21.48
-41.32
-62.11
-81.92
-98.39
-109.26
-112.96
-109.25
-99.44
-85.91
-71.26
-57.57
-45.99
-36.86
-30.17
-25.91
-24.05
-24.20
-25.40
-26.23
-25.36
-22.09
-16.63
-10.01
-3.59
1.63
5.31
7.86
10.04
12.53
15.61
19.12
22.70
25.96
28.69
30.81
32.46
33.81
35.01
36.09
37.01
37.65
37.91
37.69
36.80
35.04
32.24
28.23
22.83
16.03
7.95
-1.12
-10.73
-20.39
-29.53
-37.65
-44.35
-49.29
-52.22
-52.92
-51.23
-47.07
-40.40
-31.32
-20.05
-6.90
7.69
23.21
39.08
54.68
69.33
82.34
93.08
101.03
105.81
107.28
105.46
100.51
92.73
82.52
70.36
56.82
42.54
28.18
14.38
1.65
-9.60
-19.09
-26.68
-32.36
-36.19
-38.39
-39.23
-39.03
-38.12
-36.77
-35.19
-33.49
-31.71
-29.78
-27.62
-25.14
-22.26
-18.91
-15.10
-10.86
-6.31
-1.56
3.29
8.11
12.80
17.32
21.63
25.75
29.71
33.52
37.17
40.63
43.80
46.56
48.79
50.32
51.04
50.91
49.88
48.02
45.42
42.23
38.62
34.80
30.92
27.12
23.54
20.26
17.32
14.77
12.58
10.74
9.23
7.96
6.90
5.98
5.10
4.23
3.31
2.32
1.25
0.15
-0.98
-2.09
-3.12
-4.04
-4.85
-5.54
-6.15
-6.72
-7.31
-7.98
-8.75
-9.63
-10.64
-11.73
-12.84
-13.94
-14.92
-15.76
-16.40
-16.79
-16.93
-16.84
-16.54
-16.07
-15.51
-14.91
-14.34
-13.87
-13.55
-13.40
-13.44
-13.65
-13.98
-14.34
-14.65
-14.82
-14.74
-14.38
-13.68
-12.69
-11.43
-10.00
-8.48
-6.97
-5.56
-4.30
-3.24
-2.38
-1.68
-1.13
-0.67
-0.26
0.15
0.60
1.11
1.69
2.33
3.02
3.72
4.42
5.07
5.63
6.06
6.32
6.42
6.39
6.28
6.14
6.02
5.93
5.89
5.89
5.91
5.90
5.82
5.61
5.17
4.47
3.49
2.28
0.92
-0.47
-1.77
-2.88
-3.71
-4.21
-4.35
-4.14
-3.65
-2.98
-2.24
-1.53
-0.94
-0.52
-0.28
-0.21
-0.30
-0.57
-0.97
-1.51
-2.15
-2.84
-3.53
-4.15
-4.67
-5.05
-5.29
-5.36
-5.28
-5.06
-4.74
-4.35
-3.94
-3.51
-3.08
-2.62
-2.12
-1.54
-0.87
-0.09
0.80
1.76
2.75
3.71
4.59
5.34
5.91
6.28
6.44
6.41
6.22
5.93
5.61
5.30
5.05
4.90
4.84
4.89
4.98
5.04
5.02
4.82
4.43
3.83
3.07
2.19
1.27
0.34
-0.53
-1.30
-1.91
-2.33
-2.55
-2.58
-2.47
-2.28
-2.09
-1.94
-1.91
-2.03
-2.28
-2.66
-3.15
-3.71
-4.29
-4.83
-5.31
-5.65
-5.86
-5.91
-5.80
-5.57
-5.23
-4.83
-4.41
-4.00
-3.63
-3.35
-3.15
-3.05
-3.03
-3.03
-3.03
-2.96
-2.77
-2.43
-1.93
-1.29
-0.54
0.25
1.03
1.74
2.30
2.72
2.97
3.10
3.14
3.15
3.16
3.22
3.34
3.51
3.73
3.97
4.18
4.33
4.38
4.30
4.07
3.69
3.17
2.53
1.82
1.08
0.36
-0.29
-0.82
-1.19
-1.38
-1.41
-1.28
-1.03
-0.74
-0.43
-0.17
-0.01
0.04
-0.05
-0.28
-0.63
-1.09
-1.63
-2.22
-2.82
-3.40
-3.92
-4.34
-4.66
-4.82
-4.83
-4.70
-4.43
-4.05
-3.61
-3.12
-2.61
-2.13
-1.67
-1.26
-0.88
-0.53
-0.23
0.05
0.27
0.45
0.56
0.63
0.65
0.64
0.65
0.68
0.79
0.96
1.20
1.49
1.81
2.11
2.36
2.53
2.59
2.54
2.41
2.21
1.98
1.76
1.58
1.46
1.39
1.37
1.38
1.38
1.35
1.24
1.05
0.76
0.37
-0.14
-0.74
-1.39
-2.05
-2.72
-3.37
-3.96
-4.46
-4.88
-5.22
-5.47
-5.64
-5.74
-5.77
-5.74
-5.63
-5.45
-5.20
-4.86
-4.45
-4.01
-3.57
-3.14
-2.77
-2.46
-2.25
-2.11
-2.01
-1.92
-1.79
-1.59
-1.26
-0.79
-0.20
0.48
1.21
1.97
2.67
3.27
3.74
4.06
4.22
4.23
4.10
3.87
3.57
3.23
2.90
2.59
2.32
2.10
1.93
1.78
1.63
1.44
1.19
0.85
0.41
-0.14
-0.79
-1.50
-2.23
-2.95
-3.62
-4.20
-4.68
-5.05
-5.31
-5.47
-5.56
-5.56
-5.51
-5.42
-5.28
-5.12
-4.92
-4.69
-4.45
-4.20
-3.94
-3.68
-3.40
-3.11
-2.77
-2.35
-1.87
-1.27
-0.57
0.23
1.11
2.03
2.94
3.78
4.51
5.06
5.41
5.53
5.47
5.21
4.83
4.39
3.95
3.60
3.37
3.29
3.39
3.63
3.98
4.35
4.69
4.93
5.01
4.92
4.64
4.18
3.58
2.88
2.12
1.31
0.45
-0.44
-1.39
-2.44
-3.59
-4.85
-6.16
-7.52
-8.82
-10.02
-11.01
-11.74
-12.17
-12.29
-12.15
-11.79
-11.31
-10.80
-10.34
-9.98
-9.78
-9.72
-9.77
-9.88
-9.97
-9.98
-9.85
-9.55
-9.07
-8.43
-7.67
-6.81
-5.93
-5.03
-4.16
-3.32
-2.51
-1.75
-1.01
-0.32
0.33
0.91
1.44
1.88
2.24
2.54
2.78
3.01
3.24
3.49
3.76
4.05
4.33
4.59
4.81
4.93
4.97
4.90
4.70
4.39
3.97
3.46
2.88
2.29
1.75
1.34
1.17
1.32
1.88
2.91
4.41
6.34
8.62
11.13
13.74
16.34
18.81
21.10
23.18
25.04
26.72
28.27
29.73
31.20
32.76
34.46
36.33
38.36
40.47
42.58
44.55
46.22
47.46
48.14
48.20
47.65
46.61
45.25
43.81
42.52
41.57
41.06
40.98
41.23
41.56
41.73
41.41
40.33
38.29
35.16
30.94
25.76
19.84
13.47
6.99
0.72
-5.08
-10.21
-14.56
-18.14
-20.98
-23.16
-24.80
-26.00
-26.89
-27.57
-28.15
-28.71
-29.34
-30.11
-31.03
-32.15
-33.43
-34.85
-36.34
-37.84
-39.26
-40.53
-41.55
-42.29
-42.71
-42.83
-42.67
-42.29
-41.75
-41.14
-40.50
-39.87
-39.26
-38.66
-38.08
-37.47
-36.79
-36.01
-35.12
-34.11
-33.00
-31.81
-30.58
-29.35
-28.17
-27.07
-26.03
-25.08
-24.18
-23.28
-22.37
-21.41
-20.39
-19.30
-18.17
-17.00
-15.82
-14.66
-13.52
-12.41
-11.29
-10.16
-8.99
-7.77
-6.51
-5.19
-3.87
-2.57
-1.33
-0.16
0.92
1.93
2.89
3.81
4.73
5.66
6.61
7.58
8.53
9.44
10.28
11.02
11.65
12.18
12.63
13.02
13.38
13.75
14.13
14.51
14.87
15.18
15.38
15.42
15.24
14.82
14.14
13.20
12.03
10.66
9.13
7.52
5.84
4.15
2.47
0.83
-0.76
-2.31
-3.81
-5.22
-6.54
-7.72
-8.71
-9.47
-9.94
-10.08
-9.88
-9.33
-8.46
-7.31
-5.93
-4.40
-2.82
-1.25
0.24
1.59
2.76
3.72
4.48
5.03
5.41
5.63
5.74
5.75
5.70
5.58
5.37
5.08
4.69
4.20
3.60
2.92
2.21
1.49
0.80
0.18
-0.35
-0.77
-1.08
-1.30
-1.42
-1.47
-1.45
-1.37
-1.23
-1.00
-0.69
-0.34
0.02
0.36
0.64
0.87
1.04
1.14
1.20
1.23
1.24
1.24
1.26
1.35
1.52
1.78
2.09
2.43
2.76
3.04
3.24
3.36
3.39
3.35
3.26
3.12
2.96
2.79
2.62
2.44
2.26
2.04
1.80
1.50
1.14
0.71
0.24
-0.22
-0.63
-0.96
-1.17
-1.20
-1.06
-0.78
-0.36
0.12
0.63
1.12
1.53
1.81
1.96
1.97
1.82
1.57
1.21
0.79
0.34
-0.11
-0.55
-0.94
-1.25
-1.52
-1.69
-1.80
-1.83
-1.82
-1.78
-1.74
-1.72
-1.74
-1.82
-1.96
-2.14
-2.36
-2.56
-2.73
-2.81
-2.78
-2.60
-2.26
-1.76
-1.13
-0.42
0.34
1.06
1.69
2.16
2.42
2.45
2.25
1.84
1.26
0.60
-0.10
-0.75
-1.32
-1.76
-2.06
-2.22
-2.26
-2.22
-2.12
-1.99
-1.87
-1.75
-1.64
-1.55
-1.45
-1.36
-1.26
-1.17
-1.07
-0.98
-0.91
-0.86
-0.85
-0.89
-1.00
-1.18
-1.44
-1.79
-2.22
-2.72
-3.27
-3.84
-4.41
-4.94
-5.40
-5.75
-5.98
-6.07
-6.01
-5.78
-5.41
-4.89
-4.25
-3.52
-2.74
-1.96
-1.21
-0.50
0.12
0.63
1.05
1.36
1.59
1.74
1.83
1.85
1.81
1.70
1.54
1.31
1.03
0.72
0.40
0.11
-0.11
-0.24
-0.27
-0.19
-0.02
0.23
0.50
0.75
0.95
1.06
1.08
0.99
0.83
0.61
0.38
0.19
0.06
0.02
0.10
0.26
0.51
0.81
1.14
1.45
1.72
1.93
2.07
2.14
2.13
2.07
1.98
1.85
1.70
1.55
1.38
1.23
1.05
0.87
0.69
0.50
0.29
0.06
-0.17
-0.40
-0.63
-0.84
-1.04
-1.19
-1.31
-1.40
-1.45
-1.47
-1.50
-1.53
-1.61
-1.75
-1.95
-2.25
-2.59
-2.95
-3.29
-3.54
-3.64
-3.55
-3.22
-2.65
-1.89
-0.97
0.03
1.00
1.87
2.57
3.03
3.27
3.26
3.07
2.73
2.32
1.88
1.45
1.08
0.74
0.45
0.20
-0.03
-0.26
-0.47
-0.67
-0.86
-1.03
-1.19
-1.34
-1.49
-1.66
-1.85
-2.09
-2.34
-2.58
-2.78
-2.89
-2.86
-2.66
-2.24
-1.62
-0.82
0.11
1.09
2.03
2.83
3.45
3.81
3.89
3.73
3.36
2.84
2.28
1.74
1.30
1.00
0.88
0.91
1.08
1.33
1.59
1.85
2.04
2.15
2.17
2.11
2.01
1.88
1.75
1.64
1.54
1.43
1.30
1.09
0.80
0.40
-0.11
-0.71
-1.35
-1.97
-2.53
-2.95
-3.17
-3.18
-2.94
-2.50
-1.88
-1.16
-0.39
0.34
0.98
1.48
1.78
1.90
1.83
1.60
1.25
0.86
0.46
0.11
-0.13
-0.24
-0.20
-0.02
0.28
0.65
1.05
1.40
1.65
1.78
1.74
1.57
1.27
0.88
0.45
0.05
-0.30
-0.57
-0.75
-0.86
-0.89
-0.88
-0.85
-0.79
-0.71
-0.60
-0.45
-0.24
0.00
0.29
0.60
0.89
1.15
1.36
1.48
1.51
1.49
1.41
1.31
1.23
1.15
1.09
1.04
0.97
0.86
0.71
0.49
0.22
-0.11
-0.45
-0.80
-1.13
-1.45
-1.76
-2.04
-2.33
-2.61
-2.89
-3.18
-3.46
-3.72
-3.98
-4.24
-4.48
-4.73
-4.98
-5.21
-5.44
-5.64
-5.78
-5.83
-5.76
-5.54
-5.19
-4.69
-4.08
-3.39
-2.61
-1.75
-0.82
0.11
1.01
1.81
2.48
2.98
3.29
3.43
3.42
3.31
3.12
2.91
2.74
2.66
2.72
2.93
3.28
3.73
4.23
4.69
5.03
5.21
5.18
4.94
4.50
3.88
3.14
2.34
1.53
0.75
0.07
-0.53
-0.98
-1.29
-1.49
-1.58
-1.58
-1.51
-1.39
-1.25
-1.11
-0.96
-0.85
-0.76
-0.67
-0.60
-0.53
-0.44
-0.33
-0.23
-0.12
-0.02
0.05
0.07
0.02
-0.08
-0.24
-0.41
-0.61
-0.82
-1.02
-1.23
-1.44
-1.67
-1.93
-2.23
-2.58
-2.96
-3.34
-3.69
-4.00
-4.20
-4.30
-4.25
-4.07
-3.76
-3.32
-2.79
-2.19
-1.54
-0.86
-0.19
0.44
1.02
1.53
1.99
2.38
2.74
3.05
3.39
3.75
4.14
4.58
5.04
5.48
5.87
6.16
6.29
6.25
6.02
5.61
5.03
4.34
3.57
2.77
1.98
1.22
0.51
-0.13
-0.71
-1.23
-1.70
-2.11
-2.42
-2.66
-2.78
-2.79
-2.69
-2.49
-2.18
-1.83
-1.44
-1.07
-0.74
-0.50
-0.35
-0.31
-0.36
-0.47
-0.63
-0.81
-0.96
-1.07
-1.13
-1.13
-1.08
-0.97
-0.83
-0.68
-0.55
-0.44
-0.38
-0.37
-0.39
-0.47
-0.56
-0.67
-0.77
-0.82
-0.81
-0.72
-0.54
-0.27
0.08
0.49
0.92
1.35
1.74
2.05
2.26
2.35
2.33
2.19
1.95
1.63
1.25
0.84
0.43
0.04
-0.31
-0.60
-0.82
-0.97
-1.06
-1.09
-1.09
-1.06
-1.01
-0.96
-0.92
-0.89
-0.87
-0.85
-0.83
-0.79
-0.73
-0.62
-0.48
-0.29
-0.09
0.10
0.28
0.37
0.37
0.22
-0.10
-0.59
-1.25
-2.03
-2.88
-3.70
-4.43
-4.98
-5.27
-5.28
-5.00
-4.45
-3.70
-2.83
-1.94
-1.11
-0.43
0.05
0.33
0.40
0.32
0.12
-0.13
-0.39
-0.62
-0.78
-0.88
-0.90
-0.86
-0.78
-0.65
-0.51
-0.35
-0.18
-0.01
0.16
0.33
0.49
0.65
0.81
0.96
1.12
1.27
1.44
1.61
1.77
1.92
2.05
2.15
2.23
2.28
2.31
2.32
2.32
2.32
2.33
2.31
2.27
2.19
2.06
1.85
1.58
1.26
0.88
0.51
0.14
-0.16
-0.37
-0.46
-0.42
-0.22
0.10
0.52
1.02
1.54
2.04
2.47
2.81
3.02
3.09
3.03
2.85
2.57
2.22
1.84
1.45
1.06
0.68
0.33
-0.02
-0.38
-0.73
-1.13
-1.55
-1.99
-2.44
-2.89
-3.30
-3.67
-3.98
-4.20
-4.33
-4.36
-4.29
-4.14
-3.89
-3.58
-3.20
-2.77
-2.31
-1.85
-1.40
-1.00
-0.66
-0.40
-0.25
-0.19
-0.21
-0.30
-0.42
-0.55
-0.65
-0.67
-0.60
-0.40
-0.07
0.39
0.98
1.67
2.41
3.20
3.98
4.71
5.36
5.89
6.27
6.50
6.56
6.43
6.12
5.65
5.04
4.31
3.51
2.68
1.87
1.14
0.53
0.09
-0.17
-0.27
-0.21
-0.04
0.18
0.39
0.52
0.53
0.39
0.07
-0.43
-1.06
-1.77
-2.52
-3.23
-3.84
-4.29
-4.52
-4.54
-4.35
-3.95
-3.41
-2.77
-2.10
-1.45
-0.85
-0.29
0.22
0.69
1.13
1.57
2.01
2.40
2.70
2.86
2.84
2.60
2.12
1.46
0.69
-0.04
-0.58
-0.75
-0.37
0.68
2.50
5.06
8.28
11.97
15.90
19.78
23.28
26.09
27.88
28.42
27.50
24.99
20.80
14.95
7.48
-1.50
-11.84
-23.30
-35.52
-48.11
-60.61
-72.56
-83.51
-93.02
-100.78
-106.51
-110.10
-111.53
-110.93
-108.55
-104.71
-99.75
-93.92
-87.47
-80.55
-73.22
-65.45
-57.21
-48.46
-39.17
-29.36
-19.06
-8.39
2.52
13.52
24.41
35.03
45.20
54.78
63.59
71.51
78.37
84.02
88.32
91.16
92.46
92.21
90.50
87.41
83.18
78.07
72.37
66.39
60.43
54.77
49.61
45.12
41.34
38.31
35.96
34.25
33.07
32.28
31.80
31.52
31.38
31.33
31.36
31.48
31.72
32.13
32.69
33.41
34.23
35.06
35.79
36.26
36.28
35.68
34.35
32.22
29.30
25.75
21.82
17.88
14.41
11.92
10.89
11.78
14.86
20.24
27.79
37.17
47.80
58.96
69.78
79.35
86.84
91.54
92.95
90.81
85.11
76.14
64.39
50.55
35.40
19.79
4.49
-9.76
-22.42
-33.15
-41.80
-48.42
-53.21
-56.51
-58.71
-60.23
-61.45
-62.71
-64.22
-66.12
-68.41
-70.95
-73.57
-75.99
-77.94
-79.15
-79.36
-78.40
-76.19
-72.74
-68.18
-62.70
-56.59
-50.21
-43.93
-38.12
-33.11
-29.16
-26.50
-25.28
-25.53
-27.21
-30.18
-34.19
-38.96
-44.16
-49.47
-54.60
-59.30
-63.33
-66.46
-68.51
-69.31
-68.74
-66.76
-63.38
-58.60
-52.50
-45.17
-36.78
-27.53
-17.62
-7.36
2.86
12.60
21.40
28.81
34.37
37.71
38.62
37.14
33.51
28.16
21.67
14.68
7.84
1.74
-3.21
-6.70
-8.55
-8.76
-7.43
-4.78
-1.12
3.25
8.04
12.95
17.71
22.03
25.63
28.34
30.01
30.57
30.07
28.69
26.73
24.48
22.25
20.30
18.90
18.17
18.10
18.59
19.46
20.55
21.70
22.82
23.85
24.83
25.83
26.98
28.37
30.12
32.24
34.64
37.18
39.61
41.62
42.88
43.09
42.00
39.47
35.48
30.16
23.83
16.88
9.81
3.06
-2.93
-7.78
-11.22
-13.06
-13.26
-11.81
-8.84
-4.53
0.87
7.04
13.71
20.59
27.42
33.95
39.99
45.32
49.81
53.39
56.01
57.67
58.44
58.35
57.44
55.75
53.28
50.08
46.23
41.75
36.65
30.91
24.46
17.27
9.36
0.85
-8.07
-17.07
-25.85
-34.08
-41.52
-48.00
-53.45
-57.96
-61.62
-64.54
-66.75
-68.19
-68.75
-68.32
-66.84
-64.38
-61.09
-57.22
-53.08
-48.97
-45.20
-41.91
-39.13
-36.73
-34.47
-32.18
-29.81
-27.56
-25.71
-24.48
-23.79
-23.37
-22.82
-21.91
-20.67
-19.46
-18.67
-18.53
-19.06
-20.13
-21.58
-23.37
-25.47
-27.85
-30.44
-33.14
-35.96
-39.04
-42.46
-46.17
-49.85
-52.99
-55.13
-56.11
-56.16
-55.72
-55.25
-54.97
-54.75
-54.18
-52.64
-49.46
-44.02
-35.88
-25.05
-12.04
2.09
15.93
28.16
38.00
45.24
50.09
52.72
52.82
49.71
42.58
31.24
16.55
0.35
-15.08
-27.67
-36.10
-39.92
-39.31
-34.78
-27.04
-16.97
-5.73
5.31
14.86
22.02
26.55
28.85
29.68
29.84
29.89
30.02
30.15
30.12
29.72
28.79
27.33
25.49
23.57
21.91
20.76
20.20
20.08
20.13
20.11
19.90
19.53
19.13
18.80
18.68
18.95
19.89
21.86
25.09
29.64
35.23
41.38
47.56
53.38
58.60
63.16
67.02
70.13
72.50
74.17
75.24
75.79
75.82
75.16
73.40
70.02
64.54
56.80
47.09
36.16
24.97
14.36
4.82
-3.63
-11.17
-18.01
-24.20
-29.59
-34.10
-37.70
-40.40
-42.00
-41.97
-39.60
-34.36
-26.38
-16.57
-6.47
2.28
8.42
11.35
11.14
8.36
3.74
-1.90
-7.70
-12.85
-16.59
-18.48
-18.45
-16.75
-13.78
-9.98
-5.65
-1.05
3.46
7.34
10.08
11.50
12.01
12.63
14.53
18.60
24.90
32.75
40.96
48.40
54.22
57.95
59.40
58.51
55.56
51.10
45.93
40.79
35.96
31.00
24.95
16.68
5.46
-8.64
-24.83
-41.92
-58.74
-74.37
-88.27
-100.13
-109.64
-116.40
-120.00
-120.20
-117.17
-111.63
-104.76
-97.81
-91.77
-86.91
-82.78
-78.47
-73.14
-66.31
-58.15
-49.29
-40.53
-32.46
-25.25
-18.77
-12.80
-7.27
-2.31
1.84
5.03
7.27
8.79
9.91
10.89
11.87
12.91
14.01
15.12
16.21
17.20
17.94
18.23
17.95
17.10
15.84
14.54
13.61
13.44
14.17
15.49
16.72
17.02
15.76
12.83
8.77
4.46
0.76
-1.92
-3.77
-5.37
-7.26
-9.71
-12.65
-15.76
-18.83
-21.80
-24.73
-27.65
-30.37
-32.58
-33.90
-34.07
-32.96
-30.67
-27.38
-23.22
-18.18
-12.13
-4.92
3.46
12.69
22.16
31.00
38.35
43.60
46.49
47.04
45.49
42.22
37.57
32.00
25.87
19.55
13.26
7.10
1.18
-4.31
-8.97
-12.41
-14.39
-15.12
-15.14
-15.18
-15.86
-17.43
-19.78
-22.60
-25.50
-28.18
-30.37
-31.82
-32.28
-31.54
-29.43
-25.86
-20.88
-14.67
-7.52
0.15
7.84
15.11
21.64
27.31
32.15
36.18
39.33
41.48
42.57
42.73
42.28
41.63
41.14
40.87
40.56
39.81
38.27
35.81
32.64
29.06
25.39
21.83
18.42
15.16
12.05
9.17
6.62
4.44
2.55
0.88
-0.64
-1.95
-2.88
-3.20
-2.74
-1.55
0.14
2.00
3.63
4.75
5.08
4.43
2.60
-0.60
-5.26
-11.27
-18.20
-25.39
-32.04
-37.47
-41.32
-43.52
-44.32
-44.00
-42.68
-40.28
-36.59
-31.55
-25.38
-18.63
-12.04
-6.18
-1.31
2.71
6.18
9.33
12.14
14.51
16.39
18.02
19.82
22.22
25.36
29.00
32.54
35.33
36.87
36.96
35.72
33.42
30.45
27.20
23.96
20.97
18.28
15.81
13.35
10.67
7.63
4.21
0.51
-3.37
-7.25
-10.99
-14.52
-17.78
-20.87
-23.83
-26.63
-28.90
-29.96
-29.05
-25.62
-19.73
-12.05
-3.68
4.40
11.71
18.38
24.90
31.70
38.86
46.00
52.52
57.89
61.92
64.73
66.62
67.82
68.41
68.40
67.83
66.81
65.52
64.11
62.62
60.97
59.02
56.68
54.06
51.47
49.29
47.93
47.66
48.57
50.58
53.50
57.11
61.15
65.35
69.48
73.35
76.77
79.62
81.78
82.92
82.56
80.16
75.41
68.59
60.57
52.45
45.10
38.78
33.01
27.05
20.34
12.76
4.50
-4.48
-14.59
-26.40
-40.20
-55.42
-70.66
-84.13
-94.44
-101.14
-104.76
-106.37
-106.88
-106.85
-106.29
-104.96
-102.66
-99.46
-95.54
-91.25
-86.87
-82.50
-78.12
-73.56
-68.55
-62.87
-56.51
-49.66
-42.63
-35.81
-29.47
-23.69
-18.39
-13.50
-9.03
-5.09
-1.83
0.73
2.69
4.25
5.57
6.64
7.27
7.17
6.19
4.36
1.94
-0.75
-3.50
-6.25
-8.98
-11.69
-14.28
-16.58
-18.41
-19.68
-20.45
-20.89
-21.20
-21.49
-21.73
-21.80
-21.63
-21.17
-20.57
-20.01
-19.64
-19.53
-19.59
-19.64
-19.49
-18.96
-17.93
-16.34
-14.18
-11.47
-8.36
-5.05
-1.87
0.92
3.22
5.05
6.56
7.91
9.18
10.34
11.30
11.93
12.14
11.97
11.47
10.75
9.89
8.96
7.97
7.01
6.11
5.29
4.63
4.12
3.77
3.50
3.24
2.86
2.31
1.62
0.92
0.37
0.07
0.01
0.02
-0.09
-0.51
-1.24
-2.17
-3.11
-3.88
-4.47
-4.95
-5.50
-6.26
-7.26
-8.40
-9.54
-10.52
-11.26
-11.75
-11.97
-11.85
-11.26
-10.09
-8.29
-6.00
-3.51
-1.15
0.78
2.22
3.25
4.12
5.06
6.11
7.14
7.85
7.99
7.41
6.29
5.04
4.12
3.88
4.34
5.23
6.07
6.51
6.39
5.86
5.15
4.51
3.99
3.50
2.87
1.98
0.90
-0.23
-1.16
-1.84
-2.31
-2.74
-3.32
-4.10
-5.00
-5.86
-6.52
-6.89
-7.03
-7.07
-7.11
-7.20
-7.32
-7.45
-7.63
-7.90
-8.20
-8.38
-8.19
-7.44
-6.08
-4.26
-2.26
-0.40
1.08
2.07
2.60
2.81
2.91
3.10
3.53
4.21
5.00
5.70
6.12
6.16
5.86
5.34
4.68
3.95
3.08
2.10
1.09
0.27
-0.14
-0.04
0.49
1.15
1.52
1.25
0.30
-1.10
-2.48
-3.36
-3.48
-2.94
-2.13
-1.57
-1.65
-2.43
-3.72
-5.15
-6.38
-7.23
-7.69
-7.80
-7.61
-7.12
-6.34
-5.30
-4.13
-2.98
-2.05
-1.39
-0.90
-0.36
0.46
1.62
2.91
3.93
4.34
4.00
3.20
2.52
2.49
3.33
4.84
6.48
7.78
8.47
8.58
8.26
7.60
6.49
4.87
2.84
0.77
-0.84
-1.69
-1.82
-1.53
-1.29
-1.37
-1.80
-2.43
-3.12
-3.79
-4.44
-5.06
-5.52
-5.60
-5.16
-4.20
-2.90
-1.61
-0.57
0.22
0.98
2.05
3.64
5.70
7.83
9.53
10.44
10.53
10.11
9.69
9.64
10.06
10.70
11.18
11.11
10.35
8.98
7.25
5.40
3.46
1.30
-1.42
-4.94
-9.35
-14.52
-20.17
-25.98
-31.69
-37.17
-42.33
-47.01
-50.97
-53.95
-55.83
-56.64
-56.56
-55.75
-54.20
-51.72
-48.09
-43.19
-37.20
-30.64
-24.12
-18.11
-12.77
-7.82
-2.84
2.58
8.52
14.77
20.99
26.91
32.43
37.55
42.27
46.42
49.64
51.55
51.85
50.51
47.71
43.83
39.38
34.88
30.69
26.97
23.57
20.20
16.53
12.44
8.02
3.58
-0.52
-4.03
-6.85
-9.05
-10.79
-12.23
-13.53
-14.80
-16.14
-17.58
-18.97
-20.11
-20.76
-20.70
-19.88
-18.42
-16.46
-14.17
-11.69
-9.11
-6.50
-3.98
-1.64
0.48
2.37
4.11
5.84
7.68
9.67
11.75
13.81
15.79
17.68
19.55
21.50
23.56
25.67
27.70
29.41
30.57
30.95
30.42
28.98
26.84
24.31
21.73
19.35
17.19
15.09
12.87
10.37
7.72
5.21
3.19
1.82
0.99
0.39
-0.38
-1.57
-3.17
-4.86
-6.16
-6.61
-6.01
-4.56
-2.76
-1.23
-0.41
-0.30
-0.56
-0.65
-0.17
0.94
2.45
4.00
5.34
6.42
7.36
8.23
9.06
9.74
10.18
10.33
10.27
10.07
9.86
9.74
9.75
9.84
9.91
9.83
9.42
8.60
7.35
5.76
4.04
2.31
0.70
-0.83
-2.28
-3.71
-5.04
-6.26
-7.47
-8.78
-10.34
-12.11
-13.83
-15.08
-15.51
-15.00
-13.78
-12.36
-11.22
-10.58
-10.29
-9.97
-9.18
-7.74
-5.73
-3.51
-1.47
0.08
1.04
1.46
1.50
1.33
1.11
1.02
1.23
1.88
3.04
4.60
6.39
8.18
9.76
11.08
12.19
13.10
13.79
14.17
14.14
13.69
12.91
12.02
11.14
10.27
9.36
8.27
7.04
5.69
4.35
3.00
1.47
-0.43
-2.84
-5.75
-8.91
-11.96
-14.54
-16.45
-17.69
-18.40
-18.82
-19.18
-19.63
-20.24
-21.02
-21.94
-22.99
-24.18
-25.50
-26.91
-28.29
-29.47
-30.33
-30.79
-30.85
-30.50
-29.57
-27.75
-24.69
-20.29
-14.74
-8.57
-2.51
2.85
7.19
10.49
12.86
14.40
15.00
14.57
13.12
10.89
8.35
6.02
4.27
3.26
2.84
2.70
2.47
1.86
0.74
-0.76
-2.37
-3.79
-4.77
-5.24
-5.24
-4.88
-4.23
-3.40
-2.46
-1.55
-0.83
-0.43
-0.34
-0.39
-0.39
-0.29
-0.28
-0.63
-1.57
-3.15
-5.17
-7.42
-9.67
-11.87
-14.03
-16.16
-18.18
-19.93
-21.27
-22.10
-22.47
-22.47
-22.19
-21.67
-20.92
-19.83
-18.33
-16.41
-14.04
-11.36
-8.55
-5.88
-3.62
-1.93
-0.87
-0.40
-0.44
-0.82
-1.40
-2.02
-2.51
-2.69
-2.45
-1.73
-0.59
0.84
2.44
4.11
5.85
7.67
9.56
11.46
13.20
14.52
15.13
14.83
13.52
11.28
8.35
4.98
1.53
-1.79
-4.88
-7.81
-10.82
-14.20
-18.06
-22.16
-25.86
-28.20
-28.18
-25.08
-18.63
-9.04
3.01
16.51
30.18
42.57
52.25
58.04
59.28
55.80
47.84
35.66
19.40
-1.00
-25.33
-52.64
-80.95
-107.38
-128.74
-142.30
-146.47
-141.08
-127.29
-107.15
-82.93
-56.79
-30.48
-5.45
17.18
36.58
52.27
64.20
72.78
78.74
82.93
86.09
88.60
90.44
91.39
91.17
89.73
87.17
83.74
79.76
75.50
71.16
66.88
62.86
59.38
56.82
55.45
55.36
56.57
59.06
62.85
67.90
74.21
81.68
90.21
99.58
109.48
119.58
129.39
138.31
145.64
150.62
152.61
151.15
146.07
137.44
125.62
111.09
94.49
76.49
57.73
38.76
20.02
1.88
-15.43
-31.74
-47.04
-61.38
-74.79
-87.29
-98.89
-109.51
-119.02
-127.26
-134.01
-139.10
-142.34
-143.56
-142.69
-139.77
-134.91
-128.34
-120.35
-111.29
-101.56
-91.50
-81.42
-71.57
-62.17
-53.36
-45.18
-37.71
-30.92
-24.82
-19.37
-14.54
-10.33
-6.73
-3.75
-1.38
0.37
1.53
2.12
2.23
1.94
1.37
0.64
-0.11
-0.77
-1.24
-1.44
-1.32
-0.86
-0.09
0.92
2.09
3.32
4.51
5.57
6.43
7.05
7.42
7.56
7.46
7.18
6.77
6.29
5.79
5.30
4.83
4.38
3.94
3.53
3.13
2.77
2.42
2.06
1.67
1.22
0.70
0.09
-0.60
-1.38
-2.23
-3.16
-4.11
-5.02
-5.82
-6.48
-6.96
-7.31
-7.57
-7.78
-8.00
-8.27
-8.58
-8.91
-9.26
-9.57
-9.76
-9.75
-9.45
-8.84
-7.96
-6.87
-5.69
-4.49
-3.33
-2.20
-1.10
0.04
1.19
2.30
3.26
3.94
4.30
4.38
4.27
4.11
3.96
3.80
3.49
2.91
1.90
0.50
-1.15
-2.75
-3.96
-4.46
-4.03
-2.60
-0.30
2.59
5.69
8.62
11.00
12.56
13.20
12.98
12.15
11.05
9.97
9.07
8.20
7.08
5.40
3.15
0.67
-1.47
-2.71
-2.87
-2.18
-1.18
-0.38
-0.00
0.07
0.12
0.35
0.76
1.08
1.09
0.70
0.09
-0.39
-0.37
0.30
1.50
2.96
4.28
5.17
5.48
5.25
4.66
3.93
3.25
2.76
2.53
2.50
2.49
2.28
1.72
0.84
-0.19
-1.07
-1.61
-1.80
-1.87
-2.17
-2.96
-4.30
-5.96
-7.67
-9.21
-10.53
-11.73
-12.90
-13.97
-14.76
-15.03
-14.66
-13.73
-12.51
-11.37
-10.47
-9.81
-9.15
-8.19
-6.82
-5.13
-3.40
-1.92
-0.85
-0.15
0.28
0.55
0.60
0.37
-0.13
-0.80
-1.43
-1.92
-2.23
-2.51
-2.95
-3.72
-4.90
-6.50
-8.46
-10.70
-13.05
-15.28
-17.18
-18.57
-19.46
-20.12
-21.01
-22.63
-25.36
-29.32
-34.23
-39.46
-44.18
-47.48
-48.69
-47.50
-44.07
-38.82
-32.38
-25.18
-17.54
-9.63
-1.54
6.46
14.08
21.04
27.20
32.54
37.13
40.96
43.90
45.81
46.61
46.40
45.49
44.33
43.31
42.79
42.90
43.63
44.76
45.90
46.56
46.33
45.00
42.70
39.85
36.89
34.17
31.73
29.36
26.77
23.75
20.17
16.13
11.82
7.41
3.08
-1.03
-4.85
-8.34
-11.45
-14.21
-16.62
-18.57
-20.06
-21.10
-21.79
-22.33
-22.83
-23.19
-23.22
-22.65
-21.29
-19.17
-16.48
-13.50
-10.42
-7.33
-4.25
-1.19
1.82
4.76
7.56
10.14
12.32
13.84
14.44
14.12
13.12
11.97
11.19
11.00
11.31
11.66
11.60
10.96
9.86
8.65
7.66
7.00
6.47
5.82
4.81
3.37
1.60
-0.28
-2.13
-3.85
-5.39
-6.72
-7.74
-8.41
-8.78
-9.07
-9.51
-10.33
-11.55
-12.96
-14.27
-15.19
-15.63
-15.66
-15.42
-15.02
-14.46
-13.66
-12.54
-11.03
-9.17
-7.06
-4.83
-2.59
-0.46
1.50
3.26
4.84
6.28
7.59
8.74
9.61
10.10
10.12
9.67
8.93
8.07
7.25
6.54
5.93
5.36
4.74
4.05
3.31
2.56
1.85
1.19
0.56
0.04
-0.37
-0.63
-0.69
-0.64
-0.55
-0.49
-0.51
-0.64
-0.91
-1.46
-2.36
-3.69
-5.36
-7.16
-8.84
-10.14
-10.92
-11.10
-10.69
-9.70
-8.19
-6.29
-4.19
-2.19
-0.55
0.61
1.34
1.82
2.24
2.71
3.18
3.56
3.72
3.65
3.39
3.07
2.78
2.57
2.43
2.36
2.40
2.56
2.86
3.20
3.44
3.36
2.86
1.96
0.79
-0.37
-1.29
-1.76
-1.74
-1.39
-0.96
-0.67
-0.69
-1.05
-1.63
-2.28
-2.91
-3.42
-3.80
-3.99
-3.93
-3.58
-2.98
-2.24
-1.49
-0.86
-0.35
0.11
0.60
1.27
2.17
3.35
4.79
6.36
7.89
9.14
9.95
10.21
10.01
9.52
8.99
8.62
8.53
8.73
9.11
9.48
9.56
9.17
8.28
7.11
5.94
5.07
4.59
4.37
4.10
3.49
2.42
1.04
-0.35
-1.43
-2.13
-2.52
-2.84
-3.33
-3.99
-4.70
-5.31
-5.75
-6.08
-6.54
-7.30
-8.48
-10.01
-11.61
-12.98
-13.84
-14.05
-13.59
-12.56
-11.08
-9.38
-7.65
-6.08
-4.80
-3.79
-2.94
-2.01
-0.87
0.48
1.89
3.19
4.22
4.95
5.41
5.70
5.84
5.79
5.55
5.20
4.89
4.78
4.94
5.34
5.86
6.36
6.73
6.85
6.64
6.05
5.14
4.11
3.29
2.90
3.01
3.44
3.93
4.18
4.04
3.55
2.85
2.08
1.33
0.59
-0.19
-1.07
-2.14
-3.46
-4.97
-6.49
-7.77
-8.57
-8.75
-8.38
-7.71
-7.01
-6.56
-6.43
-6.56
-6.82
-7.09
-7.27
-7.30
-7.13
-6.74
-6.05
-5.05
-3.77
-2.31
-0.79
0.64
1.87
2.91
3.82
4.75
5.75
6.81
7.77
8.52
9.00
9.24
9.41
9.66
10.04
10.52
10.98
11.24
11.25
10.95
10.38
9.67
8.97
8.44
8.16
8.08
8.06
7.89
7.43
6.68
5.78
4.91
4.20
3.64
3.15
2.64
2.09
1.57
1.17
0.87
0.50
-0.21
-1.41
-3.05
-4.85
-6.43
-7.54
-8.14
-8.45
-8.77
-9.30
-10.03
-10.84
-11.58
-12.20
-12.81
-13.49
-14.20
-14.75
-14.83
-14.18
-12.73
-10.63
-8.25
-5.95
-4.02
-2.57
-1.56
-0.91
-0.52
-0.32
-0.20
-0.04
0.29
0.89
1.69
2.50
3.13
3.46
3.50
3.44
3.40
3.48
3.65
3.83
3.99
4.09
4.12
4.00
3.64
3.01
2.21
1.42
0.82
0.49
0.33
0.16
-0.19
-0.75
-1.43
-2.07
-2.57
-2.92
-3.16
-3.36
-3.57
-3.75
-3.91
-4.11
-4.47
-5.19
-6.39
-8.04
-9.92
-11.58
-12.54
-12.49
-11.38
-9.54
-7.53
-5.89
-4.97
-4.75
-4.90
-4.94
-4.48
-3.35
-1.60
0.56
2.88
5.14
7.10
8.57
9.33
9.24
8.41
7.18
6.04
5.41
5.44
5.92
6.42
6.49
5.90
4.75
3.36
2.08
1.25
1.01
1.36
2.17
3.18
4.05
4.45
4.14
3.08
1.49
-0.25
-1.76
-2.76
-3.23
-3.37
-3.49
-3.87
-4.67
-5.80
-7.05
-8.12
-8.74
-8.74
-8.22
-7.43
-6.75
-6.50
-6.88
-7.88
-9.33
-10.91
-12.21
-12.93
-12.89
-12.04
-10.50
-8.42
-6.00
-3.51
-1.23
0.61
1.96
2.93
3.75
4.68
5.82
7.05
8.17
8.93
9.28
9.32
9.24
9.19
9.19
9.12
8.86
8.35
7.68
6.97
6.34
5.83
5.39
4.92
4.35
3.70
3.06
2.51
2.12
1.93
1.87
1.91
2.03
2.20
2.42
2.62
2.69
2.55
2.17
1.56
0.81
0.01
-0.77
-1.41
-1.84
-2.03
-1.97
-1.74
-1.53
-1.54
-1.89
-2.61
-3.56
-4.53
-5.40
-6.15
-6.87
-7.70
-8.63
-9.50
-10.02
-9.88
-9.01
-7.53
-5.75
-3.97
-2.37
-0.91
0.47
1.76
2.82
3.37
3.18
2.34
1.23
0.51
0.72
2.02
4.03
6.11
7.60
8.19
8.02
7.45
6.91
6.60
6.48
6.41
6.24
5.94
5.48
4.83
3.89
2.64
1.21
-0.10
-0.92
-1.04
-0.52
0.31
1.07
1.50
1.53
1.33
1.10
1.00
1.08
1.35
1.78
2.34
2.96
3.52
3.85
3.84
3.51
2.96
2.31
1.61
0.76
-0.35
-1.77
-3.32
-4.72
-5.71
-6.22
-6.41
-6.52
-6.72
-6.97
-7.05
-6.63
-5.57
-3.93
-2.01
-0.26
0.97
1.57
1.68
1.60
1.57
1.65
1.75
1.67
1.34
0.86
0.49
0.53
1.11
2.23
3.67
5.21
6.63
7.73
8.34
8.39
7.89
7.02
6.09
5.43
5.24
5.50
5.99
6.51
6.88
7.03
6.89
6.37
5.38
3.96
2.31
0.76
-0.35
-0.85
-0.87
-0.77
-0.95
-1.65
-2.79
-4.06
-5.05
-5.49
-5.42
-5.10
-4.91
-5.12
-5.80
-6.77
-7.78
-8.61
-9.26
-9.90
-10.66
-11.54
-12.30
-12.61
-12.21
-11.11
-9.54
-7.80
-6.12
-4.55
-3.04
-1.55
-0.14
1.06
1.99
2.75
3.56
4.59
5.85
7.13
8.09
8.49
8.27
7.65
6.95
6.42
6.09
5.92
5.73
5.43
5.00
4.45
3.81
3.07
2.23
1.33
0.52
-0.04
-0.25
-0.14
0.16
0.50
0.84
1.22
1.71
2.26
2.66
2.68
2.21
1.38
0.45
-0.30
-0.83
-1.28
-1.97
-3.02
-4.33
-5.52
-6.27
-6.51
-6.53
-6.81
-7.73
-9.34
-11.26
-12.91
-13.78
-13.64
-12.63
-11.13
-9.52
-8.01
-6.65
-5.34
-4.01
-2.69
-1.42
-0.30
0.65
1.45
2.19
2.90
3.64
4.37
5.01
5.46
5.68
5.72
5.68
5.69
5.80
5.97
6.07
5.94
5.51
4.77
3.85
2.90
2.09
1.52
1.28
1.36
1.73
2.32
2.94
3.39
3.41
2.78
1.50
-0.23
-2.03
-3.52
-4.41
-4.73
-4.69
-4.53
-4.38
-4.24
-4.03
-3.75
-3.47
-3.33
-3.41
-3.70
-4.10
-4.54
-5.06
-5.72
-6.54
-7.37
-8.01
-8.28
-8.14
-7.69
-7.11
-6.51
-5.85
-5.01
-3.87
-2.42
-0.76
0.94
2.59
4.17
5.77
7.43
9.10
10.64
11.81
12.43
12.54
12.36
12.29
12.64
13.47
14.48
15.25
15.37
14.72
13.56
12.34
11.48
11.10
11.02
10.87
10.40
9.54
8.45
7.36
6.40
5.52
4.51
3.23
1.68
0.10
-1.15
-1.77
-1.71
-1.25
-0.77
-0.55
-0.62
-0.77
-0.74
-0.43
-0.04
0.06
-0.48
-1.67
-3.25
-4.74
-5.78
-6.24
-6.27
-6.16
-6.12
-6.22
-6.39
-6.62
-6.94
-7.53
-8.51
-9.86
-11.39
-12.71
-13.45
-13.31
-12.24
-10.40
-8.14
-5.92
-4.13
-2.95
-2.26
-1.73
-0.90
0.52
2.49
4.65
6.47
7.60
7.97
7.82
7.51
7.30
7.18
7.03
6.75
6.32
5.95
5.82
5.97
6.32
6.65
6.77
6.65
6.39
6.10
5.85
5.52
4.98
4.18
3.21
2.31
1.69
1.41
1.32
1.16
0.70
-0.11
-1.13
-2.13
-2.95
-3.53
-3.93
-4.25
-4.47
-4.48
-4.20
-3.63
-2.93
-2.36
-2.17
-2.52
-3.43
-4.74
-6.24
-7.71
-8.95
-9.91
-10.56
-11.00
-11.28
-11.44
-11.36
-10.90
-9.98
-8.69
-7.25
-5.95
-4.98
-4.30
-3.70
-2.87
-1.68
-0.13
1.53
3.04
4.24
5.11
5.73
6.14
6.32
6.16
5.64
4.86
4.06
3.52
3.39
3.60
3.87
3.86
3.33
2.27
0.90
-0.44
-1.47
-2.06
-2.33
-2.46
-2.65
-2.93
-3.18
-3.27
-3.15
-2.92
-2.75
-2.77
-2.94
-3.13
-3.20
-3.11
-2.99
-3.11
-3.57
-4.36
-5.27
-6.09
-6.72
-7.19
-7.63
-8.03
-8.37
-8.50
-8.37
-7.99
-7.42
-6.67
-5.64
-4.19
-2.28
-0.07
2.15
4.06
5.52
6.52
7.20
7.65
7.91
7.94
7.75
7.41
7.04
6.73
6.47
6.17
5.79
5.40
5.09
4.89
4.71
4.40
3.86
3.13
2.43
2.01
2.05
2.50
3.12
3.55
3.48
2.80
1.62
0.21
-1.10
-2.04
-2.51
-2.55
-2.39
-2.27
-2.37
-2.71
-3.16
-3.50
-3.53
-3.18
-2.50
-1.72
-1.14
-0.98
-1.36
-2.21
-3.32
-4.40
-5.18
-5.48
-5.29
-4.66
-3.74
-2.67
-1.55
-0.46
0.56
1.43
2.09
2.47
2.57
2.52
2.50
2.74
3.40
4.45
5.74
6.99
7.91
8.35
8.34
8.02
7.58
7.14
6.76
6.44
6.21
6.11
6.20
6.49
6.92
7.34
7.63
7.67
7.46
7.05
6.49
5.85
5.21
4.66
4.23
3.91
3.65
3.38
3.10
2.84
2.65
2.50
2.30
1.93
1.32
0.51
-0.38
-1.22
-1.96
-2.61
-3.22
-3.80
-4.25
-4.52
-4.58
-4.60
-4.81
-5.42
-6.52
-8.00
-9.61
-11.03
-12.00
-12.40
-12.15
-11.32
-9.94
-8.12
-6.02
-3.86
-1.91
-0.39
0.58
1.09
1.33
1.59
2.05
2.70
3.41
3.94
4.13
4.00
3.65
3.19
2.67
1.99
1.01
-0.22
-1.51
-2.53
-3.01
-2.84
-2.20
-1.33
-0.47
0.28
0.96
1.60
2.23
2.80
3.27
3.72
4.27
4.98
5.78
6.46
6.76
6.49
5.66
4.44
3.10
1.93
1.10
0.60
0.23
-0.35
-1.46
-3.25
-5.56
-7.95
-9.82
-10.78
-10.79
-10.21
-9.65
-9.64
-10.45
-11.98
-13.83
-15.54
-16.75
-17.28
-17.15
-16.42
-15.14
-13.33
-11.02
-8.33
-5.47
-2.72
-0.33
1.62
3.15
4.42
5.55
6.57
7.44
8.08
8.47
8.64
8.70
8.76
8.93
9.24
9.65
10.07
10.34
10.37
10.16
9.85
9.64
9.66
9.93
10.31
10.61
10.69
10.52
10.13
9.55
8.73
7.61
6.18
4.51
2.83
1.41
0.47
0.09
0.25
0.72
1.24
1.52
1.41
0.86
0.02
-0.84
-1.54
-1.97
-2.23
-2.50
-2.84
-3.20
-3.43
-3.41
-3.13
-2.84
-2.80
-3.29
-4.33
-5.75
-7.16
-8.11
-8.24
-7.38
-5.67
-3.51
-1.46
-0.01
0.59
0.45
0.03
-0.15
0.29
1.39
2.89
4.32
5.30
5.62
5.29
4.44
3.29
2.03
0.87
0.04
-0.32
-0.09
0.68
1.78
2.92
3.75
4.16
4.18
4.07
4.09
4.41
4.96
5.47
5.69
5.41
4.65
3.50
2.15
0.75
-0.50
-1.49
-2.10
-2.25
-2.01
-1.57
-1.18
-1.05
-1.29
-1.85
-2.63
-3.45
-4.14
-4.59
-4.75
-4.65
-4.44
-4.30
-4.38
-4.73
-5.26
-5.82
-6.21
-6.33
-6.11
-5.57
-4.79
-3.86
-2.90
-2.03
-1.36
-0.94
-0.80
-0.82
-0.88
-0.80
-0.40
0.41
1.59
2.96
4.21
5.04
5.26
4.89
4.14
3.30
2.64
2.31
2.23
2.31
2.42
2.55
2.78
3.12
3.53
3.85
3.94
3.71
3.20
2.52
1.78
1.00
0.17
-0.69
-1.55
-2.28
-2.75
-2.88
-2.74
-2.42
-2.02
-1.58
-1.08
-0.51
0.03
0.35
0.25
-0.38
-1.46
-2.75
-4.01
-5.03
-5.77
-6.28
-6.64
-6.88
-6.97
-6.86
-6.53
-6.03
-5.43
-4.81
-4.16
-3.44
-2.62
-1.73
-0.90
-0.32
-0.13
-0.28
-0.60
-0.76
-0.44
0.39
1.52
2.54
3.06
3.02
2.68
2.41
2.53
3.07
3.77
4.31
4.51
4.44
4.31
4.27
4.30
4.16
3.61
2.56
1.19
-0.14
-1.04
-1.30
-0.94
-0.15
0.80
1.68
2.40
2.99
3.51
4.00
4.45
4.72
4.67
4.22
3.38
2.34
1.33
0.45
-0.30
-1.07
-2.04
-3.25
-4.51
-5.54
-6.12
-6.26
-6.22
-6.39
-6.99
-7.91
-8.76
-9.06
-8.54
-7.27
-5.66
-4.22
-3.34
-3.08
-3.23
-3.43
-3.38
-2.98
-2.36
-1.72
-1.25
-0.96
-0.77
-0.51
-0.03
0.71
1.67
2.77
3.96
5.14
6.21
7.03
7.44
7.40
7.02
6.59
6.35
6.43
6.75
7.09
7.22
7.06
6.64
6.06
5.39
4.68
3.97
3.26
2.68
2.32
2.25
2.42
2.70
2.96
3.12
3.22
3.31
3.43
3.58
3.62
3.49
3.11
2.49
1.63
0.55
-0.76
-2.25
-3.79
-5.21
-6.29
-7.00
-7.49
-8.10
-9.11
-10.56
-12.19
-13.48
-13.93
-13.25
-11.53
-9.13
-6.51
-4.15
-2.34
-1.22
-0.74
-0.68
-0.70
-0.52
0.03
0.99
2.16
3.33
4.27
4.84
4.96
4.59
3.78
2.65
1.47
0.57
0.27
0.67
1.64
2.89
4.07
4.99
5.59
5.91
5.93
5.53
4.57
3.05
1.28
-0.23
-0.96
-0.69
0.39
1.70
2.67
2.91
2.46
1.69
0.95
0.45
0.13
-0.19
-0.68
-1.36
-2.11
-2.78
-3.30
-3.71
-4.11
-4.58
-5.11
-5.62
-6.07
-6.43
-6.78
-7.19
-7.67
-8.19
-8.61
-8.78
-8.61
-8.07
-7.23
-6.25
-5.29
-4.43
-3.72
-3.04
-2.24
-1.21
0.07
1.46
2.76
3.75
4.38
4.68
4.84
5.03
5.26
5.49
5.64
5.64
5.53
5.38
5.20
4.94
4.52
3.82
2.93
2.07
1.59
1.74
2.55
3.78
5.02
5.93
6.31
6.26
6.00
5.69
5.36
4.84
4.00
2.81
1.46
0.17
-0.85
-1.62
-2.29
-3.05
-3.94
-4.90
-5.78
-6.44
-6.87
-7.12
-7.32
-7.61
-8.05
-8.66
-9.43
-10.30
-11.07
-11.54
-11.48
-10.74
-9.31
-7.33
-5.07
-2.84
-0.99
0.24
0.77
0.78
0.57
0.51
0.86
1.70
2.92
4.33
5.72
6.91
7.83
8.44
8.73
8.77
8.66
8.50
8.41
8.50
8.76
9.16
9.53
9.71
9.50
8.82
7.70
6.29
4.84
3.55
2.53
1.78
1.28
1.00
0.99
1.30
1.87
2.51
2.93
2.87
2.16
0.91
-0.60
-1.97
-2.87
-3.19
-3.02
-2.56
-2.08
-1.77
-1.75
-2.01
-2.49
-3.09
-3.72
-4.33
-4.93
-5.61
-6.41
-7.31
-8.22
-9.01
-9.55
-9.85
-10.00
-10.16
-10.35
-10.42
-10.07
-9.03
-7.24
-4.89
-2.42
-0.32
1.08
1.73
1.87
1.91
2.23
3.00
4.16
5.42
6.50
7.18
7.32
6.99
6.30
5.43
4.56
3.89
3.58
3.73
4.35
5.34
6.49
7.52
8.18
8.30
7.87
7.03
6.06
5.26
4.81
4.78
5.04
5.36
5.55
5.50
5.23
4.82
4.35
3.87
3.39
2.87
2.28
1.61
0.87
0.10
-0.66
-1.33
-1.91
-2.41
-2.87
-3.37
-3.99
-4.79
-5.85
-7.25
-8.95
-10.79
-12.46
-13.60
-13.94
-13.40
-12.16
-10.57
-8.96
-7.57
-6.45
-5.56
-4.80
-4.06
-3.23
-2.20
-0.94
0.51
2.00
3.34
4.40
5.13
5.57
5.81
5.89
5.81
5.59
5.32
5.10
5.08
5.24
5.47
5.54
5.32
4.84
4.30
3.95
3.95
4.27
4.71
5.05
5.12
4.99
4.83
4.78
4.85
4.88
4.62
3.90
2.75
1.39
0.09
-0.94
-1.65
-2.20
-2.74
-3.38
-4.14
-4.90
-5.56
-6.07
-6.41
-6.55
-6.45
-6.08
-5.48
-4.91
-4.70
-5.15
-6.34
-8.05
-9.84
-11.19
-11.76
-11.40
-10.27
-8.68
-7.03
-5.64
-4.63
-3.97
-3.43
-2.76
-1.77
-0.42
1.16
2.76
4.22
5.40
6.20
6.62
6.67
6.46
6.15
6.00
6.13
6.60
7.33
8.15
8.87
9.35
9.54
9.44
9.07
8.47
7.66
6.70
5.66
4.61
3.66
2.85
2.28
1.91
1.68
1.47
1.10
0.46
-0.48
-1.66
-2.88
-3.96
-4.81
-5.40
-5.88
-6.45
-7.22
-8.13
-9.01
-9.61
-9.76
-9.47
-8.95
-8.47
-8.24
-8.27
-8.36
-8.20
-7.54
-6.27
-4.51
-2.56
-0.75
0.71
1.74
2.47
3.03
3.60
4.22
4.86
5.46
5.92
6.22
6.32
6.26
6.11
6.02
6.09
6.41
6.98
7.73
8.58
9.34
9.93
10.19
10.00
9.29
8.04
6.38
4.55
2.88
1.61
0.85
0.53
0.44
0.40
0.28
0.08
-0.24
-0.67
-1.21
-1.80
-2.32
-2.60
-2.49
-2.03
-1.44
-1.10
-1.33
-2.29
-3.86
-5.74
-7.60
-9.19
-10.48
-11.51
-12.35
-12.93
-13.10
-12.66
-11.53
-9.86
-7.96
-6.23
-4.97
-4.21
-3.76
-3.28
-2.48
-1.24
0.38
2.18
3.87
5.29
6.35
7.07
7.62
8.17
8.85
9.66
10.47
11.10
11.44
11.49
11.36
11.19
11.03
10.82
10.42
9.74
8.79
7.68
6.59
5.62
4.79
4.05
3.39
2.82
2.38
2.05
1.74
1.31
0.65
-0.23
-1.26
-2.27
-3.15
-3.88
-4.49
-5.04
-5.58
-6.12
-6.61
-7.03
-7.44
-7.95
-8.67
-9.66
-10.86
-12.13
-13.26
-14.00
-14.16
-13.61
-12.37
-10.55
-8.41
-6.20
-4.16
-2.40
-0.95
0.24
1.29
2.35
3.51
4.83
6.24
7.64
8.83
9.66
9.98
9.87
9.48
9.00
8.60
8.33
8.14
7.94
7.63
7.18
6.63
6.06
5.53
5.07
4.72
4.46
4.28
4.16
4.03
3.84
3.43
2.73
1.72
0.47
-0.82
-2.01
-3.00
-3.81
-4.51
-5.18
-5.86
-6.53
-7.19
-7.89
-8.65
-9.50
-10.33
-10.96
-11.22
-10.99
-10.32
-9.33
-8.22
-7.15
-6.17
-5.32
-4.56
-3.86
-3.11
-2.26
-1.31
-0.35
0.47
1.02
1.26
1.26
1.22
1.29
1.49
1.67
1.62
1.16
0.31
-0.76
-1.79
-2.63
-3.17
-3.46
-3.48
-3.22
-2.59
-1.57
-0.29
0.96
1.81
1.97
1.35
0.15
-1.24
-2.38
-2.95
-2.95
-2.66
-2.50
-2.81
-3.66
-4.82
-5.87
-6.48
-6.60
-6.40
-6.20
-6.19
-6.38
-6.60
-6.71
-6.60
-6.35
-6.04
-5.65
-5.04
-3.97
-2.39
-0.49
1.35
2.71
3.36
3.43
3.34
3.55
4.35
5.65
7.11
8.29
8.89
8.89
8.50
8.06
7.85
7.99
8.44
9.07
9.69
10.14
10.28
10.12
9.71
9.18
8.61
8.06
7.55
7.16
6.99
7.08
7.43
7.81
7.99
7.74
6.99
5.91
4.72
3.62
2.62
1.57
0.31
-1.22
-2.87
-4.40
-5.58
-6.31
-6.62
-6.71
-6.77
-6.96
-7.40
-8.13
-9.19
-10.48
-11.89
-13.16
-14.02
-14.23
-13.71
-12.50
-10.80
-8.86
-6.87
-5.00
-3.36
-1.98
-0.83
0.19
1.23
2.50
4.05
5.82
7.55
8.91
9.61
9.55
8.83
7.72
6.56
5.69
5.34
5.54
6.15
6.92
7.56
7.89
7.89
7.67
7.38
7.19
7.09
7.06
7.03
6.97
6.94
7.07
7.41
7.86
8.25
8.35
7.94
6.99
5.65
4.20
2.97
2.15
1.77
1.67
1.63
1.42
0.89
-0.03
-1.30
-2.82
-4.39
-5.87
-7.11
-8.02
-8.69
-9.22
-9.73
-10.27
-10.75
-11.05
-11.08
-10.80
-10.24
-9.47
-8.49
-7.33
-6.05
-4.77
-3.65
-2.77
-2.03
-1.24
-0.11
1.48
3.41
5.32
6.78
7.55
7.61
7.21
6.62
6.03
5.50
4.98
4.42
3.86
3.41
3.16
3.15
3.32
3.58
3.80
3.91
3.82
3.55
3.10
2.55
1.99
1.48
1.00
0.51
0.00
-0.47
-0.74
-0.72
-0.48
-0.26
-0.35
-0.97
-2.07
-3.41
-4.69
-5.73
-6.53
-7.26
-8.07
-8.94
-9.72
-10.21
-10.28
-9.96
-9.38
-8.62
-7.75
-6.71
-5.46
-4.02
-2.49
-1.00
0.30
1.36
2.21
2.88
3.44
3.91
4.30
4.59
4.78
4.88
4.93
5.01
5.20
5.49
5.88
6.26
6.50
6.51
6.20
5.60
4.85
4.10
3.52
3.20
3.07
2.95
2.60
1.84
0.73
-0.47
-1.38
-1.74
-1.53
-1.08
-0.81
-1.13
-2.17
-3.75
-5.54
-7.15
-8.37
-9.11
-9.46
-9.46
-9.19
-8.66
-7.89
-6.91
-5.80
-4.62
-3.44
-2.35
-1.35
-0.43
0.44
1.32
2.19
3.04
3.81
4.42
4.82
4.95
4.86
4.62
4.37
4.23
4.31
4.59
4.98
5.33
5.49
5.44
5.25
5.12
5.18
5.48
5.91
6.29
6.47
6.41
6.21
5.99
5.85
5.74
5.51
5.00
4.15
3.04
1.89
0.88
0.08
-0.59
-1.26
-2.01
-2.74
-3.28
-3.47
-3.29
-3.02
-3.09
-3.85
-5.47
-7.70
-10.06
-12.00
-13.18
-13.57
-13.41
-13.05
-12.67
-12.23
-11.47
-10.16
-8.26
-5.98
-3.71
-1.82
-0.42
0.64
1.61
2.67
3.84
4.96
5.84
6.31
6.35
6.09
5.71
5.35
5.09
4.88
4.63
4.28
3.80
3.29
2.87
2.59
2.39
2.10
1.58
0.81
-0.06
-0.74
-1.02
-0.90
-0.58
-0.34
-0.34
-0.55
-0.77
-0.82
-0.60
-0.21
0.16
0.35
0.31
0.06
-0.33
-0.82
-1.45
-2.21
-3.10
-4.04
-4.89
-5.47
-5.66
-5.40
-4.70
-3.69
-2.50
-1.26
-0.09
0.99
1.96
2.81
3.44
3.77
3.79
3.66
3.61
3.84
4.38
5.02
5.42
5.35
4.83
4.13
3.64
3.64
4.14
4.93
5.66
6.08
6.13
5.88
5.41
4.76
3.94
3.01
2.14
1.51
1.23
1.24
1.23
0.84
-0.16
-1.66
-3.28
-4.55
-5.15
-5.06
-4.53
-4.02
-3.90
-4.43
-5.67
-7.51
-9.75
-12.08
-14.15
-15.63
-16.28
-16.02
-14.93
-13.24
-11.24
-9.19
-7.25
-5.48
-3.84
-2.22
-0.48
1.39
3.34
5.16
6.61
7.52
7.81
7.56
6.94
6.16
5.45
5.01
4.94
5.28
5.94
6.70
7.35
7.74
7.82
7.67
7.43
7.22
7.09
7.05
7.04
7.04
7.02
6.94
6.69
6.23
5.54
4.72
3.88
3.09
2.37
1.61
0.73
-0.33
-1.53
-2.67
-3.59
-4.20
-4.54
-4.72
-4.90
-5.15
-5.49
-5.87
-6.28
-6.74
-7.34
-8.17
-9.25
-10.48
-11.70
-12.71
-13.42
-13.79
-13.86
-13.64
-13.09
-12.14
-10.72
-8.86
-6.71
-4.56
-2.68
-1.21
-0.09
0.91
2.01
3.31
4.80
6.26
7.52
8.48
9.16
9.65
9.98
10.14
10.06
9.68
9.06
8.34
7.72
7.35
7.31
7.54
7.90
8.18
8.23
7.93
7.26
6.31
5.22
4.18
3.32
2.70
2.28
1.96
1.66
1.37
1.17
1.13
1.27
1.50
1.60
1.37
0.67
-0.48
-1.96
-3.56
-5.13
-6.54
-7.77
-8.80
-9.72
-10.62
-11.62
-12.76
-13.95
-15.02
-15.73
-15.88
-15.47
-14.58
-13.38
-11.94
-10.29
-8.45
-6.53
-4.67
-3.02
-1.56
-0.12
1.61
3.80
6.34
8.79
10.61
11.39
11.09
10.07
8.80
7.71
6.97
6.53
6.28
6.15
6.13
6.24
6.39
6.45
6.33
6.02
5.63
5.30
5.11
4.97
4.75
4.31
3.67
2.95
2.29
1.78
1.38
0.95
0.35
-0.45
-1.39
-2.25
-2.80
-2.92
-2.66
-2.30
-2.22
-2.73
-3.95
-5.71
-7.63
-9.33
-10.60
-11.43
-12.01
-12.50
-12.92
-13.04
-12.59
-11.31
-9.16
-6.42
-3.41
-0.50
2.10
4.33
6.21
7.76
8.91
9.61
9.79
9.53
8.96
8.24
7.46
6.65
5.78
4.81
3.80
2.88
2.24
2.04
2.30
2.92
3.69
4.38
4.82
4.87
4.51
3.76
2.71
1.54
0.49
-0.20
-0.37
-0.05
0.62
1.35
1.88
2.08
1.92
1.47
0.83
0.07
-0.78
-1.68
-2.59
-3.43
-4.17
-4.74
-5.23
-5.76
-6.50
-7.56
-8.88
-10.22
-11.26
-11.73
-11.48
-10.60
-9.25
-7.61
-5.79
-3.76
-1.53
0.84
3.14
5.16
6.74
7.87
8.66
9.23
9.63
9.78
9.54
8.85
7.79
6.50
5.21
4.14
3.43
3.13
3.28
3.78
4.48
5.23
5.80
6.06
5.98
5.63
5.17
4.75
4.44
4.23
4.06
3.91
3.72
3.53
3.30
3.08
2.91
2.83
2.83
2.85
2.73
2.33
1.61
0.63
-0.38
-1.20
-1.70
-1.88
-1.88
-1.89
-2.06
-2.42
-2.97
-3.66
-4.47
-5.35
-6.30
-7.27
-8.22
-9.16
-10.08
-10.95
-11.73
-12.28
-12.49
-12.31
-11.84
-11.19
-10.43
-9.54
-8.43
-6.96
-5.11
-2.98
-0.78
1.16
2.59
3.39
3.60
3.48
3.31
3.37
3.68
4.12
4.45
4.53
4.35
4.14
4.10
4.34
4.75
5.05
5.07
4.85
4.66
4.88
5.72
7.08
8.56
9.65
10.02
9.64
8.83
8.03
7.56
7.46
7.52
7.39
6.82
5.79
4.41
2.94
1.59
0.49
-0.28
-0.74
-0.97
-1.08
-1.23
-1.55
-2.08
-2.75
-3.50
-4.30
-5.15
-6.09
-7.09
-7.98
-8.57
-8.73
-8.53
-8.27
-8.35
-9.08
-10.51
-12.30
-13.91
-14.81
-14.73
-13.74
-12.18
-10.46
-8.90
-7.57
-6.34
-4.98
-3.34
-1.40
0.68
2.66
4.30
5.39
5.85
5.65
4.89
3.70
2.31
1.04
0.25
0.25
1.14
2.75
4.60
6.11
6.83
6.57
5.53
4.19
3.05
2.44
2.46
2.93
3.64
4.41
5.13
5.74
6.20
6.44
6.44
6.18
5.72
5.12
4.43
3.64
2.71
1.64
0.47
-0.66
-1.61
-2.30
-2.77
-3.19
-3.74
-4.45
-5.27
-6.01
-6.43
-6.41
-6.06
-5.61
-5.39
-5.63
-6.33
-7.32
-8.30
-8.94
-9.11
-8.83
-8.25
-7.56
-6.90
-6.29
-5.55
-4.47
-2.86
-0.76
1.56
3.70
5.31
6.30
6.81
7.14
7.47
7.78
7.86
7.47
6.54
5.23
3.84
2.71
1.98
1.65
1.66
1.93
2.43
3.15
4.01
4.87
5.59
6.00
6.03
5.64
4.86
3.79
2.65
1.66
1.01
0.78
0.81
0.89
0.86
0.65
0.35
0.12
0.02
-0.06
-0.25
-0.72
-1.48
-2.45
-3.51
-4.58
-5.61
-6.59
-7.52
-8.37
-9.15
-9.86
-10.46
-10.86
-10.88
-10.40
-9.43
-8.14
-6.83
-5.67
-4.63
-3.50
-2.05
-0.15
2.04
4.15
5.86
6.95
7.42
7.42
7.14
6.74
6.35
6.10
6.08
6.34
6.84
7.40
7.80
7.91
7.70
7.33
6.99
6.83
6.90
7.14
7.40
7.53
7.44
7.14
6.71
6.25
5.83
5.49
5.16
4.80
4.38
3.91
3.40
2.87
2.28
1.57
0.78
-0.04
-0.79
-1.43
-1.98
-2.49
-2.93
-3.19
-3.16
-2.81
-2.38
-2.23
-2.73
-4.00
-5.83
-7.78
-9.40
-10.46
-11.04
-11.37
-11.68
-12.08
-12.49
-12.77
-12.74
-12.28
-11.35
-9.94
-8.11
-6.03
-3.98
-2.26
-1.15
-0.68
-0.69
-0.87
-0.86
-0.42
0.49
1.72
2.97
3.93
4.42
4.44
4.17
3.87
3.77
3.93
4.23
4.49
4.60
4.62
4.80
5.31
6.22
7.40
8.49
9.19
9.29
8.82
7.95
6.97
6.14
5.61
5.40
5.39
5.38
5.22
4.85
4.35
3.92
3.68
3.59
3.41
2.83
1.70
0.17
-1.39
-2.57
-3.14
-3.20
-3.07
-3.14
-3.63
-4.49
-5.56
-6.67
-7.73
-8.79
-9.90
-11.09
-12.30
-13.44
-14.38
-14.99
-15.15
-14.74
-13.71
-12.22
-10.56
-9.03
-7.81
-6.85
-5.96
-4.89
-3.49
-1.81
-0.03
1.60
2.89
3.79
4.38
4.83
5.33
6.06
7.06
8.32
9.60
10.71
11.46
11.85
12.01
12.11
12.30
12.62
13.02
13.37
13.62
13.77
13.91
14.11
14.35
14.50
14.35
13.78
12.83
11.68
10.59
9.68
8.91
8.05
6.81
5.03
2.71
-0.02
-3.00
-6.23
-9.82
-13.94
-18.77
-24.33
-30.46
-36.76
-42.74
-47.91
-51.97
-54.94
-57.08
-58.66
-59.80
-60.51
-60.77
-60.81
-61.08
-61.99
-63.63
-65.64
-67.49
-68.92
-70.55
-73.70
-79.93
-90.17
-104.04
-119.72
-134.39
-145.14
-149.67
-146.85
-136.65
-119.99
-98.27
-73.17
-46.39
-19.58
5.59
27.62
45.41
58.43
66.87
71.64
73.93
74.83
74.91
74.18
72.37
69.44
65.92
62.86
61.51
62.90
67.46
74.95
84.56
95.18
105.70
115.17
122.97
128.72
132.32
133.81
133.27
130.84
126.68
121.00
114.14
106.39
97.90
88.77
79.23
69.78
61.21
54.25
49.27
45.97
43.63
41.42
38.90
36.22
33.87
32.25
31.29
30.34
28.57
25.47
21.18
16.47
12.32
9.51
8.30
8.33
9.01
9.74
10.19
10.25
9.94
9.09
7.33
4.26
-0.56
-7.30
-15.76
-25.40
-35.48
-45.18
-53.87
-61.27
-67.41
-72.62
-77.24
-81.50
-85.34
-88.51
-90.61
-91.36
-90.69
-88.79
-86.14
-83.36
-81.09
-79.78
-79.45
-79.68
-79.74
-78.92
-76.89
-73.94
-70.93
-68.89
-68.54
-69.80
-71.89
-73.64
-74.08
-72.91
-70.71
-68.66
-68.34
-71.22
-78.21
-89.11
-102.08
-113.28
-117.40
-109.03
-84.76
-45.09
5.02
57.26
102.75
135.01
151.81
155.18
149.63
139.85
129.03
118.45
108.29
98.65
90.17
83.76
79.89
78.06
76.72
74.03
68.79
61.06
52.12
43.92
38.08
35.20
34.60
34.75
34.00
31.32
26.68
20.88
15.15
10.52
7.50
5.86
4.94
3.94
2.33
0.02
-2.71
-5.33
-7.37
-8.61
-9.12
-9.19
-9.16
-9.25
-9.48
-9.71
-9.69
-9.21
-8.14
-6.50
-4.42
-2.14
0.11
2.09
3.68
4.87
5.73
6.40
6.98
7.54
8.01
8.30
8.23
7.75
6.97
6.12
5.52
5.40
5.80
6.57
7.41
7.99
8.12
7.82
7.22
6.54
5.91
5.35
4.82
4.25
3.61
2.98
2.39
1.77
1.00
-0.09
-1.56
-3.27
-4.97
-6.40
-7.47
-8.24
-8.98
-9.83
-10.81
-11.72
-12.30
-12.37
-11.89
-11.03
-9.99
-8.97
-8.04
-7.21
-6.43
-5.68
-4.96
-4.24
-3.45
-2.50
-1.36
-0.12
0.98
1.68
1.79
1.23
0.15
-1.16
-2.37
-3.26
-3.75
-3.92
-3.93
-3.96
-4.18
-4.62
-5.29
-6.13
-7.16
-8.51
-10.41
-13.09
-16.66
-21.01
-25.88
-30.95
-35.95
-40.74
-45.25
-49.42
-53.16
-56.26
-58.45
-59.50
-59.24
-57.66
-54.86
-51.08
-46.55
-41.61
-36.49
-31.33
-26.24
-21.27
-16.48
-11.98
-7.84
-4.02
-0.43
3.07
6.65
10.35
14.15
17.95
21.59
24.92
27.83
30.24
32.11
33.43
34.23
34.53
34.43
34.02
33.44
32.83
32.35
32.09
32.12
32.43
32.95
33.56
34.08
34.36
34.27
33.79
32.99
31.98
30.86
29.70
28.51
27.24
25.81
24.17
22.32
20.28
18.09
15.77
13.39
11.00
8.71
6.64
4.88
3.42
2.15
0.90
-0.53
-2.21
-4.04
-5.83
-7.33
-8.36
-8.80
-8.64
-7.93
-6.78
-5.35
-3.77
-2.13
-0.45
1.29
3.09
4.98
6.88
8.78
10.62
12.44
14.28
16.09
17.68
18.72
18.92
18.10
16.33
13.81
10.82
7.48
3.81
-0.27
-4.81
-9.66
-14.40
-18.55
-21.66
-23.49
-24.18
-24.00
-23.27
-22.13
-20.53
-18.29
-15.22
-11.30
-6.66
-1.45
4.37
11.11
19.28
29.33
41.38
55.12
69.89
85.03
100.14
115.08
129.71
143.57
155.64
164.49
168.65
167.05
159.32
145.67
126.62
102.71
74.41
42.32
7.32
-29.38
-66.24
-101.65
-134.19
-162.79
-186.87
-206.34
-221.40
-232.34
-239.17
-241.60
-239.13
-231.42
-218.61
-201.33
-180.67
-157.72
-133.32
-107.99
-82.27
-56.99
-33.41
-12.99
3.11
14.40
21.23
24.56
25.59
25.15
23.56
20.48
15.20
7.06
-4.12
-17.79
-32.76
-47.36
-59.97
-69.34
-74.75
-76.07
-73.40
-66.86
-56.38
-41.81
-23.15
-0.83
24.12
50.11
75.06
96.77
113.14
122.52
124.07
117.91
105.30
88.39
69.93
52.50
38.13
27.87
21.85
19.57
20.20
22.77
26.32
30.03
33.19
35.35
36.43
36.60
36.28
35.88
35.61
35.51
35.43
35.20
34.82
34.45
34.32
34.67
35.55
36.83
38.29
39.58
40.45
40.69
40.26
39.25
37.93
36.60
35.56
35.01
34.94
35.19
35.50
35.67
35.53
35.09
34.35
33.30
31.92
30.19
28.08
25.67
23.08
20.46
17.92
15.53
13.32
11.35
9.63
8.20
7.06
6.13
5.26
4.30
3.13
1.79
0.44
-0.75
-1.68
-2.45
-3.24
-4.20
-5.33
-6.45
-7.33
-7.81
-7.92
-7.80
-7.65
-7.49
-7.21
-6.60
-5.57
-4.24
-2.95
-2.04
-1.67
-1.74
-1.93
-1.87
-1.35
-0.47
0.52
1.31
1.68
1.59
1.12
0.35
-0.63
-1.79
-2.99
-4.07
-4.82
-5.03
-4.66
-3.83
-2.75
-1.68
-0.79
-0.10
0.50
1.17
1.99
2.90
3.64
3.95
3.64
2.74
1.51
0.23
-0.85
-1.73
-2.63
-3.89
-5.79
-8.49
-11.84
-15.47
-18.91
-21.75
-23.75
-25.03
-25.98
-27.12
-28.85
-31.19
-33.71
-35.71
-36.59
-36.26
-35.30
-34.85
-36.11
-39.76
-45.53
-52.26
-58.33
-62.41
-64.05
-63.94
-63.68
-65.29
-70.64
-80.77
-95.35
-112.15
-127.01
-134.41
-128.98
-107.44
-70.38
-22.77
27.28
71.07
102.19
118.34
121.27
115.20
104.66
92.83
81.24
70.30
60.31
51.85
45.66
42.04
40.39
39.29
37.17
33.15
27.42
21.16
15.99
13.12
12.86
14.51
16.71
18.12
17.88
15.92
12.86
9.61
7.02
5.53
5.07
5.14
5.12
4.50
3.10
1.14
-0.96
-2.76
-4.00
-4.70
-5.06
-5.38
-5.94
-6.83
-7.91
-9.01
-9.89
-10.41
-10.59
-10.56
-10.53
-10.69
-11.16
-11.89
-12.82
-13.84
-14.86
-15.91
-17.03
-18.36
-20.14
-22.68
-26.37
-31.61
-38.65
-47.38
-57.23
-67.05
-75.38
-80.72
-81.93
-78.49
-70.57
-58.81
-44.18
-27.72
-10.42
6.65
22.46
36.06
46.67
53.92
57.84
58.75
57.15
53.63
48.73
43.01
37.06
31.33
26.23
21.97
18.61
16.02
14.05
12.46
11.14
10.04
9.17
8.58
8.36
8.47
8.82
9.23
9.50
9.55
9.37
9.10
8.89
8.84
8.96
9.17
9.33
9.35
9.14
8.67
7.93
6.99
6.06
5.42
5.31
5.88
7.00
8.32
9.41
9.93
9.74
8.95
7.79
6.47
5.08
3.57
1.81
-0.24
-2.58
-5.09
-7.56
-9.85
-11.81
-13.40
-14.67
-15.70
-16.56
-17.31
-17.97
-18.51
-18.92
-19.21
-19.38
-19.40
-19.15
-18.52
-17.39
-15.79
-13.86
-11.77
-9.72
-7.76
-5.90
-4.13
-2.48
-0.97
0.33
1.47
2.47
3.37
4.20
4.91
5.51
6.03
6.55
7.16
7.93
8.86
9.85
10.78
11.55
12.14
12.59
13.00
13.46
14.06
14.84
15.73
16.66
17.49
18.05
18.22
17.92
17.19
16.19
15.10
14.08
13.25
12.56
11.90
11.19
10.39
9.51
8.60
7.67
6.67
5.56
4.27
2.79
1.21
-0.29
-1.50
-2.27
-2.51
-2.31
-1.87
-1.49
-1.42
-1.80
-2.64
-3.82
-5.23
-6.72
-8.24
-9.73
-11.09
-12.19
-12.91
-13.28
-13.42
-13.60
-14.07
-14.94
-16.10
-17.27
-18.11
-18.32
-17.80
-16.56
-14.71
-12.43
-9.87
-7.12
-4.27
-1.41
1.30
3.63
5.41
6.46
6.77
6.51
5.99
5.55
5.46
5.84
6.63
7.72
8.91
10.03
11.00
11.72
12.11
12.14
11.78
11.09
10.17
9.14
8.12
7.21
6.51
6.13
6.13
6.51
7.17
8.00
8.83
9.53
10.01
10.22
10.14
9.79
9.19
8.40
7.50
6.56
5.66
4.82
4.04
3.34
2.73
2.22
1.82
1.49
1.17
0.78
0.27
-0.35
-1.04
-1.66
-2.10
-2.27
-2.06
-1.39
-0.17
1.62
3.92
6.51
9.06
11.21
12.73
13.56
13.83
13.78
13.64
13.53
13.47
13.41
13.25
12.95
12.49
11.84
11.04
10.13
9.19
8.26
7.36
6.46
5.47
4.33
2.96
1.40
-0.33
-2.16
-4.05
-5.94
-7.72
-9.30
-10.57
-11.50
-12.09
-12.43
-12.60
-12.65
-12.62
-12.49
-12.29
-12.01
-11.68
-11.30
-10.88
-10.44
-10.03
-9.71
-9.56
-9.60
-9.81
-10.13
-10.51
-10.87
-11.18
-11.42
-11.55
-11.57
-11.49
-11.31
-11.03
-10.58
-9.85
-8.72
-7.12
-5.10
-2.85
-0.62
1.35
2.91
4.03
4.77
5.18
5.34
5.28
5.04
4.71
4.36
4.09
3.96
3.99
4.16
4.47
4.90
5.43
6.05
6.78
7.62
8.57
9.53
10.35
10.83
10.79
10.19
9.11
7.73
6.28
4.92
3.70
2.62
1.67
0.85
0.20
-0.33
-0.78
-1.25
-1.80
-2.43
-3.09
-3.68
-4.15
-4.46
-4.69
-4.87
-5.04
-5.19
-5.28
-5.23
-4.98
-4.44
-3.52
-2.15
-0.32
1.87
4.19
6.35
8.02
8.99
9.23
8.91
8.35
7.80
7.40
7.10
6.71
6.08
5.13
3.96
2.76
1.76
1.10
0.82
0.87
1.11
1.36
1.44
1.27
0.86
0.31
-0.24
-0.72
-1.10
-1.48
-1.97
-2.66
-3.63
-4.94
-6.61
-8.67
-11.11
-13.87
-16.92
-20.17
-23.57
-27.01
-30.28
-33.13
-35.30
-36.67
-37.26
-37.33
-37.16
-37.02
-37.04
-37.18
-37.31
-37.24
-36.75
-35.61
-33.56
-30.38
-25.96
-20.42
-14.03
-7.22
-0.40
6.07
11.97
17.20
21.75
25.65
28.92
31.59
33.62
35.01
35.63
35.42
34.34
32.51
30.19
27.71
25.39
23.39
21.74
20.34
19.09
17.89
16.79
15.85
15.15
14.67
14.36
14.08
13.74
13.30
12.79
12.31
11.92
11.60
11.26
10.73
9.91
8.79
7.48
6.17
4.97
3.93
2.93
1.85
0.57
-0.91
-2.50
-4.10
-5.63
-7.07
-8.39
-9.57
-10.51
-11.19
-11.65
-11.94
-12.13
-12.24
-12.17
-11.70
-10.63
-8.83
-6.37
-3.45
-0.38
2.53
5.05
7.10
8.64
9.74
10.50
10.97
11.20
11.25
11.14
10.90
10.58
10.23
9.86
9.49
9.08
8.59
7.99
7.24
6.31
5.25
4.13
3.05
2.11
1.30
0.53
-0.43
-1.80
-3.76
-6.31
-9.31
-12.52
-15.73
-18.84
-21.80
-24.61
-27.17
-29.27
-30.72
-31.39
-31.28
-30.49
-29.18
-27.46
-25.36
-22.88
-20.04
-16.91
-13.67
-10.50
-7.60
-5.12
-3.07
-1.43
-0.05
1.15
2.21
3.12
3.80
4.25
4.57
4.95
5.60
6.64
8.05
9.65
11.29
12.89
14.47
16.08
17.74
19.32
20.66
21.57
21.98
21.95
21.64
21.20
20.74
20.33
20.00
19.82
19.83
20.06
20.48
20.99
21.42
21.55
21.18
20.07
18.04
14.98
10.83
5.65
-0.41
-7.07
-13.98
-20.71
-26.86
-32.01
-35.89
-38.38
-39.52
-39.48
-38.49
-36.77
-34.47
-31.75
-28.76
-25.65
-22.61
-19.82
-17.38
-15.30
-13.53
-11.96
-10.49
-9.07
-7.65
-6.24
-4.84
-3.52
-2.38
-1.46
-0.79
-0.29
0.20
0.91
1.99
3.50
5.36
7.35
9.26
10.89
12.10
12.84
13.09
12.84
12.20
11.27
10.19
9.10
8.08
7.15
6.34
5.70
5.33
5.26
5.49
5.90
6.33
6.65
6.80
6.88
6.92
6.95
6.86
6.50
5.76
4.64
3.28
1.84
0.48
-0.76
-1.87
-2.86
-3.73
-4.49
-5.11
-5.64
-6.10
-6.47
-6.68
-6.65
-6.32
-5.75
-5.06
-4.37
-3.77
-3.26
-2.78
-2.29
-1.72
-1.07
-0.29
0.71
2.01
3.63
5.42
7.14
8.49
9.30
9.55
9.43
9.17
8.98
8.98
9.16
9.46
9.80
10.11
10.34
10.45
10.44
10.30
10.11
9.91
9.77
9.70
9.65
9.57
9.37
9.00
8.37
7.39
5.95
4.04
1.76
-0.75
-3.26
-5.62
-7.75
-9.65
-11.38
-13.03
-14.67
-16.37
-18.11
-19.85
-21.53
-23.07
-24.44
-25.61
-26.56
-27.32
-27.82
-27.97
-27.62
-26.64
-24.95
-22.60
-19.70
-16.45
-13.13
-9.93
-6.99
-4.39
-2.15
-0.28
1.17
2.22
2.90
3.35
3.75
4.31
5.12
6.18
7.40
8.66
9.87
11.00
12.01
12.86
13.45
13.73
13.73
13.56
13.36
13.22
13.11
12.88
12.42
11.65
10.57
9.32
8.03
6.79
5.61
4.47
3.34
2.22
1.17
0.25
-0.49
-1.05
-1.48
-1.85
-2.23
-2.63
-3.00
-3.24
-3.20
-2.74
-1.83
-0.48
1.14
2.82
4.36
5.54
6.29
6.62
6.63
6.44
6.13
5.77
5.40
5.09
4.87
4.82
4.91
5.14
5.45
5.83
6.29
6.85
7.53
8.23
8.82
9.09
8.90
8.23
7.20
5.97
4.69
3.43
2.21
1.03
-0.08
-1.05
-1.87
-2.57
-3.28
-4.16
-5.30
-6.66
-8.11
-9.48
-10.66
-11.68
-12.63
-13.61
-14.63
-15.56
-16.19
-16.32
-15.91
-15.09
-14.13
-13.33
-12.88
-12.82
-12.98
-13.13
-13.03
-12.49
-11.43
-9.85
-7.76
-5.26
-2.52
0.24
2.75
4.78
6.25
7.20
7.82
8.36
9.02
9.91
10.98
12.10
13.14
14.03
14.80
15.50
16.13
16.57
16.69
16.47
16.08
15.82
16.00
16.73
17.82
18.87
19.40
19.19
18.30
17.00
15.60
14.27
12.98
11.54
9.82
7.83
5.72
3.72
1.98
0.52
-0.80
-2.18
-3.72
-5.36
-6.88
-8.05
-8.77
-9.14
-9.32
-9.50
-9.66
-9.65
-9.30
-8.57
-7.56
-6.52
-5.63
-4.92
-4.37
-3.90
-3.53
-3.35
-3.45
-3.85
-4.40
-4.92
-5.21
-5.22
-4.94
-4.35
-3.45
-2.17
-0.55
1.28
3.03
4.42
5.22
5.38
5.03
4.40
3.78
3.40
3.40
3.79
4.47
5.22
5.78
5.90
5.44
4.48
3.23
2.02
1.11
0.67
0.65
0.91
1.25
1.54
1.75
1.93
2.13
2.36
2.51
2.43
1.99
1.19
0.15
-0.89
-1.73
-2.31
-2.74
-3.28
-4.12
-5.31
-6.69
-7.99
-8.99
-9.64
-10.15
-10.79
-11.75
-13.03
-14.44
-15.75
-16.84
-17.74
-18.56
-19.41
-20.25
-20.91
-21.16
-20.94
-20.33
-19.60
-19.03
-18.75
-18.64
-18.35
-17.52
-15.87
-13.38
-10.29
-6.98
-3.86
-1.22
0.76
2.06
2.76
2.99
2.97
2.89
2.94
3.23
3.74
4.37
5.03
5.63
6.10
6.38
6.39
6.12
5.61
5.04
4.67
4.71
5.25
6.14
7.13
7.92
8.37
8.45
8.32
8.12
7.89
7.60
7.15
6.52
5.77
5.04
4.48
4.17
4.08
4.10
4.16
4.20
4.25
4.30
4.34
4.35
4.29
4.17
3.96
3.70
3.36
2.89
2.22
1.31
0.15
-1.29
-2.94
-4.78
-6.69
-8.53
-10.08
-11.15
-11.57
-11.27
-10.28
-8.71
-6.72
-4.56
-2.54
-0.99
-0.19
-0.26
-1.16
-2.70
-4.60
-6.58
-8.43
-10.01
-11.23
-12.04
-12.44
-12.41
-11.98
-11.14
-9.92
-8.32
-6.36
-4.13
-1.74
0.65
2.93
4.95
6.61
7.77
8.39
8.47
8.12
7.46
6.58
5.48
4.05
2.18
-0.16
-2.83
-5.53
-7.89
-9.61
-10.54
-10.68
-10.19
-9.22
-7.96
-6.53
-5.06
-3.66
-2.42
-1.39
-0.58
0.05
0.52
0.76
0.63
-0.02
-1.23
-2.85
-4.55
-5.94
-6.72
-6.70
-5.93
-4.63
-2.95
-1.08
0.92
2.98
5.01
6.84
8.30
9.31
9.89
10.22
10.48
10.79
11.11
11.30
11.25
10.95
10.49
10.03
9.60
9.09
8.33
7.20
5.74
4.23
3.01
2.37
2.41
3.04
4.07
5.35
6.81
8.40
10.10
11.78
13.26
14.30
14.68
14.26
13.10
11.33
9.18
6.88
4.56
2.31
0.13
-1.93
-3.77
-5.29
-6.43
-7.24
-7.85
-8.44
-9.13
-9.93
-10.73
-11.38
-11.81
-12.04
-12.20
-12.46
-12.89
-13.39
-13.75
-13.71
-13.08
-11.80
-9.99
-7.84
-5.54
-3.25
-1.07
0.95
2.75
4.31
5.56
6.47
7.07
7.39
7.56
7.65
7.77
7.93
8.16
8.42
8.69
8.96
9.22
9.46
9.67
9.82
9.83
9.66
9.26
8.65
7.87
7.03
6.23
5.54
4.94
4.35
3.67
2.85
1.93
0.99
0.12
-0.57
-1.06
-1.29
-1.27
-1.02
-0.60
-0.13
0.28
0.50
0.52
0.36
0.12
-0.13
-0.40
-0.73
-1.21
-1.88
-2.76
-3.79
-4.88
-5.97
-6.99
-7.98
-9.01
-10.19
-11.59
-13.22
-14.94
-16.52
-17.68
-18.13
-17.72
-16.47
-14.55
-12.21
-9.73
-7.34
-5.22
-3.43
-1.97
-0.80
0.16
0.98
1.72
2.41
3.05
3.63
4.17
4.74
5.44
6.40
7.65
9.16
10.76
12.22
13.32
13.88
13.89
13.42
12.68
11.87
11.14
10.48
9.86
9.21
8.54
7.98
7.67
7.74
8.17
8.77
9.23
9.30
8.90
8.13
7.23
6.38
5.66
4.96
4.11
2.98
1.60
0.23
-0.81
-1.23
-0.88
0.19
1.80
3.72
5.78
7.83
9.76
11.43
12.76
13.75
14.48
15.13
15.88
16.86
18.05
19.25
20.16
20.46
19.88
18.30
15.78
12.52
8.82
4.95
1.16
-2.45
-5.81
-8.89
-11.69
-14.17
-16.32
-18.16
-19.71
-20.96
-21.83
-22.25
-22.20
-21.74
-21.05
-20.33
-19.80
-19.52
-19.46
-19.53
-19.64
-19.74
-19.82
-19.92
-20.00
-20.07
-20.06
-19.99
-19.88
-19.75
-19.67
-19.67
-19.78
-20.02
-20.41
-20.97
-21.66
-22.43
-23.17
-23.83
-24.39
-24.84
-25.19
-25.41
-25.42
-25.09
-24.24
-22.69
-20.27
-16.91
-12.66
-7.74
-2.46
2.79
7.72
12.10
15.88
19.07
21.67
23.70
25.17
26.19
26.85
27.36
27.79
28.23
28.63
28.89
28.87
28.41
27.43
25.89
23.87
21.51
19.05
16.68
14.53
12.64
10.99
9.55
8.31
7.33
6.57
5.96
5.34
4.57
3.63
2.65
1.86
1.47
1.55
1.97
2.46
2.75
2.72
2.44
2.11
1.93
2.02
2.39
2.96
3.60
4.21
4.71
5.11
5.44
5.84
6.39
7.17
8.23
9.65
11.50
13.93
17.12
21.25
26.47
32.80
40.01
47.55
54.48
59.25
59.79
53.87
39.69
16.52
-14.85
-52.12
-91.90
-130.45
-164.50
-191.66
-210.56
-220.76
-222.52
-216.75
-204.88
-188.68
-169.99
-150.43
-131.22
-113.17
-96.84
-82.61
-70.67
-60.72
-51.86
-42.46
-30.42
-13.70
8.96
37.49
70.31
104.71
137.55
166.11
188.65
204.80
215.31
221.49
224.64
225.68
225.00
222.68
218.81
213.66
207.68
201.18
194.05
185.73
175.54
163.07
148.48
132.35
115.21
97.07
77.22
54.60
28.61
-0.30
-30.49
-59.70
-85.90
-107.83
-125.09
-137.71
-145.73
-148.94
-147.16
-140.62
-130.21
-117.45
-104.05
-91.43
-80.53
-71.82
-65.52
-61.85
-60.90
-62.41
-65.66
-69.44
-72.27
-72.81
-70.17
-63.96
-54.24
-41.31
-25.57
-7.67
11.56
31.09
49.81
66.66
80.92
92.14
100.26
105.41
107.80
107.63
105.10
100.39
93.64
84.95
74.24
61.35
46.22
28.89
9.71
-10.74
-31.75
-52.69
-73.04
-92.46
-110.46
-126.22
-138.62
-146.43
-148.73
-145.25
-136.41
-123.12
-106.59
-87.99
-68.35
-48.70
-30.11
-13.74
-0.64
8.49
13.54
14.95
13.66
10.82
7.49
4.48
2.23
0.85
0.28
0.39
1.13
2.50
4.57
7.30
10.54
13.96
17.19
20.02
22.43
24.63
26.83
29.19
31.58
33.77
35.46
36.40
36.40
35.27
32.87
29.11
24.09
18.10
11.63
5.02
-1.67
-8.72
-16.62
-25.67
-35.69
-45.95
-55.34
-62.77
-67.60
-69.85
-70.11
-69.24
-67.96
-66.55
-64.79
-62.14
-58.05
-52.32
-45.22
-37.37
-29.54
-22.37
-16.27
-11.37
-7.60
-4.67
-2.10
0.74
4.46
9.44
15.59
22.24
28.35
32.80
34.73
33.78
30.04
24.07
16.69
8.92
1.65
-4.64
-10.07
-15.35
-21.36
-28.62
-36.93
-45.27
-52.29
-56.85
-58.48
-57.42
-54.22
-49.37
-42.99
-34.92
-25.14
-13.96
-2.06
9.72
20.74
30.84
40.33
49.69
59.23
68.79
77.81
85.48
90.98
93.65
92.95
88.50
79.97
67.17
50.07
29.00
4.64
-22.00
-49.67
-76.89
-102.03
-123.33
-139.14
-148.03
-149.12
-142.18
-127.67
-106.65
-80.57
-51.07
-19.87
11.50
41.68
69.56
94.34
115.49
132.83
146.41
156.50
163.36
167.26
168.37
166.76
162.55
155.98
147.50
137.79
127.66
118.01
109.66
103.33
99.59
98.81
101.06
106.08
113.26
121.77
130.65
138.98
145.89
150.61
152.44
150.77
145.18
135.56
122.19
105.67
86.92
67.03
47.20
28.54
11.89
-2.34
-14.37
-24.82
-34.53
-44.15
-53.95
-63.72
-73.00
-81.34
-88.46
-94.41
-99.44
-103.93
-108.23
-112.57
-117.01
-121.47
-125.79
-129.92
-133.99
-138.14
-142.43
-146.70
-150.70
-154.25
-157.35
-160.03
-162.09
-162.89
-161.36
-156.44
-147.57
-135.13
-120.25
-104.32
-88.33
-72.30
-55.47
-36.75
-15.42
8.34
33.38
57.95
80.24
98.92
113.31
123.33
129.02
130.13
125.97
115.75
99.05
76.38
49.28
20.19
-8.19
-33.28
-53.16
-66.60
-73.17
-73.20
-67.74
-58.34
-46.80
-34.75
-23.41
-13.53
-5.52
0.50
4.59
7.06
8.44
9.40
10.42
11.70
13.00
13.88
13.96
13.19
11.99
10.99
10.85
11.91
14.23
17.61
21.67
25.96
29.93
33.09
35.21
36.44
37.41
38.92
41.65
45.70
50.48
54.94
58.10
59.53
59.43
58.45
57.13
55.70
53.93
51.49
48.12
43.90
39.08
33.84
28.02
21.13
12.64
2.35
-9.37
-21.81
-34.22
-46.28
-58.30
-71.04
-85.09
-100.37
-115.86
-129.74
-140.00
-144.96
-143.69
-136.13
-122.98
-105.45
-85.11
-63.66
-42.72
-23.65
-7.40
5.55
15.19
21.85
26.17
28.94
30.98
33.02
35.54
38.78
42.70
47.18
52.05
57.15
62.20
66.97
71.22
74.84
77.73
79.77
80.58
79.42
75.28
67.08
54.01
35.93
13.55
-11.67
-37.75
-62.53
-83.99
-100.42
-110.69
-114.24
-111.11
-101.86
-87.36
-68.66
-46.80
-22.85
2.07
26.75
49.92
70.42
87.42
100.50
109.53
114.47
115.04
110.75
101.09
85.90
65.64
41.47
15.06
-11.74
-37.20
-59.95
-78.95
-93.46
-102.98
-107.37
-106.91
-102.36
-94.85
-85.62
-75.71
-65.77
-56.06
-46.57
-37.26
-28.22
-19.75
-12.25
-6.02
-1.14
2.52
5.26
7.35
8.98
10.24
11.19
11.87
12.39
12.81
13.17
13.44
13.55
13.50
13.32
13.10
12.97
13.04
13.33
13.71
14.02
14.13
13.93
13.31
12.03
9.64
5.51
-1.05
-10.55
-23.09
-38.25
-55.25
-73.02
-90.41
-106.13
-118.81
-127.06
-129.73
-126.20
-116.59
-101.84
-83.36
-62.70
-41.20
-19.83
0.74
19.99
37.36
52.29
64.33
73.34
79.46
82.98
84.16
83.11
79.76
74.03
66.02
56.21
45.42
34.69
25.08
17.54
12.70
10.82
11.75
15.04
20.11
26.38
33.49
41.29
49.84
59.22
69.52
80.78
92.95
105.98
119.74
133.97
148.28
162.10
174.77
185.62
193.89
198.73
199.16
194.19
183.03
165.30
141.21
111.56
77.56
40.70
2.55
-35.18
-70.67
-102.08
-127.81
-146.89
-159.15
-165.23
-166.34
-163.78
-158.60
-151.47
-142.75
-132.83
-122.18
-111.36
-100.88
-91.04
-81.88
-73.30
-65.21
-57.54
-50.29
-43.46
-36.96
-30.63
-24.33
-18.00
-11.71
-5.59
0.23
5.67
10.65
15.09
18.99
22.45
25.56
28.30
30.28
30.64
28.20
21.80
10.87
-4.25
-22.22
-41.16
-59.14
-74.73
-87.18
-96.31
-102.23
-105.09
-104.98
-102.09
-96.79
-89.70
-81.54
-72.92
-64.09
-54.91
-45.04
-34.26
-22.62
-10.59
1.23
12.32
22.40
31.51
39.81
47.43
54.36
60.52
65.80
70.13
73.50
75.90
77.43
78.27
78.80
79.56
81.14
84.15
88.95
95.68
104.10
113.72
123.80
133.52
141.98
148.31
151.68
151.41
147.11
138.75
126.70
111.65
94.31
75.19
54.47
32.03
7.85
-17.71
-43.69
-68.66
-90.93
-109.04
-122.06
-129.81
-132.82
-132.08
-128.64
-123.35
-116.66
-108.70
-99.54
-89.41
-78.86
-68.61
-59.33
-51.40
-44.77
-39.13
-34.09
-29.48
-25.34
-21.81
-19.01
-16.85
-15.12
-13.52
-11.80
-9.84
-7.66
-5.33
-2.92
-0.49
1.98
4.47
6.99
9.46
11.80
13.90
15.62
16.89
17.68
18.04
18.11
18.11
18.26
18.66
19.32
20.03
20.57
20.70
20.33
19.48
18.22
16.58
14.57
12.21
9.57
6.87
4.32
2.10
0.21
-1.42
-2.96
-4.50
-6.07
-7.67
-9.31
-11.04
-12.92
-14.98
-17.10
-19.07
-20.52
-21.15
-20.74
-19.24
-16.80
-13.68
-10.20
-6.62
-3.15
0.07
2.99
5.52
7.63
9.29
10.49
11.26
11.68
11.84
11.83
11.74
11.63
11.50
11.31
11.01
10.58
10.09
9.62
9.30
9.17
9.18
9.30
9.44
9.54
9.57
9.48
9.20
8.77
8.27
7.82
7.57
7.52
7.59
7.61
7.44
7.05
6.53
6.00
5.51
5.05
4.54
3.90
3.09
2.14
1.11
0.06
-0.91
-1.71
-2.24
-2.45
-2.29
-1.78
-1.02
-0.17
0.56
0.91
0.57
-0.73
-3.16
-6.80
-11.55
-17.34
-24.16
-32.09
-41.27
-51.76
-63.39
-75.65
-87.69
-98.39
-106.53
-111.02
-111.11
-106.51
-97.54
-85.03
-70.17
-54.25
-38.39
-23.43
-9.84
2.16
12.54
21.49
29.30
36.36
43.03
49.49
55.63
60.98
64.87
66.64
65.98
63.05
58.41
52.87
47.18
41.95
37.52
34.00
31.35
29.40
27.91
26.69
25.62
24.71
24.08
23.85
24.01
24.46
25.12
26.07
27.62
30.26
34.33
39.81
46.20
52.70
58.46
62.91
65.80
67.11
66.83
64.82
60.79
54.45
45.77
35.09
23.08
10.52
-2.08
-14.50
-26.82
-39.14
-51.32
-62.82
-72.78
-80.40
-85.09
-86.82
-85.96
-83.10
-78.82
-73.62
-68.01
-62.60
-58.15
-55.38
-54.86
-56.79
-61.03
-67.13
-74.57
-82.70
-90.76
-97.74
-102.34
-103.28
-99.65
-91.17
-78.18
-61.46
-41.87
-20.22
2.70
26.03
48.63
69.26
86.80
100.45
109.94
115.42
117.19
115.55
110.78
103.10
92.89
80.73
67.38
53.78
40.94
29.74
20.76
14.10
9.30
5.60
2.27
-1.03
-4.03
-6.03
-6.30
-4.52
-0.95
3.58
8.03
11.49
13.39
13.57
12.20
9.62
6.22
2.32
-1.90
-6.39
-11.15
-16.14
-21.20
-25.95
-29.89
-32.51
-33.41
-32.48
-29.91
-25.99
-21.09
-15.43
-9.17
-2.55
4.14
10.64
16.70
22.03
26.40
29.59
31.41
31.79
30.78
28.67
25.97
23.29
21.19
20.10
20.20
21.44
23.62
26.34
29.12
31.49
33.13
33.98
34.30
34.46
34.82
35.55
36.52
37.36
37.57
36.70
34.51
30.95
26.08
20.04
13.13
5.70
-1.78
-8.81
-14.96
-19.89
-23.47
-25.71
-26.71
-26.58
-25.46
-23.58
-21.22
-18.74
-16.45
-14.52
-12.99
-11.75
-10.68
-9.70
-8.84
-8.18
-7.80
-7.73
-7.91
-8.23
-8.56
-8.80
-8.88
-8.74
-8.36
-7.82
-7.14
-6.43
-5.73
-5.12
-4.62
-4.23
-3.92
-3.66
-3.46
-3.30
-3.21
-3.24
-3.47
-3.92
-4.53
-5.19
-5.71
-5.99
-6.00
-5.88
-5.89
-6.25
-7.06
-8.25
-9.62
-10.93
-12.03
-12.75
-12.98
-12.58
-11.43
-9.55
-7.18
-4.73
-2.61
-1.14
-0.30
0.10
0.37
0.76
1.29
1.86
2.32
2.55
2.56
2.42
2.17
1.77
1.19
0.44
-0.23
-0.42
0.26
1.96
4.44
7.07
9.16
10.22
10.20
9.43
8.42
7.57
7.02
6.62
6.18
5.55
4.76
3.92
3.12
2.36
1.52
0.46
-0.90
-2.52
-4.22
-5.78
-7.09
-8.15
-9.10
-10.13
-11.34
-12.76
-14.23
-15.51
-16.34
-16.50
-15.91
-14.66
-12.98
-11.11
-9.27
-7.53
-5.89
-4.26
-2.61
-0.91
0.77
2.34
3.74
4.95
5.92
6.62
7.03
7.11
6.93
6.56
6.13
5.83
5.76
6.01
6.53
7.17
7.68
7.81
7.42
6.51
5.30
4.06
3.03
2.32
1.85
1.50
1.10
0.58
-0.03
-0.65
-1.22
-1.71
-2.15
-2.61
-3.10
-3.59
-4.05
-4.47
-4.86
-5.33
-5.95
-6.74
-7.70
-8.75
-9.79
-10.78
-11.74
-12.65
-13.53
-14.24
-14.62
-14.49
-13.72
-12.34
-10.49
-8.43
-6.36
-4.50
-2.91
-1.57
-0.38
0.81
2.09
3.53
5.09
6.69
8.15
9.31
10.02
10.28
10.18
9.93
9.71
9.65
9.84
10.19
10.61
11.03
11.34
11.54
11.55
11.31
10.76
9.86
8.69
7.39
6.19
5.28
4.72
4.42
4.15
3.72
3.00
2.08
1.13
0.34
-0.20
-0.53
-0.81
-1.25
-1.98
-3.06
-4.40
-5.84
-7.14
-8.14
-8.77
-9.13
-9.41
-9.83
-10.55
-11.54
-12.66
-13.69
-14.46
-14.88
-14.91
-14.56
-13.81
-12.67
-11.14
-9.35
-7.44
-5.58
-3.91
-2.43
-1.09
0.20
1.44
2.61
3.65
4.50
5.16
5.68
6.09
6.38
6.48
6.32
5.93
5.44
5.05
4.95
5.14
5.48
5.70
5.62
5.26
4.78
4.42
4.32
4.48
4.70
4.78
4.56
4.01
3.22
2.30
1.35
0.42
-0.44
-1.24
-1.96
-2.59
-3.17
-3.70
-4.22
-4.79
-5.47
-6.26
-7.15
-8.07
-8.90
-9.56
-10.04
-10.35
-10.60
-10.84
-11.09
-11.27
-11.28
-11.07
-10.74
-10.48
-10.54
-11.04
-11.88
-12.75
-13.21
-12.93
-11.77
-9.91
-7.65
-5.30
-3.00
-0.72
1.61
4.00
6.34
8.44
10.12
11.29
11.98
12.33
12.49
12.59
12.66
12.71
12.70
12.60
12.42
12.19
11.97
11.78
11.60
11.39
11.10
10.71
10.25
9.76
9.27
8.81
8.36
7.87
7.30
6.60
5.76
4.77
3.62
2.31
0.88
-0.63
-2.11
-3.40
-4.38
-4.98
-5.25
-5.36
-5.51
-5.84
-6.35
-6.94
-7.46
-7.85
-8.10
-8.29
-8.50
-8.74
-8.97
-9.19
-9.38
-9.59
-9.87
-10.16
-10.37
-10.34
-9.94
-9.09
-7.84
-6.25
-4.43
-2.50
-0.57
1.22
2.79
4.09
5.19
6.15
7.05
7.87
8.57
9.05
9.30
9.37
9.37
9.38
9.43
9.47
9.47
9.43
9.43
9.55
9.86
10.31
10.75
10.98
10.90
10.49
9.87
9.24
8.71
8.31
8.00
7.63
7.15
6.51
5.72
4.82
3.87
2.92
2.01
1.19
0.49
-0.15
-0.78
-1.50
-2.36
-3.37
-4.51
-5.81
-7.32
-9.11
-11.17
-13.42
-15.77
-18.02
-19.97
-21.43
-22.17
-22.07
-21.05
-19.17
-16.65
-13.83
-11.07
-8.61
-6.54
-4.72
-2.91
-0.86
1.53
4.16
6.66
8.61
9.69
9.80
9.21
8.34
7.60
7.22
7.19
7.30
7.31
7.07
6.64
6.21
5.93
5.89
5.97
5.97
5.70
5.14
4.44
3.83
3.52
3.53
3.72
3.84
3.69
3.21
2.50
1.69
0.92
0.28
-0.27
-0.74
-1.18
-1.63
-2.07
-2.51
-2.94
-3.39
-3.87
-4.46
-5.22
-6.24
-7.48
-8.78
-9.96
-10.89
-11.55
-12.06
-12.58
-13.25
-14.04
-14.81
-15.31
-15.36
-14.90
-14.02
-12.86
-11.60
-10.30
-8.94
-7.52
-6.01
-4.45
-2.88
-1.27
0.43
2.32
4.43
6.64
8.77
10.59
11.91
12.72
13.08
13.06
12.73
12.12
11.29
10.31
9.33
8.51
7.97
7.74
7.75
7.92
8.14
8.30
8.32
8.07
7.47
6.50
5.29
4.01
2.93
2.19
1.83
1.73
1.71
1.60
1.37
1.09
0.86
0.70
0.53
0.17
-0.51
-1.51
-2.70
-3.86
-4.83
-5.55
-6.09
-6.52
-6.95
-7.41
-7.91
-8.52
-9.32
-10.34
-11.49
-12.53
-13.14
-13.10
-12.38
-11.11
-9.53
-7.80
-5.94
-3.88
-1.61
0.81
3.14
5.11
6.54
7.36
7.73
7.87
7.99
8.24
8.64
9.11
9.54
9.83
9.94
9.86
9.66
9.40
9.12
8.86
8.64
8.52
8.50
8.55
8.61
8.51
8.13
7.44
6.56
5.66
4.90
4.34
3.87
3.37
2.72
1.89
0.94
-0.05
-1.05
-2.07
-3.17
-4.44
-5.87
-7.36
-8.81
-10.09
-11.15
-12.00
-12.72
-13.37
-13.97
-14.51
-14.92
-15.17
-15.28
-15.29
-15.24
-15.05
-14.54
-13.53
-11.87
-9.63
-7.03
-4.42
-2.07
-0.14
1.43
2.81
4.16
5.51
6.81
7.93
8.78
9.37
9.76
10.04
10.30
10.57
10.79
10.89
10.77
10.36
9.69
8.87
8.00
7.21
6.47
5.77
5.03
4.25
3.49
2.83
2.31
1.86
1.36
0.66
-0.26
-1.30
-2.26
-2.96
-3.33
-3.46
-3.55
-3.75
-4.22
-4.91
-5.73
-6.55
-7.29
-7.92
-8.46
-8.97
-9.47
-10.02
-10.61
-11.26
-11.90
-12.40
-12.61
-12.36
-11.59
-10.36
-8.83
-7.19
-5.57
-4.07
-2.68
-1.39
-0.19
0.93
1.94
2.84
3.62
4.34
5.04
5.73
6.32
6.70
6.80
6.64
6.41
6.31
6.53
7.10
7.86
8.58
9.00
9.01
8.65
8.06
7.45
6.97
6.63
6.39
6.12
5.71
5.18
4.61
4.12
3.84
3.76
3.81
3.89
3.95
3.99
4.06
4.09
3.98
3.55
2.68
1.40
-0.12
-1.63
-2.91
-3.84
-4.46
-4.90
-5.33
-5.92
-6.73
-7.76
-8.95
-10.20
-11.43
-12.61
-13.72
-14.75
-15.61
-16.18
-16.25
-15.72
-14.57
-12.92
-10.98
-8.95
-6.97
-5.11
-3.35
-1.68
-0.14
1.25
2.46
3.54
4.54
5.52
6.50
7.45
8.28
8.87
9.13
8.99
8.49
7.78
7.03
6.46
6.24
6.38
6.75
7.12
7.30
7.16
6.73
6.10
5.41
4.79
4.28
3.92
3.72
3.65
3.68
3.73
3.71
3.54
3.20
2.69
2.10
1.49
0.91
0.40
-0.06
-0.48
-0.89
-1.34
-1.84
-2.40
-3.02
-3.71
-4.51
-5.47
-6.68
-8.16
-9.84
-11.57
-13.16
-14.38
-15.04
-15.04
-14.40
-13.25
-11.82
-10.34
-8.99
-7.80
-6.76
-5.75
-4.67
-3.48
-2.18
-0.79
0.68
2.20
3.77
5.29
6.66
7.79
8.63
9.17
9.46
9.56
9.51
9.34
9.06
8.67
8.20
7.73
7.29
6.94
6.66
6.43
6.15
5.71
5.08
4.28
3.33
2.33
1.32
0.35
-0.51
-1.21
-1.73
-2.12
-2.44
-2.79
-3.25
-3.80
-4.39
-4.91
-5.33
-5.68
-6.12
-6.84
-7.98
-9.56
-11.41
-13.23
-14.67
-15.40
-15.25
-14.22
-12.51
-10.36
-8.03
-5.74
-3.58
-1.56
0.39
2.32
4.21
6.02
7.64
8.96
9.90
10.44
10.60
10.45
10.05
9.44
8.71
7.98
7.40
7.13
7.23
7.63
8.13
8.50
8.63
8.48
8.14
7.70
7.23
6.76
6.33
5.95
5.65
5.36
4.93
4.17
3.00
1.49
-0.12
-1.50
-2.41
-2.77
-2.71
-2.42
-2.09
-1.83
-1.68
-1.65
-1.74
-1.99
-2.41
-3.00
-3.69
-4.31
-4.64
-4.43
-3.54
-1.94
0.24
2.76
5.35
7.83
10.12
12.24
14.18
15.94
17.46
18.63
19.36
19.62
19.41
18.69
17.45
15.63
13.23
10.33
7.05
3.57
0.05
-3.45
-6.90
-10.28
-13.57
-16.78
-19.89
-22.96
-26.07
-29.19
-32.24
-35.03
-37.35
-39.11
-40.36
-41.21
-41.83
-42.19
-42.12
-41.35
-39.60
-36.72
-32.85
-28.30
-23.63
-19.47
-16.39
-14.77
-14.73
-16.16
-18.82
-22.51
-27.10
-32.57
-38.82
-45.59
-52.27
-58.10
-62.30
-64.37
-64.22
-62.13
-58.67
-54.46
-49.93
-45.27
-40.31
-34.53
-27.10
-17.08
-3.70
13.29
33.32
54.96
76.23
95.17
110.43
121.63
129.20
133.95
136.55
137.12
135.31
130.59
122.73
112.10
99.58
86.26
73.04
60.42
48.52
37.40
27.32
18.82
12.61
9.10
8.12
8.87
10.11
10.71
10.05
8.20
5.76
3.44
1.73
0.71
0.10
-0.42
-1.02
-1.61
-1.95
-1.88
-1.37
-0.60
0.12
0.54
0.51
0.03
-0.82
-1.95
-3.30
-4.83
-6.47
-8.07
-9.48
-10.59
-11.43
-12.18
-13.04
-14.17
-15.57
-17.04
-18.30
-19.08
-19.19
-18.61
-17.39
-15.65
-13.49
-11.02
-8.36
-5.62
-2.91
-0.29
2.18
4.45
6.48
8.22
9.66
10.84
11.76
12.43
12.86
13.02
12.94
12.72
12.44
12.18
11.90
11.50
10.86
9.95
8.85
7.74
6.78
5.99
5.27
4.48
3.49
2.33
1.16
0.11
-0.68
-1.22
-1.60
-1.96
-2.43
-3.07
-3.95
-5.02
-6.30
-7.70
-9.13
-10.51
-11.76
-12.85
-13.77
-14.55
-15.20
-15.69
-15.91
-15.77
-15.19
-14.15
-12.68
-10.83
-8.66
-6.23
-3.72
-1.40
0.33
1.08
0.67
-0.76
-2.76
-4.72
-6.10
-6.64
-6.40
-5.63
-4.65
-3.66
-2.77
-2.03
-1.48
-1.27
-1.50
-2.11
-2.80
-3.12
-2.62
-1.14
1.03
3.29
4.92
5.48
4.93
3.71
2.33
1.25
0.52
0.01
-0.53
-1.17
-1.82
-2.31
-2.55
-2.66
-2.87
-3.42
-4.41
-5.74
-7.17
-8.47
-9.52
-10.31
-10.99
-11.67
-12.44
-13.23
-13.94
-14.39
-14.44
-13.94
-12.78
-10.93
-8.45
-5.53
-2.45
0.51
3.10
5.24
6.98
8.41
9.66
10.77
11.72
12.43
12.81
12.76
12.23
11.19
9.64
7.65
5.30
2.66
-0.27
-3.51
-7.05
-10.79
-14.56
-18.11
-21.19
-23.64
-25.37
-26.37
-26.71
-26.49
-25.85
-24.93
-23.84
-22.63
-21.35
-20.05
-18.81
-17.76
-17.00
-16.49
-16.11
-15.70
-15.15
-14.46
-13.74
-13.17
-12.84
-12.73
-12.73
-12.70
-12.57
-12.35
-12.15
-12.06
-12.13
-12.34
-12.58
-12.78
-12.88
-12.92
-12.90
-12.83
-12.67
-12.33
-11.70
-10.73
-9.39
-7.73
-5.83
-3.83
-1.92
-0.25
1.10
2.19
3.16
4.15
5.21
6.33
7.39
8.34
9.26
10.27
11.47
12.84
14.21
15.36
16.11
16.41
16.35
16.12
15.83
15.52
15.11
14.49
13.56
12.31
10.87
9.44
8.28
7.54
7.25
7.30
7.44
7.42
7.05
6.30
5.28
4.17
3.12
2.25
1.55
0.96
0.40
-0.16
-0.69
-1.11
-1.34
-1.36
-1.28
-1.26
-1.49
-2.06
-2.96
-4.08
-5.23
-6.24
-7.00
-7.41
-7.44
-7.10
-6.41
-5.45
-4.27
-2.94
-1.53
-0.11
1.19
2.26
2.99
3.38
3.53
3.62
3.84
4.26
4.82
5.34
5.62
5.58
5.27
4.85
4.53
4.49
4.75
5.21
5.66
5.89
5.84
5.58
5.33
5.28
5.55
6.06
6.55
6.73
6.37
5.48
4.27
3.01
1.91
1.00
0.06
-1.31
-3.47
-6.58
-10.59
-15.28
-20.46
-25.93
-31.44
-36.64
-41.17
-44.61
-46.66
-47.32
-46.89
-45.93
-44.98
-44.34
-44.09
-44.67
-46.59
-50.30
-56.03
-63.52
-72.11
-80.90
-88.96
-95.66
-101.24
-106.20
-110.98
-115.69
-120.01
-123.29
-124.67
-123.17
-115.55
-100.35
-78.01
-50.74
-21.51
7.52
35.79
63.86
92.01
120.44
147.58
171.16
189.33
201.48
208.11
210.20
206.81
197.04
179.97
154.67
121.33
81.68
38.82
-3.32
-40.96
-71.16
-91.99
-102.82
-104.26
-97.51
-84.00
-65.22
-42.88
-18.87
4.70
26.05
43.75
56.89
65.39
69.95
71.73
71.97
71.50
70.54
68.91
66.24
62.14
56.47
49.33
40.97
31.66
21.64
11.28
1.12
-8.07
-15.52
-20.63
-23.22
-23.55
-22.19
-19.78
-16.74
-13.18
-8.86
-3.39
3.52
11.78
20.79
29.58
37.13
42.71
46.10
47.48
47.19
45.47
42.37
37.82
31.85
24.79
17.19
9.68
2.67
-3.71
-9.54
-14.78
-19.22
-22.46
-24.05
-23.83
-21.95
-18.90
-15.32
-11.82
-8.84
-6.70
-5.67
-5.99
-7.90
-11.45
-16.44
-22.40
-28.64
-34.50
-39.47
-43.27
-45.76
-46.93
-46.75
-45.19
-42.29
-38.17
-33.05
-27.23
-20.99
-14.60
-8.22
-1.91
4.32
10.50
16.66
22.73
28.60
34.07
38.92
42.91
45.80
47.32
47.25
45.43
41.78
36.40
29.57
21.69
13.36
5.20
-2.17
-8.22
-12.54
-14.96
-15.51
-14.38
-11.98
-8.72
-5.06
-1.41
1.93
4.73
6.83
8.13
8.60
8.27
7.25
5.66
3.66
1.42
-0.87
-3.04
-4.88
-6.19
-6.81
-6.59
-5.48
-3.53
-0.86
2.29
5.64
8.89
11.73
13.94
15.41
16.11
16.11
15.55
14.62
13.53
12.45
11.48
10.68
10.08
9.68
9.50
9.51
9.73
10.16
10.82
11.62
12.44
13.08
13.25
12.61
10.87
7.83
3.44
-2.15
-8.61
-15.48
-22.21
-28.29
-33.27
-36.82
-38.75
-38.99
-37.61
-34.71
-30.49
-25.12
-18.85
-11.87
-4.44
3.16
10.66
17.74
24.15
29.62
33.90
36.84
38.34
38.40
37.16
34.79
31.55
27.64
23.20
18.28
12.87
6.90
0.32
-6.91
-14.77
-23.22
-32.12
-41.30
-50.51
-59.37
-67.44
-74.22
-79.24
-82.13
-82.61
-80.53
-75.87
-68.73
-59.34
-48.09
-35.50
-22.24
-9.04
3.40
14.50
23.84
31.24
36.69
40.35
42.48
43.40
43.46
42.98
42.24
41.45
40.72
40.12
39.63
39.26
38.95
38.61
38.11
37.27
35.89
33.79
30.82
26.94
22.21
16.74
10.72
4.34
-2.11
-8.34
-14.05
-18.89
-22.62
-25.08
-26.27
-26.36
-25.65
-24.53
-23.42
-22.76
-22.89
-23.97
-25.95
-28.51
-31.12
-33.15
-34.06
-33.44
-31.17
-27.38
-22.44
-16.75
-10.74
-4.80
0.74
5.55
9.35
11.94
13.24
13.35
12.61
11.52
10.63
10.41
11.24
13.30
16.61
21.10
26.57
32.71
39.08
45.04
49.85
52.77
53.24
51.02
46.24
39.22
30.46
20.51
10.06
-0.11
-9.16
-16.34
-21.08
-23.16
-22.75
-20.31
-16.41
-11.51
-5.96
-0.17
5.33
9.90
12.94
14.06
13.27
10.93
7.54
3.50
-1.11
-6.34
-12.10
-17.97
-23.24
-27.07
-28.83
-28.39
-26.07
-22.46
-18.14
-13.51
-8.94
-5.02
-2.60
-2.47
-5.02
-9.81
-15.57
-20.77
-24.24
-25.58
-25.21
-23.79
-21.71
-18.88
-14.89
-9.53
-3.16
3.29
8.79
12.60
14.50
14.60
13.07
9.95
5.15
-1.38
-9.46
-18.65
-28.26
-37.57
-45.99
-53.18
-58.90
-62.99
-65.32
-65.93
-64.93
-62.56
-59.07
-54.70
-49.72
-44.27
-38.54
-32.83
-27.62
-23.56
-21.36
-21.71
-25.04
-31.54
-40.80
-52.03
-64.29
-76.57
-87.87
-97.13
-103.30
-105.27
-102.10
-92.87
-77.12
-55.01
-27.44
4.13
38.02
72.48
106.24
138.27
168.18
195.66
220.31
241.34
257.81
268.83
273.66
272.16
261.71
240.96
210.11
171.45
128.53
85.24
45.20
8.87
-23.97
-53.57
-79.65
-102.10
-119.75
-132.21
-139.69
-142.91
-142.99
-140.78
-137.01
-132.03
-126.16
-119.73
-113.37
-107.69
-103.09
-99.78
-97.35
-95.13
-92.26
-87.98
-81.82
-73.84
-64.36
-53.90
-43.04
-32.15
-21.43
-11.01
-0.99
8.50
17.15
24.69
30.93
35.74
39.20
41.50
42.93
43.82
44.44
44.96
45.49
46.08
46.73
47.43
48.16
48.87
49.53
50.09
50.50
50.73
50.71
50.40
49.76
48.80
47.58
46.23
44.84
43.54
42.42
41.54
40.91
40.55
40.43
40.51
40.71
40.85
40.75
40.23
39.23
37.75
35.91
33.90
31.94
30.25
28.86
27.61
26.18
24.16
21.06
16.38
9.68
0.71
-10.51
-23.66
-38.03
-52.53
-65.79
-76.33
-82.79
-84.12
-79.84
-69.93
-54.93
-35.91
-14.41
7.63
28.15
45.30
57.71
64.63
66.09
62.67
55.32
45.05
32.77
19.37
5.72
-7.29
-18.94
-28.75
-36.65
-42.80
-47.56
-51.31
-54.35
-56.82
-58.65
-59.67
-59.60
-58.19
-55.31
-50.92
-45.14
-38.26
-30.67
-22.91
-15.52
-8.93
-3.47
0.67
3.59
5.59
7.21
9.06
11.62
15.21
19.99
25.85
32.41
39.04
45.02
49.76
52.79
53.81
52.74
49.73
45.21
39.74
33.95
28.44
23.68
20.04
17.67
16.51
16.35
16.82
17.52
18.13
18.39
18.15
17.42
16.35
15.07
13.77
12.59
11.61
10.93
10.56
10.43
10.47
10.58
10.70
10.76
10.77
10.63
10.32
9.78
8.94
7.80
6.41
4.86
3.29
1.87
0.73
-0.01
-0.27
-0.03
0.74
2.00
3.61
5.38
7.08
8.49
9.43
9.76
9.41
8.41
6.85
4.78
2.30
-0.50
-3.50
-6.60
-9.67
-12.63
-15.40
-17.93
-20.19
-22.16
-23.81
-25.15
-26.15
-26.84
-27.24
-27.42
-27.45
-27.40
-27.27
-27.08
-26.82
-26.44
-25.93
-25.30
-24.66
-24.15
-23.96
-24.30
-25.37
-27.35
-30.33
-34.34
-39.34
-45.22
-51.80
-58.86
-66.14
-73.38
-80.39
-87.00
-93.12
-98.70
-103.74
-108.30
-112.34
-115.80
-118.52
-120.31
-121.00
-120.43
-118.50
-115.23
-110.80
-105.43
-99.41
-93.04
-86.54
-80.04
-73.51
-66.79
-59.56
-51.47
-42.14
-31.30
-18.83
-4.81
10.48
26.62
43.09
59.31
74.79
89.11
101.92
113.03
122.38
129.92
135.66
139.59
141.73
142.11
140.75
137.68
132.93
126.66
119.00
110.17
100.43
90.09
79.44
68.81
58.48
48.70
39.66
31.50
24.29
18.04
12.74
8.33
4.73
1.82
-0.46
-2.20
-3.51
-4.43
-5.03
-5.38
-5.52
-5.55
-5.57
-5.70
-6.05
-6.75
-7.89
-9.52
-11.65
-14.14
-16.81
-19.36
-21.42
-22.54
-22.24
-20.08
-15.75
-9.05
0.01
11.22
24.14
38.12
52.31
65.80
77.58
86.71
92.36
93.92
91.06
83.75
72.28
57.26
39.50
19.99
-0.22
-20.09
-38.63
-55.04
-68.68
-79.13
-86.16
-89.73
-89.92
-86.97
-81.21
-73.08
-63.08
-51.79
-39.81
-27.77
-16.23
-5.71
3.43
10.96
16.80
21.01
23.72
25.16
25.55
25.17
24.23
22.91
21.32
19.50
17.52
15.42
13.31
11.35
9.78
8.88
8.94
10.16
12.69
16.52
21.54
27.46
33.83
40.10
45.66
49.91
52.32
52.56
50.49
46.24
40.19
32.95
25.23
17.85
11.54
6.85
4.11
3.37
4.39
6.67
9.60
12.40
14.47
15.29
14.49
11.92
7.57
1.57
-5.88
-14.60
-24.48
-35.38
-47.15
-59.54
-72.13
-84.31
-95.27
-104.02
-109.53
-110.90
-107.46
-98.97
-85.70
-68.33
-48.02
-26.16
-4.26
16.23
34.14
48.74
59.79
67.52
72.56
75.72
77.85
79.76
82.04
85.01
88.71
92.89
97.10
100.76
103.19
103.78
102.06
97.80
91.07
82.20
71.71
60.20
48.29
36.54
25.45
15.43
6.79
-0.24
-5.59
-9.24
-11.30
-11.98
-11.62
-10.61
-9.40
-8.45
-8.18
-8.96
-11.01
-14.38
-18.89
-24.22
-29.89
-35.40
-40.28
-44.17
-46.95
-48.71
-49.72
-50.34
-51.03
-52.16
-54.03
-56.74
-60.17
-64.09
-68.13
-71.93
-75.21
-77.75
-79.50
-80.50
-80.83
-80.52
-79.60
-77.93
-75.34
-71.53
-66.24
-59.23
-50.44
-40.00
-28.26
-15.74
-3.06
9.17
20.42
30.34
38.77
45.69
51.24
55.64
59.12
61.82
63.79
64.94
65.12
64.19
62.05
58.69
54.20
48.74
42.61
36.14
29.75
23.81
18.67
14.52
11.43
9.40
8.33
8.12
8.67
9.87
11.65
13.94
16.64
19.63
22.74
25.74
28.37
30.32
31.38
31.40
30.39
28.42
25.63
22.21
18.30
14.09
9.75
5.43
1.29
-2.47
-5.70
-8.27
-10.09
-11.18
-11.64
-11.63
-11.34
-10.98
-10.65
-10.40
-10.20
-9.96
-9.62
-9.12
-8.50
-7.86
-7.35
-7.09
-7.08
-7.21
-7.35
-7.38
-7.29
-7.19
-7.25
-7.58
-8.21
-9.15
-10.37
-11.86
-13.58
-15.35
-16.82
-17.59
-17.44
-16.50
-15.30
-14.55
-14.80
-16.19
-18.38
-20.72
-22.62
-23.82
-24.42
-24.75
-25.12
-25.63
-26.19
-26.58
-26.65
-26.35
-25.74
-24.86
-23.68
-22.04
-19.78
-16.85
-13.37
-9.62
-5.95
-2.66
0.08
2.22
3.81
4.93
5.63
5.99
6.14
6.27
6.59
7.24
8.16
9.08
9.72
9.82
9.38
8.62
7.89
7.54
7.76
8.49
9.52
10.52
11.09
10.86
9.53
7.09
3.75
0.03
-3.45
-6.20
-7.99
-8.90
-9.17
-9.06
-8.75
-8.35
-7.97
-7.75
-7.87
-8.48
-9.58
-11.01
-12.47
-13.64
-14.26
-14.29
-13.90
-13.29
-12.69
-12.20
-11.77
-11.31
-10.71
-9.97
-9.10
-8.15
-7.14
-6.05
-4.92
-3.81
-2.78
-1.88
-1.07
-0.27
0.53
1.26
1.78
1.98
1.87
1.54
1.15
0.73
0.26
-0.41
-1.39
-2.65
-4.02
-5.28
-6.23
-6.80
-7.06
-7.13
-7.14
-7.13
-7.08
-6.98
-6.81
-6.60
-6.37
-6.15
-5.95
-5.73
-5.50
-5.32
-5.25
-5.36
-5.65
-6.00
-6.24
-6.20
-5.69
-4.68
-3.21
-1.44
0.44
2.20
3.69
4.84
5.69
6.34
6.88
7.36
7.76
8.03
8.16
8.22
8.32
8.59
9.03
9.54
9.86
9.79
9.16
8.01
6.51
4.86
3.31
2.08
1.38
1.45
2.46
4.36
6.87
9.45
11.49
12.54
12.46
11.48
10.02
8.58
7.46
6.79
6.51
6.48
6.54
6.54
6.39
6.02
5.42
4.66
3.84
3.11
2.53
2.13
1.84
1.51
0.95
-0.01
-1.42
-3.27
-5.40
-7.62
-9.69
-11.44
-12.74
-13.56
-13.96
-14.10
-14.17
-14.36
-14.82
-15.68
-17.10
-19.32
-22.55
-26.85
-32.00
-37.47
-42.60
-46.83
-49.90
-51.93
-53.29
-54.33
-55.31
-56.22
-56.95
-57.37
-57.44
-57.24
-56.88
-56.50
-56.19
-56.04
-56.08
-56.30
-56.72
-57.40
-58.45
-59.94
-61.81
-63.76
-65.19
-65.32
-63.39
-58.79
-51.20
-40.54
-26.80
-10.00
9.80
32.39
57.21
83.26
109.21
133.59
154.95
172.01
183.59
188.60
186.02
174.98
155.07
126.69
91.26
51.17
9.45
-30.72
-66.58
-96.14
-118.29
-132.68
-139.43
-138.96
-131.81
-118.79
-101.01
-79.90
-57.16
-34.49
-13.34
5.29
20.85
33.12
42.15
48.05
51.04
51.48
49.84
46.77
43.02
39.27
36.07
33.77
32.51
32.25
32.87
34.21
36.10
38.39
40.86
43.30
45.41
46.97
47.78
47.81
47.18
46.17
45.11
44.39
44.35
45.21
47.12
50.08
54.04
58.86
64.29
70.03
75.70
80.86
85.07
87.90
88.99
88.11
85.18
80.28
73.60
65.45
56.16
46.08
35.57
25.04
14.89
5.50
-2.82
-9.86
-15.52
-19.80
-22.70
-24.28
-24.63
-23.86
-22.16
-19.76
-16.90
-13.84
-10.79
-7.93
-5.41
-3.35
-1.79
-0.74
-0.19
-0.10
-0.43
-1.13
-2.15
-3.45
-5.00
-6.73
-8.57
-10.43
-12.19
-13.73
-14.95
-15.79
-16.19
-16.15
-15.65
-14.77
-13.56
-12.14
-10.65
-9.24
-8.05
-7.17
-6.69
-6.65
-7.04
-7.87
-9.12
-10.76
-12.77
-15.08
-17.62
-20.35
-23.18
-26.08
-29.02
-31.98
-34.87
-37.59
-40.02
-42.01
-43.47
-44.33
-44.56
-44.20
-43.29
-41.89
-40.06
-37.87
-35.38
-32.69
-29.87
-27.02
-24.24
-21.59
-19.14
-16.93
-14.98
-13.32
-11.97
-10.89
-10.05
-9.38
-8.79
-8.23
-7.70
-7.19
-6.71
-6.27
-5.84
-5.38
-4.84
-4.23
-3.59
-2.99
-2.46
-1.99
-1.55
-1.07
-0.54
0.05
0.68
1.30
1.88
2.39
2.82
3.13
3.29
3.26
3.04
2.64
2.09
1.48
0.86
0.29
-0.17
-0.53
-0.79
-0.99
-1.16
-1.30
-1.40
-1.46
-1.43
-1.29
-1.01
-0.59
-0.02
0.65
1.38
2.12
2.84
3.52
4.15
4.73
5.23
5.64
5.93
6.10
6.17
6.20
6.22
6.30
6.44
6.64
6.89
7.16
7.43
7.69
7.91
8.05
8.08
7.99
7.75
7.35
6.79
6.01
4.95
3.55
1.79
-0.32
-2.69
-5.23
-7.82
-10.43
-13.07
-15.76
-18.53
-21.35
-24.19
-26.99
-29.77
-32.55
-35.42
-38.41
-41.48
-44.58
-47.62
-50.48
-53.08
-55.33
-57.05
-58.00
-57.95
-56.67
-54.08
-50.22
-45.27
-39.46
-33.05
-26.29
-19.44
-12.76
-6.51
-0.91
3.84
7.67
10.57
12.64
14.03
14.91
15.41
15.63
15.65
15.54
15.34
15.04
14.61
13.99
13.05
11.70
9.88
7.60
4.94
2.06
-0.87
-3.62
-6.00
-7.85
-9.03
-9.49
-9.19
-8.17
-6.53
-4.37
-1.87
0.78
3.44
5.94
8.17
10.09
11.69
13.02
14.20
15.36
16.60
18.06
19.81
21.87
24.20
26.73
29.31
31.80
34.05
35.93
37.36
38.32
38.80
38.86
38.59
38.08
37.41
36.65
35.84
34.97
34.05
33.03
31.92
30.70
29.37
27.95
26.43
24.82
23.12
21.31
19.36
17.24
14.87
12.22
9.27
6.02
2.51
-1.19
-5.02
-8.92
-12.87
-16.89
-21.00
-25.17
-29.36
-33.49
-37.42
-40.89
-43.58
-45.13
-45.14
-43.23
-39.11
-32.67
-23.95
-13.24
-1.02
12.15
25.59
38.73
51.09
62.41
72.56
81.59
89.61
96.70
102.88
107.94
111.47
112.85
111.46
106.70
98.13
85.65
69.57
50.63
29.92
8.72
-11.64
-29.89
-44.99
-56.24
-63.32
-66.29
-65.57
-61.82
-55.79
-48.25
-39.89
-31.35
-23.16
-15.84
-9.82
-5.50
-3.19
-3.11
-5.33
-9.83
-16.40
-24.70
-34.27
-44.53
-54.90
-64.79
-73.68
-81.21
-87.18
-91.59
-94.53
-96.20
-96.79
-96.40
-95.01
-92.43
-88.40
-82.52
-74.41
-63.78
-50.53
-34.83
-17.10
1.97
21.43
40.17
57.07
71.16
81.80
88.70
92.04
92.40
90.72
88.10
85.61
84.24
84.78
87.76
93.30
101.07
110.34
120.06
129.00
135.88
139.64
139.50
135.11
126.58
114.39
99.35
82.45
64.81
47.61
31.89
18.48
7.92
0.50
-3.70
-4.76
-2.89
1.63
8.46
17.14
27.04
37.38
47.34
56.09
62.90
67.05
67.94
65.08
58.19
47.28
32.70
15.18
-4.32
-24.67
-44.85
-64.04
-81.71
-97.54
-111.38
-123.19
-133.00
-140.91
-147.05
-151.52
-154.39
-155.70
-155.45
-153.64
-150.33
-145.66
-139.81
-132.95
-125.22
-116.79
-107.79
-98.41
-88.86
-79.26
-69.73
-60.30
-50.95
-41.71
-32.58
-23.61
-14.88
-6.47
1.56
9.10
16.12
22.56
28.36
33.51
37.96
41.65
44.49
46.42
47.45
47.71
47.39
46.74
45.98
45.21
44.46
43.62
42.66
41.59
40.52
39.60
38.95
38.61
38.55
38.68
38.93
39.24
39.56
39.84
40.02
40.00
39.71
39.08
38.07
36.65
34.75
32.30
29.26
25.66
21.62
17.30
12.86
8.41
4.02
-0.22
-4.17
-7.54
-10.04
-11.49
-11.93
-11.65
-11.05
-10.48
-10.14
-9.96
-9.82
-9.55
-9.07
-8.41
-7.69
-7.10
-6.77
-6.81
-7.19
-7.83
-8.55
-9.15
-9.48
-9.49
-9.24
-8.80
-8.22
-7.51
-6.59
-5.38
-3.88
-2.11
-0.20
1.66
3.28
4.47
5.01
4.80
3.85
2.38
0.84
-0.23
-0.43
0.35
1.82
3.40
4.53
4.83
4.36
3.42
2.40
1.54
0.84
0.13
-0.82
-2.09
-3.68
-5.47
-7.31
-9.12
-10.87
-12.49
-13.96
-15.21
-16.07
-16.47
-16.28
-15.50
-14.25
-12.79
-11.38
-10.28
-9.52
-8.98
-8.44
-7.72
-6.69
-5.42
-4.06
-2.81
-1.85
-1.22
-0.85
-0.60
-0.34
0.03
0.47
0.88
1.14
1.20
1.11
1.01
1.01
1.15
1.38
1.60
1.76
1.80
1.69
1.35
0.75
-0.12
-1.14
-2.06
-2.63
-2.67
-2.24
-1.59
-1.07
-0.92
-1.25
-1.94
-2.79
-3.61
-4.27
-4.78
-5.19
-5.53
-5.80
-5.94
-5.89
-5.77
-5.80
-6.22
-7.17
-8.50
-9.81
-10.56
-10.29
-8.84
-6.40
-3.47
-0.57
1.96
4.02
5.70
7.15
8.47
9.62
10.48
10.91
10.86
10.35
9.55
8.64
7.82
7.25
6.97
6.95
7.05
7.10
6.94
6.50
5.83
5.03
4.23
3.52
2.94
2.48
2.10
1.76
1.38
0.90
0.28
-0.45
-1.16
-1.66
-1.79
-1.48
-0.79
0.14
1.19
2.33
3.56
4.90
6.25
7.40
8.08
8.03
7.11
5.32
2.78
-0.35
-3.87
-7.58
-11.15
-14.25
-16.62
-18.11
-18.81
-18.88
-18.56
-17.90
-16.93
-15.57
-13.81
-11.70
-9.35
-6.88
-4.31
-1.66
1.08
3.82
6.41
8.70
10.57
11.99
12.93
13.38
13.27
12.54
11.23
9.46
7.49
5.55
3.86
2.46
1.30
0.27
-0.78
-1.96
-3.34
-4.96
-6.85
-8.95
-11.17
-13.34
-15.31
-16.96
-18.22
-19.13
-19.67
-19.85
-19.59
-18.86
-17.67
-16.09
-14.25
-12.28
-10.21
-8.06
-5.81
-3.48
-1.19
0.91
2.66
3.95
4.76
5.18
5.35
5.44
5.64
6.08
6.82
7.83
8.94
9.92
10.52
10.57
10.07
9.11
7.87
6.43
4.82
2.93
0.67
-1.95
-4.81
-7.65
-10.16
-12.14
-13.52
-14.38
-14.85
-15.01
-14.87
-14.44
-13.70
-12.75
-11.74
-10.76
-9.82
-8.81
-7.54
-5.87
-3.78
-1.46
0.81
2.75
4.19
5.14
5.70
6.02
6.22
6.41
6.67
7.06
7.60
8.23
8.81
9.16
9.15
8.77
8.17
7.57
7.16
7.04
7.18
7.44
7.62
7.57
7.24
6.67
6.00
5.36
4.87
4.54
4.29
4.03
3.68
3.21
2.61
1.84
0.79
-0.65
-2.55
-4.84
-7.34
-9.88
-12.39
-14.98
-17.82
-21.00
-24.38
-27.61
-30.18
-31.70
-31.95
-31.02
-29.09
-26.42
-23.23
-19.75
-16.23
-12.95
-10.11
-7.75
-5.77
-3.94
-2.08
-0.11
1.92
3.95
5.86
7.56
8.97
10.02
10.70
11.15
11.58
12.21
13.11
14.13
14.94
15.24
14.82
13.76
12.29
10.72
9.35
8.31
7.59
7.04
6.51
5.90
5.28
4.80
4.65
4.96
5.67
6.59
7.49
8.17
8.54
8.59
8.33
7.74
6.75
5.37
3.64
1.71
-0.19
-1.90
-3.30
-4.33
-5.00
-5.35
-5.43
-5.31
-5.02
-4.56
-3.91
-3.03
-1.90
-0.59
0.78
1.98
2.82
3.18
3.03
2.47
1.59
0.55
-0.51
-1.47
-2.24
-2.74
-2.92
-2.75
-2.24
-1.38
-0.18
1.30
2.94
4.56
5.95
6.92
7.39
7.41
7.09
6.64
6.18
5.78
5.42
5.04
4.55
3.95
3.27
2.65
2.19
2.01
2.11
2.42
2.80
3.07
3.09
2.81
2.33
1.72
1.13
0.59
0.09
-0.45
-1.14
-2.07
-3.28
-4.80
-6.66
-8.76
-10.94
-12.94
-14.46
-15.27
-15.25
-14.43
-12.95
-10.98
-8.71
-6.28
-3.87
-1.58
0.47
2.25
3.77
5.07
6.14
6.96
7.53
7.85
8.06
8.28
8.62
9.12
9.73
10.35
10.85
11.08
10.96
10.48
9.66
8.61
7.50
6.51
5.81
5.43
5.31
5.29
5.17
4.81
4.15
3.25
2.18
1.10
0.11
-0.70
-1.29
-1.66
-1.92
-2.16
-2.56
-3.25
-4.31
-5.71
-7.33
-8.95
-10.30
-11.09
-11.10
-10.24
-8.63
-6.56
-4.43
-2.57
-1.17
-0.19
0.52
1.13
1.71
2.22
2.55
2.63
2.51
2.37
2.42
2.76
3.36
4.01
4.49
4.68
4.62
4.49
4.50
4.71
5.05
5.29
5.24
4.84
4.17
3.39
2.67
2.06
1.48
0.83
0.05
-0.84
-1.73
-2.52
-3.14
-3.58
-3.90
-4.17
-4.46
-4.84
-5.36
-5.98
-6.54
-6.77
-6.44
-5.48
-4.04
-2.45
-1.14
-0.32
-0.03
-0.02
0.02
0.29
0.79
1.40
1.96
2.37
2.67
2.96
3.28
3.61
3.86
3.92
3.72
3.31
2.77
2.24
1.82
1.55
1.44
1.42
1.42
1.33
1.08
0.68
0.23
-0.11
-0.26
-0.22
-0.14
-0.21
-0.58
-1.23
-2.01
-2.70
-3.18
-3.45
-3.64
-3.94
-4.45
-5.14
-5.89
-6.56
-7.01
-7.20
-7.14
-6.83
-6.28
-5.49
-4.49
-3.37
-2.27
-1.34
-0.66
-0.19
0.21
0.68
1.32
2.11
2.91
3.52
3.80
3.75
3.49
3.25
3.19
3.38
3.72
4.09
4.32
4.38
4.28
4.12
3.93
3.72
3.42
2.99
2.44
1.87
1.38
1.06
0.88
0.76
0.57
0.25
-0.25
-0.84
-1.45
-1.98
-2.37
-2.63
-2.80
-2.95
-3.17
-3.49
-3.95
-4.50
-5.08
-5.60
-5.94
-6.00
-5.71
-5.01
-3.91
-2.48
-0.84
0.91
2.64
4.32
5.88
7.28
8.44
9.29
9.75
9.83
9.57
9.07
8.42
7.72
7.01
6.34
5.71
5.10
4.46
3.70
2.78
1.71
0.60
-0.38
-1.08
-1.45
-1.52
-1.41
-1.22
-1.01
-0.79
-0.60
-0.44
-0.37
-0.46
-0.77
-1.29
-1.97
-2.73
-3.44
-4.02
-4.40
-4.55
-4.48
-4.28
-4.04
-3.89
-3.92
-4.20
-4.72
-5.44
-6.24
-6.96
-7.40
-7.40
-6.87
-5.81
-4.35
-2.67
-0.95
0.62
1.90
2.85
3.47
3.83
4.01
4.08
4.08
4.05
3.97
3.86
3.72
3.51
3.15
2.52
1.63
0.59
-0.37
-1.01
-1.19
-0.97
-0.51
-0.04
0.31
0.58
0.86
1.20
1.58
1.92
2.11
2.14
2.12
2.16
2.32
2.55
2.66
2.43
1.78
0.72
-0.56
-1.82
-2.87
-3.66
-4.23
-4.71
-5.22
-5.79
-6.42
-7.07
-7.71
-8.33
-8.90
-9.34
-9.53
-9.40
-8.92
-8.13
-7.09
-5.87
-4.48
-2.93
-1.24
0.53
2.29
3.92
5.34
6.46
7.24
7.67
7.76
7.59
7.25
6.88
6.64
6.62
6.86
7.29
7.74
8.04
8.04
7.70
7.11
6.46
5.90
5.55
5.41
5.36
5.28
5.11
4.80
4.36
3.80
3.10
2.29
1.41
0.53
-0.29
-1.03
-1.72
-2.44
-3.23
-4.02
-4.62
-4.80
-4.36
-3.27
-1.73
-0.02
1.53
2.71
3.43
3.75
3.79
3.65
3.48
3.36
3.37
3.58
3.93
4.29
4.47
4.31
3.74
2.85
1.81
0.88
0.24
0.01
0.15
0.55
0.96
1.19
1.06
0.54
-0.24
-1.03
-1.59
-1.75
-1.55
-1.15
-0.74
-0.46
-0.36
-0.40
-0.57
-0.85
-1.23
-1.70
-2.19
-2.62
-2.94
-3.16
-3.39
-3.76
-4.36
-5.18
-6.10
-6.96
-7.57
-7.81
-7.65
-7.09
-6.18
-4.96
-3.44
-1.69
0.18
2.01
3.59
4.79
5.58
6.04
6.29
6.43
6.43
6.24
5.80
5.11
4.30
3.47
2.73
2.15
1.72
1.41
1.18
0.99
0.84
0.71
0.61
0.52
0.43
0.31
0.14
-0.06
-0.27
-0.45
-0.56
-0.63
-0.69
-0.77
-0.88
-0.99
-1.07
-1.15
-1.29
-1.60
-2.20
-3.10
-4.24
-5.43
-6.47
-7.18
-7.48
-7.34
-6.83
-6.03
-5.00
-3.83
-2.59
-1.38
-0.27
0.71
1.55
2.28
2.92
3.46
3.83
3.98
3.92
3.70
3.37
2.98
2.57
2.13
1.69
1.28
0.95
0.75
0.70
0.79
0.93
1.06
1.06
0.91
0.58
0.06
-0.61
-1.38
-2.17
-2.85
-3.29
-3.35
-2.98
-2.24
-1.38
-0.76
-0.70
-1.39
-2.76
-4.48
-6.07
-7.13
-7.43
-7.00
-6.07
-4.90
-3.68
-2.48
-1.28
-0.10
1.02
1.92
2.49
2.71
2.70
2.65
2.69
2.86
3.07
3.17
3.09
2.89
2.72
2.76
3.07
3.56
4.00
4.08
3.62
2.64
1.30
-0.11
-1.32
-2.22
-2.77
-3.06
-3.16
-3.08
-2.83
-2.38
-1.78
-1.19
-0.76
-0.60
-0.73
-1.07
-1.45
-1.79
-2.02
-2.18
-2.40
-2.73
-3.20
-3.71
-4.08
-4.14
-3.76
-2.93
-1.78
-0.51
0.66
1.60
2.29
2.81
3.30
3.86
4.51
5.21
5.82
6.22
6.29
5.96
5.23
4.19
3.03
1.99
1.25
0.93
1.03
1.39
1.84
2.26
2.59
2.87
3.16
3.50
3.85
4.21
4.50
4.70
4.77
4.69
4.43
4.01
3.45
2.82
2.22
1.69
1.25
0.83
0.29
-0.48
-1.51
-2.71
-3.88
-4.80
-5.30
-5.39
-5.19
-4.94
-4.86
-5.06
-5.53
-6.14
-6.75
-7.22
-7.46
-7.43
-7.12
-6.54
-5.74
-4.79
-3.78
-2.81
-1.90
-1.03
-0.14
0.81
1.79
2.72
3.54
4.25
4.94
5.72
6.59
7.47
8.15
8.50
8.50
8.29
8.11
8.10
8.21
8.23
7.90
7.12
5.94
4.55
3.24
2.15
1.35
0.75
0.25
-0.23
-0.67
-1.04
-1.27
-1.36
-1.38
-1.41
-1.51
-1.69
-1.90
-2.04
-2.05
-1.95
-1.84
-1.84
-2.02
-2.33
-2.69
-3.03
-3.32
-3.66
-4.16
-4.86
-5.77
-6.72
-7.53
-8.06
-8.18
-7.88
-7.20
-6.19
-4.94
-3.55
-2.13
-0.82
0.33
1.28
2.04
2.65
3.18
3.66
4.12
4.58
5.02
5.43
5.75
5.94
6.01
5.94
5.74
5.37
4.83
4.12
3.29
2.47
1.79
1.36
1.20
1.20
1.21
1.10
0.79
0.28
-0.33
-0.97
-1.57
-2.15
-2.73
-3.29
-3.78
-4.08
-4.13
-3.91
-3.53
-3.17
-3.02
-3.16
-3.56
-4.12
-4.68
-5.13
-5.39
-5.45
-5.32
-5.02
-4.54
-3.83
-2.86
-1.59
-0.05
1.65
3.37
4.92
6.18
7.05
7.53
7.67
7.51
7.08
6.46
5.69
4.86
4.04
3.31
2.70
2.22
1.84
1.52
1.24
0.94
0.58
0.11
-0.44
-1.02
-1.51
-1.86
-2.08
-2.28
-2.59
-3.06
-3.62
-4.13
-4.43
-4.49
-4.37
-4.17
-3.94
-3.67
-3.30
-2.84
-2.35
-2.00
-1.97
-2.37
-3.17
-4.28
-5.47
-6.48
-7.06
-7.04
-6.38
-5.20
-3.69
-2.06
-0.45
1.10
2.58
3.99
5.25
6.25
6.95
7.37
7.64
7.90
8.25
8.65
8.91
8.89
8.52
7.90
7.24
6.76
6.54
6.54
6.64
6.71
6.70
6.65
6.62
6.63
6.60
6.39
5.87
4.96
3.74
2.32
0.87
-0.49
-1.66
-2.62
-3.41
-4.09
-4.69
-5.23
-5.70
-6.04
-6.22
-6.22
-6.03
-5.65
-5.13
-4.50
-3.87
-3.36
-3.07
-3.07
-3.37
-3.90
-4.53
-5.08
-5.36
-5.20
-4.53
-3.36
-1.87
-0.32
1.00
1.91
2.37
2.44
2.26
1.99
1.80
1.77
1.97
2.38
2.88
3.32
3.47
3.22
2.57
1.69
0.80
0.07
-0.45
-0.86
-1.25
-1.67
-2.04
-2.23
-2.12
-1.73
-1.13
-0.48
0.17
0.84
1.55
2.26
2.87
3.22
3.21
2.89
2.44
2.05
1.86
1.81
1.78
1.59
1.21
0.67
0.09
-0.42
-0.84
-1.19
-1.51
-1.80
-2.07
-2.30
-2.53
-2.81
-3.13
-3.47
-3.70
-3.70
-3.39
-2.78
-1.92
-0.92
0.13
1.14
2.04
2.80
3.40
3.83
4.10
4.21
4.12
3.75
3.08
2.14
1.13
0.32
0.00
0.32
1.23
2.50
3.78
4.74
5.22
5.23
4.90
4.43
3.99
3.62
3.19
2.52
1.37
-0.33
-2.38
-4.37
-5.89
-6.63
-6.64
-6.14
-5.43
-4.76
-4.27
-3.97
-3.94
-4.28
-5.05
-6.18
-7.38
-8.26
-8.52
-8.18
-7.59
-7.20
-7.32
-7.88
-8.47
-8.56
-7.79
-6.23
-4.27
-2.49
-1.28
-0.67
-0.27
0.34
1.40
2.77
4.02
4.82
5.07
4.98
4.90
4.96
4.96
4.61
3.72
2.51
1.50
1.27
2.08
3.65
5.40
6.74
7.41
7.53
7.39
7.20
6.96
6.52
5.80
4.94
4.21
3.84
3.88
4.04
3.94
3.26
2.01
0.59
-0.44
-0.67
-0.10
0.75
1.03
0.09
-2.21
-5.33
-8.27
-10.07
-10.35
-9.40
-7.97
-6.81
-6.20
-5.95
-5.57
-4.67
-3.20
-1.52
-0.09
0.73
0.92
0.71
0.47
0.43
0.61
0.82
0.84
0.54
-0.04
-0.69
-1.18
-1.42
-1.43
-1.36
-1.37
-1.53
-1.80
-2.10
-2.34
-2.46
-2.43
-2.26
-1.95
-1.53
-1.09
-0.67
-0.34
-0.11
-0.01
-0.07
-0.31
-0.71
-1.21
-1.76
-2.28
-2.78
-3.31
-3.96
-4.76
-5.69
-6.64
-7.48
-8.11
-8.55
-8.81
-8.90
-8.74
-8.27
-7.47
-6.40
-5.21
-4.02
-2.90
-1.88
-0.89
0.04
0.89
1.60
2.16
2.66
3.17
3.75
4.32
4.67
4.63
4.13
3.30
2.42
1.80
1.58
1.73
1.95
1.89
1.31
0.15
-1.43
-3.13
-4.62
-5.64
-6.01
-5.60
-4.37
-2.36
0.23
3.00
5.39
6.94
7.45
7.09
6.33
5.73
5.60
5.91
6.37
6.59
6.38
5.85
5.29
4.97
4.81
4.47
3.42
1.50
-0.96
-3.16
-4.30
-3.98
-2.48
-0.53
1.06
1.88
2.08
2.10
2.33
2.78
3.09
2.89
1.98
0.58
-0.91
-2.13
-2.92
-3.38
-3.66
-3.86
-3.85
-3.45
-2.56
-1.30
-0.02
0.95
1.40
1.44
1.36
1.53
2.12
3.07
4.16
5.21
6.22
7.36
8.75
10.29
11.63
12.23
11.75
10.18
7.89
5.47
3.37
1.85
0.86
0.16
-0.46
-1.14
-1.89
-2.65
-3.44
-4.33
-5.33
-6.48
-7.74
-9.01
-10.16
-11.13
-11.89
-12.49
-13.05
-13.66
-14.35
-15.05
-15.63
-15.91
-15.71
-14.93
-13.49
-11.49
-9.11
-6.62
-4.29
-2.30
-0.62
0.90
2.51
4.36
6.43
8.56
10.52
12.17
13.46
14.46
15.26
15.87
16.31
16.58
16.77
16.96
17.25
17.59
17.77
17.47
16.37
14.38
11.74
8.98
6.64
5.11
4.36
4.02
3.60
2.79
1.59
0.21
-1.05
-2.07
-2.92
-3.82
-4.93
-6.23
-7.57
-8.71
-9.52
-9.99
-10.27
-10.57
-11.05
-11.84
-12.89
-14.05
-15.08
-15.75
-15.92
-15.58
-14.83
-13.80
-12.59
-11.19
-9.62
-7.92
-6.19
-4.60
-3.25
-2.17
-1.20
-0.18
1.01
2.35
3.65
4.68
5.33
5.62
5.71
5.79
5.95
6.14
6.26
6.18
5.92
5.59
5.34
5.26
5.32
5.39
5.35
5.10
4.67
4.12
3.51
2.84
2.16
1.50
0.92
0.46
0.09
-0.30
-0.83
-1.62
-2.70
-3.94
-5.15
-6.17
-6.88
-7.22
-7.17
-6.67
-5.75
-4.58
-3.42
-2.58
-2.20
-2.07
-1.63
-0.31
2.15
5.43
8.69
11.04
12.00
11.75
11.10
10.85
11.40
12.47
13.30
13.15
11.80
9.62
7.33
5.55
4.46
3.78
3.06
1.96
0.55
-0.84
-1.82
-2.16
-1.97
-1.57
-1.31
-1.39
-1.81
-2.40
-2.94
-3.27
-3.33
-3.18
-2.92
-2.65
-2.41
-2.21
-2.01
-1.85
-1.74
-1.67
-1.63
-1.58
-1.57
-1.72
-2.18
-3.00
-4.06
-5.09
-5.81
-6.09
-6.02
-5.88
-5.94
-6.27
-6.67
-6.74
-6.15
-4.76
-2.74
-0.48
1.61
3.27
4.44
5.24
5.86
6.39
6.82
7.05
7.00
6.66
6.14
5.62
5.23
5.01
4.88
4.73
4.46
4.04
3.57
3.19
3.04
3.20
3.61
4.15
4.59
4.73
4.48
3.85
2.98
2.06
1.32
0.86
0.79
1.08
1.67
2.43
3.21
3.85
4.20
4.24
3.97
3.51
2.93
2.27
1.53
0.70
-0.22
-1.19
-2.14
-3.01
-3.81
-4.55
-5.26
-5.94
-6.57
-7.14
-7.63
-8.02
-8.28
-8.29
-7.94
-7.07
-5.56
-3.41
-0.74
2.21
5.20
8.01
10.55
12.81
14.78
16.49
17.86
18.85
19.39
19.49
19.15
18.39
17.19
15.55
13.51
11.17
8.66
6.09
3.46
0.72
-2.15
-5.11
-8.00
-10.64
-12.84
-14.55
-15.79
-16.61
-17.07
-17.17
-16.95
-16.52
-16.09
-15.81
-15.78
-15.90
-16.06
-16.20
-16.38
-16.81
-17.68
-19.06
-20.82
-22.74
-24.63
-26.53
-28.79
-31.90
-36.33
-42.34
-49.87
-58.58
-67.76
-76.50
-83.74
-88.45
-89.80
-87.32
-80.90
-70.75
-57.35
-41.35
-23.56
-4.94
13.43
30.50
45.36
57.45
66.52
72.68
76.25
77.72
77.62
76.44
74.58
72.17
69.18
65.52
61.18
56.35
51.32
46.47
42.03
38.08
34.47
30.98
27.47
23.94
20.51
17.37
14.62
12.27
10.22
8.35
6.57
4.91
3.42
2.19
1.25
0.56
0.00
-0.53
-1.11
-1.76
-2.46
-3.15
-3.76
-4.27
-4.68
-5.06
-5.51
-6.11
-6.93
-7.93
-9.03
-10.05
-10.79
-11.06
-10.78
-9.97
-8.73
-7.19
-5.44
-3.52
-1.47
0.61
2.59
4.31
5.70
6.81
7.88
9.16
10.76
12.62
14.49
16.04
17.05
17.46
17.36
16.93
16.33
15.68
15.10
14.62
14.22
13.75
12.99
11.70
9.81
7.46
4.93
2.54
0.48
-1.28
-2.88
-4.47
-6.09
-7.59
-8.77
-9.53
-9.90
-10.03
-10.13
-10.33
-10.61
-10.86
-10.92
-10.67
-10.14
-9.49
-8.91
-8.64
-8.75
-9.23
-9.99
-10.90
-11.81
-12.66
-13.35
-13.78
-13.85
-13.45
-12.58
-11.33
-9.85
-8.31
-6.84
-5.45
-4.15
-2.92
-1.75
-0.69
0.15
0.73
0.97
0.93
0.70
0.39
0.15
0.08
0.23
0.58
1.04
1.52
1.93
2.24
2.42
2.44
2.23
1.73
0.95
-0.03
-1.02
-1.76
-2.09
-1.98
-1.58
-1.10
-0.72
-0.51
-0.45
-0.43
-0.40
-0.39
-0.45
-0.61
-0.84
-1.05
-1.14
-1.10
-0.98
-0.89
-0.91
-1.04
-1.21
-1.34
-1.34
-1.22
-1.12
-1.20
-1.69
-2.70
-4.16
-5.79
-7.20
-7.99
-7.91
-6.97
-5.35
-3.35
-1.27
0.70
2.48
4.08
5.51
6.75
7.76
8.53
9.01
9.23
9.22
9.02
8.67
8.21
7.65
7.00
6.30
5.58
4.89
4.31
3.88
3.59
3.40
3.24
3.05
2.85
2.69
2.59
2.56
2.56
2.53
2.49
2.50
2.63
2.89
3.23
3.54
3.75
3.79
3.66
3.32
2.74
1.84
0.63
-0.78
-2.21
-3.45
-4.44
-5.23
-5.99
-6.86
-7.89
-9.00
-10.07
-11.04
-11.88
-12.63
-13.28
-13.75
-13.87
-13.48
-12.48
-10.95
-9.15
-7.46
-6.18
-5.49
-5.31
-5.44
-5.65
-5.77
-5.79
-5.84
-6.08
-6.61
-7.39
-8.23
-8.95
-9.46
-9.80
-10.11
-10.54
-11.19
-12.04
-13.03
-14.11
-15.31
-16.71
-18.39
-20.41
-22.88
-25.94
-29.78
-34.64
-40.66
-47.75
-55.44
-62.88
-69.02
-72.84
-73.59
-70.97
-65.05
-56.19
-44.83
-31.49
-16.71
-1.25
13.95
27.76
39.13
47.36
52.26
54.19
53.88
52.14
49.62
46.71
43.55
40.14
36.51
32.79
29.14
25.74
22.71
20.06
17.78
15.82
14.14
12.72
11.58
10.69
10.03
9.49
8.94
8.29
7.53
6.71
5.98
5.48
5.27
5.35
5.59
5.86
6.08
6.25
6.36
6.42
6.40
6.22
5.80
5.09
4.14
3.05
1.93
0.88
-0.02
-0.72
-1.26
-1.64
-1.94
-2.18
-2.37
-2.47
-2.43
-2.21
-1.84
-1.43
-1.11
-1.01
-1.19
-1.59
-2.06
-2.40
-2.39
-1.93
-1.01
0.30
1.82
3.40
4.91
6.24
7.31
8.04
8.36
8.31
8.09
7.93
8.04
8.45
8.99
9.38
9.41
8.99
8.25
7.45
6.82
6.54
6.61
7.02
7.68
8.52
9.41
10.22
10.78
10.94
10.63
9.85
8.70
7.37
6.05
4.88
3.93
3.14
2.39
1.58
0.69
-0.16
-0.79
-0.98
-0.64
0.16
1.14
1.98
2.39
2.28
1.76
1.05
0.39
-0.13
-0.55
-0.96
-1.42
-1.88
-2.22
-2.32
-2.14
-1.73
-1.11
-0.28
0.83
2.28
4.04
5.97
7.88
9.55
10.88
11.87
12.56
13.03
13.31
13.39
13.30
13.02
12.62
12.14
11.63
11.12
10.58
9.95
9.19
8.27
7.30
6.39
5.70
5.31
5.20
5.22
5.16
4.83
4.14
3.13
1.95
0.78
-0.27
-1.17
-1.98
-2.81
-3.72
-4.71
-5.66
-6.43
-6.91
-7.07
-6.95
-6.70
-6.43
-6.20
-6.08
-6.08
-6.22
-6.52
-7.00
-7.61
-8.25
-8.78
-9.07
-9.09
-8.90
-8.68
-8.64
-8.96
-9.66
-10.66
-11.72
-12.59
-13.05
-12.93
-12.23
-11.02
-9.44
-7.67
-5.88
-4.21
-2.76
-1.56
-0.56
0.30
1.13
1.97
2.84
3.65
4.30
4.72
4.89
4.89
4.78
4.64
4.48
4.28
3.97
3.55
3.01
2.34
1.54
0.61
-0.38
-1.30
-1.99
-2.31
-2.19
-1.72
-1.02
-0.24
0.50
1.14
1.66
2.02
2.19
2.17
1.95
1.49
0.74
-0.39
-1.97
-3.96
-6.22
-8.49
-10.50
-12.15
-13.49
-14.62
-15.65
-16.54
-17.12
-17.27
-16.91
-16.12
-15.09
-13.98
-12.87
-11.70
-10.34
-8.65
-6.59
-4.18
-1.55
1.12
3.64
5.81
7.50
8.67
9.37
9.68
9.73
9.61
9.37
9.09
8.81
8.58
8.41
8.25
8.03
7.70
7.22
6.60
5.90
5.17
4.46
3.76
3.02
2.14
1.06
-0.26
-1.73
-3.17
-4.37
-5.15
-5.46
-5.38
-5.09
-4.77
-4.53
-4.40
-4.34
-4.36
-4.44
-4.57
-4.73
-4.86
-4.88
-4.79
-4.60
-4.35
-4.14
-3.98
-3.90
-3.93
-4.03
-4.19
-4.32
-4.30
-4.00
-3.35
-2.31
-0.96
0.60
2.25
3.88
5.31
6.44
7.18
7.53
7.58
7.50
7.38
7.30
7.24
7.15
6.99
6.72
6.30
5.70
4.89
3.96
3.09
2.50
2.41
2.86
3.74
4.78
5.67
6.20
6.30
6.04
5.58
5.12
4.83
4.84
5.22
5.99
7.10
8.39
9.72
10.90
11.84
12.48
12.84
12.94
12.81
12.43
11.81
10.96
9.96
8.87
7.71
6.48
5.15
3.75
2.34
1.05
0.05
-0.60
-0.93
-1.14
-1.46
-2.08
-3.09
-4.41
-5.82
-7.02
-7.77
-7.91
-7.48
-6.56
-5.32
-3.91
-2.47
-1.10
0.06
0.83
1.09
0.85
0.27
-0.42
-0.94
-1.15
-1.08
-0.84
-0.56
-0.24
0.15
0.68
1.31
1.99
2.67
3.31
4.00
4.76
5.57
6.24
6.55
6.38
5.77
4.89
3.94
3.03
2.13
1.17
0.10
-0.98
-1.88
-2.47
-2.71
-2.73
-2.74
-2.84
-3.03
-3.17
-3.09
-2.79
-2.38
-2.09
-2.15
-2.63
-3.46
-4.45
-5.38
-6.08
-6.44
-6.47
-6.21
-5.76
-5.26
-4.89
-4.74
-4.81
-5.03
-5.26
-5.43
-5.55
-5.70
-6.01
-6.56
-7.33
-8.25
-9.23
-10.19
-11.06
-11.80
-12.32
-12.55
-12.49
-12.18
-11.70
-11.12
-10.44
-9.67
-8.78
-7.83
-6.90
-6.08
-5.39
-4.81
-4.29
-3.84
-3.54
-3.51
-3.83
-4.43
-5.13
-5.70
-5.99
-5.94
-5.64
-5.17
-4.60
-3.91
-3.12
-2.34
-1.71
-1.37
-1.35
-1.55
-1.77
-1.85
-1.77
-1.62
-1.57
-1.72
-2.05
-2.39
-2.50
-2.18
-1.37
-0.11
1.45
3.15
4.85
6.45
7.87
9.09
10.14
11.05
11.94
12.92
14.10
15.53
17.18
18.98
20.85
22.76
24.70
26.65
28.53
30.18
31.42
32.17
32.46
32.43
32.23
31.92
31.38
30.38
28.70
26.19
22.89
18.96
14.62
10.00
5.16
0.05
-5.38
-11.19
-17.32
-23.69
-30.12
-36.44
-42.53
-48.33
-53.87
-59.19
-64.42
-69.61
-74.84
-80.11
-85.39
-90.60
-95.58
-100.07
-103.65
-105.82
-105.99
-103.57
-98.08
-89.34
-77.46
-62.94
-46.62
-29.59
-13.01
2.17
15.37
26.56
36.05
44.30
51.69
58.30
63.97
68.51
71.90
74.45
76.65
78.95
81.60
84.47
87.33
89.92
92.21
94.38
96.67
99.26
102.20
105.39
108.57
111.39
113.33
113.73
111.85
106.99
98.80
87.39
73.39
57.78
41.59
25.68
10.56
-3.51
-16.44
-28.13
-38.44
-47.29
-54.67
-60.74
-65.67
-69.61
-72.51
-74.24
-74.63
-73.63
-71.38
-68.15
-64.30
-60.16
-55.96
-51.84
-47.89
-44.16
-40.63
-37.32
-34.24
-31.40
-28.91
-26.84
-25.20
-23.91
-22.77
-21.54
-20.02
-18.08
-15.72
-12.99
-9.96
-6.73
-3.38
-0.02
3.28
6.37
9.17
11.54
13.39
14.68
15.36
15.51
15.25
14.75
14.11
13.43
12.69
11.85
10.86
9.67
8.30
6.78
5.14
3.43
1.67
-0.15
-2.03
-3.97
-5.95
-7.89
-9.70
-11.21
-12.30
-12.80
-12.69
-11.96
-10.71
-9.09
-7.27
-5.42
-3.64
-1.98
-0.44
0.95
2.18
3.16
3.78
3.98
3.75
3.19
2.45
1.71
1.10
0.70
0.56
0.61
0.81
1.10
1.46
1.90
2.49
3.27
4.20
5.15
5.93
6.37
6.36
5.97
5.36
4.79
4.43
4.31
4.32
4.20
3.71
2.68
1.07
-0.98
-3.26
-5.49
-7.44
-8.99
-10.07
-10.75
-11.07
-11.05
-10.50
-9.04
-6.19
-1.61
4.54
11.61
18.60
24.43
28.28
29.83
29.23
26.94
23.50
19.26
14.51
9.58
4.72
0.11
-4.18
-8.19
-11.96
-15.58
-19.29
-23.20
-27.19
-31.03
-34.26
-36.11
-35.88
-32.57
-25.34
-14.22
0.05
16.04
31.82
45.70
56.69
64.57
69.67
73.94
77.52
80.06
81.40
81.69
81.46
81.42
81.90
82.63
82.71
80.75
74.83
64.52
50.50
34.09
16.77
-0.33
-16.45
-31.17
-44.41
-55.99
-65.55
-72.94
-78.22
-81.64
-83.46
-83.80
-82.69
-80.16
-76.19
-70.78
-64.14
-56.68
-48.86
-40.98
-33.01
-24.68
-15.64
-5.72
4.90
15.50
25.09
32.80
38.24
41.61
43.55
44.85
46.15
47.77
49.75
52.00
54.43
56.98
59.52
61.72
63.00
62.70
60.29
55.61
48.92
40.77
31.78
22.38
12.76
2.89
-7.25
-17.50
-27.40
-36.33
-43.66
-48.90
-51.83
-52.52
-51.16
-47.99
-43.23
-37.00
-29.41
-20.62
-10.88
-0.58
9.73
19.32
27.31
32.68
34.52
32.15
25.47
15.03
2.01
-12.10
-25.88
-38.40
-49.45
-59.58
-69.80
-81.18
-94.27
-108.85
-123.90
-137.91
-149.36
-157.15
-160.76
-160.18
-155.59
-147.11
-134.85
-119.20
-101.01
-81.69
-62.95
-46.31
-32.64
-22.00
-13.77
-7.10
-1.19
4.42
9.89
15.25
20.53
25.88
31.46
37.37
43.52
49.57
55.01
59.28
62.04
63.23
63.12
62.16
60.73
58.95
56.80
54.12
50.84
47.11
43.27
39.72
36.74
34.48
32.82
31.57
30.54
29.61
28.78
28.15
27.79
27.69
27.75
27.68
27.16
26.00
24.14
21.77
19.19
16.68
14.37
12.19
9.92
7.32
4.21
0.60
-3.30
-7.22
-10.81
-13.78
-15.99
-17.31
-17.70
-17.08
-15.46
-12.82
-9.33
-5.26
-1.11
2.63
5.56
7.54
8.72
9.42
10.01
10.67
11.33
11.77
11.81
11.36
10.59
9.71
8.95
8.34
7.84
7.34
6.75
6.10
5.49
5.00
4.67
4.49
4.37
4.21
3.97
3.69
3.53
3.71
4.38
5.54
6.95
8.22
8.97
9.05
8.64
8.09
7.77
7.83
8.10
8.20
7.88
7.05
5.96
4.94
4.29
4.04
4.10
4.22
4.23
4.06
3.73
3.32
2.91
2.66
2.64
2.95
3.64
4.64
5.86
7.14
8.35
9.36
10.12
10.54
10.62
10.37
9.90
9.39
8.95
8.66
8.45
8.15
7.58
6.68
5.57
4.45
3.53
2.80
2.14
1.27
-0.02
-1.76
-3.76
-5.77
-7.56
-9.07
-10.33
-11.53
-12.75
-14.05
-15.37
-16.63
-17.76
-18.73
-19.51
-20.07
-20.27
-19.97
-19.05
-17.50
-15.43
-13.11
-10.79
-8.67
-6.83
-5.26
-3.89
-2.74
-1.87
-1.38
-1.30
-1.59
-2.17
-2.94
-3.91
-5.14
-6.75
-8.85
-11.46
-14.56
-18.10
-22.08
-26.46
-31.20
-36.20
-41.27
-46.15
-50.50
-53.99
-56.34
-57.44
-57.35
-56.37
-54.89
-53.26
-51.71
-50.21
-48.64
-46.80
-44.57
-41.91
-38.79
-35.13
-30.78
-25.64
-19.71
-13.20
-6.41
0.35
6.94
13.44
20.04
26.90
34.01
41.12
47.89
54.06
59.46
64.09
67.97
71.07
73.31
74.62
75.09
74.88
74.24
73.29
71.93
69.94
67.02
63.06
58.17
52.73
47.18
41.91
37.09
32.63
28.29
23.78
18.90
13.62
8.05
2.47
-2.75
-7.28
-10.92
-13.64
-15.61
-17.13
-18.53
-20.10
-22.07
-24.52
-27.47
-30.78
-34.13
-37.07
-39.12
-39.92
-39.44
-37.95
-35.84
-33.48
-30.91
-27.97
-24.38
-20.02
-15.06
-9.96
-5.28
-1.45
1.32
3.09
4.04
4.35
4.11
3.39
2.27
0.84
-0.74
-2.31
-3.74
-5.01
-6.17
-7.31
-8.55
-9.96
-11.49
-13.00
-14.24
-14.90
-14.86
-14.20
-13.19
-12.21
-11.46
-10.98
-10.51
-9.72
-8.37
-6.49
-4.39
-2.49
-1.21
-0.73
-1.04
-1.92
-3.10
-4.27
-5.15
-5.49
-5.09
-4.01
-2.47
-0.99
-0.07
-0.13
-1.19
-2.91
-4.65
-5.77
-5.78
-4.55
-2.20
0.98
4.61
8.38
12.02
15.33
18.20
20.59
22.52
24.09
25.43
26.67
27.90
29.17
30.45
31.57
32.31
32.41
31.72
30.22
28.10
25.70
23.38
21.41
19.89
18.70
17.61
16.40
14.92
13.17
11.25
9.30
7.39
5.52
3.67
1.75
-0.27
-2.41
-4.66
-6.95
-9.16
-11.07
-12.43
-13.07
-12.93
-12.17
-11.11
-10.18
-9.76
-10.10
-11.21
-12.87
-14.71
-16.26
-17.09
-16.94
-15.66
-13.27
-9.97
-6.05
-1.86
2.17
5.68
8.44
10.38
11.57
12.20
12.47
12.54
12.46
12.24
11.88
11.35
10.64
9.73
8.65
7.49
6.41
5.56
5.03
4.80
4.74
4.62
4.20
3.38
2.14
0.66
-0.82
-2.01
-2.64
-2.57
-1.82
-0.54
1.01
2.56
3.92
5.04
5.96
6.68
7.21
7.46
7.36
6.90
6.16
5.23
4.21
3.06
1.66
-0.13
-2.33
-4.82
-7.41
-9.89
-12.11
-13.98
-15.54
-16.78
-17.68
-18.15
-18.13
-17.63
-16.67
-15.34
-13.70
-11.86
-9.89
-7.92
-6.08
-4.54
-3.33
-2.46
-1.81
-1.28
-0.79
-0.34
0.01
0.22
0.32
0.44
0.73
1.28
2.04
2.85
3.56
4.08
4.43
4.70
4.94
5.10
5.06
4.69
4.00
3.11
2.22
1.54
1.14
0.95
0.88
0.80
0.67
0.47
0.21
-0.10
-0.49
-0.98
-1.63
-2.41
-3.32
-4.27
-5.17
-5.90
-6.42
-6.71
-6.84
-6.90
-7.02
-7.32
-7.90
-8.78
-9.89
-11.01
-11.86
-12.14
-11.69
-10.54
-8.86
-6.91
-4.95
-3.19
-1.79
-0.83
-0.35
-0.32
-0.63
-1.09
-1.50
-1.72
-1.64
-1.28
-0.63
0.23
1.25
2.33
3.39
4.36
5.22
6.02
6.80
7.58
8.32
8.97
9.49
9.89
10.20
10.47
10.70
10.89
11.00
11.03
10.98
10.85
10.61
10.19
9.56
8.79
7.99
7.32
6.87
6.63
6.47
6.21
5.71
4.88
3.75
2.42
1.07
-0.14
-1.06
-1.67
-2.01
-2.24
-2.54
-3.02
-3.69
-4.38
-4.89
-5.03
-4.75
-4.12
-3.36
-2.67
-2.26
-2.20
-2.48
-3.03
-3.72
-4.39
-4.90
-5.15
-5.14
-4.99
-4.85
-4.89
-5.21
-5.79
-6.51
-7.20
-7.68
-7.86
-7.66
-7.09
-6.20
-5.01
-3.64
-2.19
-0.78
0.40
1.22
1.61
1.52
0.96
0.03
-1.19
-2.53
-3.80
-4.83
-5.50
-5.79
-5.88
-5.99
-6.34
-6.98
-7.79
-8.53
-8.98
-9.10
-9.01
-8.95
-9.06
-9.31
-9.49
-9.33
-8.65
-7.40
-5.72
-3.75
-1.66
0.44
2.43
4.17
5.49
6.32
6.69
6.79
6.85
7.02
7.30
7.57
7.66
7.50
7.13
6.79
6.68
6.97
7.64
8.52
9.39
9.96
10.09
9.78
9.19
8.49
7.87
7.41
7.04
6.67
6.18
5.49
4.61
3.59
2.45
1.24
0.02
-1.10
-1.97
-2.43
-2.44
-2.12
-1.75
-1.69
-2.16
-3.18
-4.50
-5.67
-6.27
-6.04
-4.96
-3.22
-1.15
0.91
2.76
4.24
5.29
5.90
6.08
5.92
5.51
4.95
4.32
3.62
2.81
1.82
0.62
-0.76
-2.18
-3.46
-4.46
-5.11
-5.45
-5.66
-5.81
-5.93
-5.87
-5.46
-4.59
-3.42
-2.20
-1.25
-0.78
-0.70
-0.76
-0.76
-0.57
-0.23
0.12
0.44
0.81
1.32
2.07
2.96
3.79
4.39
4.72
4.84
4.96
5.19
5.58
6.05
6.51
6.84
7.03
7.04
6.81
6.24
5.27
3.80
1.93
-0.23
-2.50
-4.72
-6.76
-8.54
-9.99
-11.02
-11.56
-11.52
-10.97
-9.97
-8.70
-7.29
-5.88
-4.56
-3.36
-2.35
-1.57
-1.02
-0.61
-0.15
0.57
1.65
3.02
4.41
5.45
5.92
5.79
5.28
4.73
4.47
4.64
5.19
5.94
6.69
7.36
7.90
8.30
8.54
8.56
8.32
7.79
7.07
6.30
5.68
5.38
5.43
5.64
5.80
5.59
4.96
4.03
3.11
2.54
2.46
2.71
3.00
3.00
2.60
1.83
0.87
-0.26
-1.55
-3.09
-4.93
-6.90
-8.71
-10.07
-10.82
-11.05
-10.96
-10.74
-10.38
-9.75
-8.67
-7.16
-5.45
-3.96
-3.12
-3.13
-3.81
-4.83
-5.80
-6.58
-7.23
-7.95
-8.74
-9.41
-9.60
-9.04
-7.73
-5.98
-4.26
-2.96
-2.15
-1.60
-1.02
-0.22
0.78
1.66
2.17
2.11
1.55
0.73
0.00
-0.42
-0.44
-0.19
0.11
0.25
0.17
-0.02
-0.10
0.17
0.86
1.86
2.84
3.44
3.39
2.69
1.58
0.43
-0.44
-0.86
-0.88
-0.68
-0.42
-0.19
0.06
0.42
0.90
1.52
2.15
2.75
3.28
3.81
4.42
5.20
6.05
6.79
7.16
7.03
6.44
5.64
5.03
4.88
5.30
6.11
7.02
7.78
8.28
8.57
8.73
8.76
8.56
8.07
7.32
6.50
5.82
5.43
5.24
5.11
4.78
4.19
3.39
2.54
1.73
1.00
0.23
-0.64
-1.64
-2.63
-3.50
-4.10
-4.44
-4.58
-4.65
-4.73
-4.84
-4.92
-4.94
-4.86
-4.66
-4.40
-4.13
-3.87
-3.68
-3.57
-3.49
-3.41
-3.27
-3.00
-2.63
-2.21
-1.86
-1.63
-1.51
-1.40
-1.15
-0.71
-0.10
0.59
1.22
1.77
2.27
2.80
3.46
4.31
5.30
6.34
7.34
8.20
8.82
9.14
9.14
8.82
8.25
7.54
6.81
6.14
5.55
5.01
4.48
3.94
3.43
3.06
2.85
2.82
2.90
2.99
3.03
2.99
2.89
2.69
2.39
1.90
1.20
0.34
-0.55
-1.32
-1.84
-2.07
-2.07
-1.95
-1.89
-2.03
-2.47
-3.23
-4.20
-5.23
-6.13
-6.75
-7.07
-7.16
-7.20
-7.39
-7.88
-8.68
-9.64
-10.49
-10.97
-10.95
-10.49
-9.77
-8.99
-8.27
-7.60
-6.90
-6.08
-5.18
-4.25
-3.37
-2.53
-1.67
-0.76
0.15
0.94
1.49
1.77
1.87
1.95
2.15
2.48
2.88
3.21
3.39
3.43
3.38
3.30
3.19
3.00
2.74
2.47
2.35
2.51
2.97
3.61
4.23
4.60
4.64
4.41
4.04
3.73
3.56
3.50
3.43
3.23
2.81
2.21
1.54
0.94
0.51
0.24
0.05
-0.20
-0.62
-1.24
-1.99
-2.82
-3.66
-4.50
-5.37
-6.28
-7.18
-7.96
-8.49
-8.63
-8.30
-7.52
-6.38
-5.05
-3.67
-2.38
-1.21
-0.17
0.75
1.55
2.23
2.77
3.17
3.51
3.79
4.07
4.32
4.50
4.62
4.68
4.72
4.77
4.83
4.88
4.93
4.98
5.05
5.16
5.30
5.45
5.55
5.53
5.36
5.00
4.46
3.77
3.04
2.40
1.98
1.82
1.85
1.89
1.69
1.11
0.11
-1.15
-2.44
-3.54
-4.34
-4.86
-5.12
-5.19
-5.04
-4.66
-4.12
-3.57
-3.23
-3.25
-3.65
-4.22
-4.69
-4.80
-4.44
-3.70
-2.83
-2.06
-1.56
-1.36
-1.34
-1.38
-1.37
-1.29
-1.15
-1.01
-0.94
-0.86
-0.69
-0.30
0.30
1.06
1.78
2.24
2.34
2.13
1.75
1.42
1.26
1.26
1.32
1.31
1.21
1.06
0.92
0.83
0.74
0.64
0.55
0.59
0.84
1.33
1.94
2.46
2.70
2.63
2.35
2.02
1.78
1.62
1.43
1.12
0.65
0.04
-0.68
-1.46
-2.26
-2.96
-3.38
-3.35
-2.85
-2.01
-1.13
-0.57
-0.49
-0.89
-1.58
-2.30
-2.92
-3.38
-3.74
-3.98
-4.09
-3.96
-3.56
-2.96
-2.26
-1.53
-0.76
0.01
0.81
1.53
2.06
2.27
2.16
1.82
1.46
1.26
1.30
1.55
1.89
2.20
2.46
2.69
3.00
3.39
3.81
4.09
4.09
3.69
2.84
1.63
0.15
-1.34
-2.57
-3.28
-3.24
-2.39
-0.89
0.92
2.67
4.03
4.89
5.22
5.15
4.75
4.14
3.42
2.77
2.39
2.39
2.78
3.45
4.14
4.67
4.92
4.91
4.74
4.51
4.25
3.95
3.56
3.07
2.52
1.97
1.45
0.91
0.24
-0.70
-2.06
-3.94
-6.31
-9.08
-11.96
-14.59
-16.55
-17.47
-17.18
-15.74
-13.50
-10.96
-8.62
-6.83
-5.72
-5.21
-5.13
-5.27
-5.43
-5.47
-5.25
-4.65
-3.62
-2.20
-0.53
1.17
2.73
4.03
5.04
5.83
6.45
6.95
7.33
7.59
7.71
7.68
7.51
7.18
6.74
6.24
5.78
5.45
5.33
5.46
5.84
6.39
7.08
7.83
8.56
9.12
9.36
9.20
8.60
7.64
6.46
5.19
3.92
2.61
1.18
-0.46
-2.32
-4.36
-6.45
-8.47
-10.32
-11.96
-13.40
-14.69
-15.82
-16.71
-17.28
-17.44
-17.14
-16.41
-15.33
-13.98
-12.44
-10.73
-8.92
-7.07
-5.30
-3.74
-2.49
-1.56
-0.88
-0.29
0.33
1.01
1.73
2.39
2.91
3.25
3.44
3.61
3.83
4.22
4.78
5.45
6.03
6.34
6.21
5.67
4.89
4.13
3.64
3.49
3.57
3.67
3.61
3.29
2.78
2.21
1.70
1.34
1.21
1.35
1.80
2.57
3.56
4.57
5.37
5.71
5.51
4.81
3.77
2.63
1.57
0.66
-0.15
-0.93
-1.76
-2.59
-3.27
-3.63
-3.52
-2.98
-2.14
-1.22
-0.41
0.22
0.74
1.26
1.89
2.59
3.25
3.73
3.97
4.06
4.14
4.38
4.77
5.21
5.55
5.67
5.57
5.33
5.07
4.85
4.68
4.49
4.18
3.67
2.86
1.70
0.20
-1.52
-3.20
-4.51
-5.24
-5.36
-5.09
-4.72
-4.47
-4.41
-4.43
-4.39
-4.25
-4.15
-4.30
-4.89
-5.90
-7.14
-8.27
-9.02
-9.20
-8.88
-8.28
-7.60
-6.98
-6.47
-6.03
-5.63
-5.25
-4.89
-4.55
-4.27
-4.12
-4.20
-4.67
-5.63
-7.02
-8.60
-9.98
-10.75
-10.64
-9.59
-7.78
-5.55
-3.23
-1.09
0.68
2.04
3.00
3.67
4.15
4.58
5.04
5.56
6.08
6.51
6.74
6.75
6.57
6.31
6.10
6.02
6.15
6.42
6.75
7.05
7.29
7.44
7.50
7.48
7.29
6.87
6.15
5.14
3.92
2.64
1.44
0.45
-0.29
-0.79
-1.11
-1.36
-1.58
-1.80
-2.02
-2.20
-2.29
-2.28
-2.20
-2.08
-1.98
-1.95
-2.01
-2.15
-2.35
-2.59
-2.86
-3.14
-3.47
-3.84
-4.30
-4.85
-5.51
-6.21
-6.85
-7.28
-7.33
-6.90
-6.00
-4.75
-3.40
-2.21
-1.36
-0.86
-0.57
-0.32
0.08
0.68
1.45
2.30
3.14
3.87
4.47
4.96
5.37
5.75
6.17
6.67
7.26
7.94
8.65
9.31
9.80
9.97
9.72
8.97
7.75
6.18
4.45
2.78
1.33
0.21
-0.62
-1.22
-1.68
-2.09
-2.46
-2.80
-3.09
-3.31
-3.49
-3.60
-3.61
-3.49
-3.26
-2.96
-2.66
-2.47
-2.44
-2.58
-2.89
-3.32
-3.75
-4.10
-4.23
-4.02
-3.43
-2.47
-1.25
0.08
1.35
2.45
3.32
4.00
4.54
5.00
5.43
5.76
5.88
5.65
5.02
4.14
3.30
2.86
3.03
3.76
4.76
5.67
6.25
6.47
6.52
6.64
6.93
7.31
7.63
7.66
7.31
6.66
5.86
5.09
4.51
4.19
4.12
4.19
4.24
4.12
3.71
2.99
2.11
1.20
0.38
-0.34
-1.07
-1.94
-3.01
-4.23
-5.43
-6.40
-7.02
-7.30
-7.35
-7.30
-7.23
-7.18
-7.09
-6.91
-6.64
-6.31
-6.04
-5.97
-6.24
-6.92
-7.98
-9.23
-10.40
-11.15
-11.20
-10.43
-8.90
-6.87
-4.74
-2.90
-1.63
-1.03
-0.99
-1.33
-1.81
-2.21
-2.42
-2.40
-2.15
-1.75
-1.28
-0.86
-0.59
-0.53
-0.65
-0.85
-1.02
-1.06
-0.94
-0.72
-0.49
-0.36
-0.43
-0.71
-1.22
-1.89
-2.63
-3.36
-3.96
-4.33
-4.40
-4.18
-3.75
-3.29
-2.94
-2.79
-2.77
-2.77
-2.66
-2.44
-2.20
-2.10
-2.26
-2.63
-3.08
-3.44
-3.62
-3.69
-3.77
-3.97
-4.27
-4.56
-4.70
-4.55
-4.12
-3.48
-2.75
-2.02
-1.37
-0.87
-0.54
-0.39
-0.32
-0.13
0.44
1.54
3.20
5.21
7.30
9.23
10.85
12.22
13.47
14.75
16.12
17.60
19.12
20.67
22.28
24.03
25.98
28.20
30.71
33.53
36.61
39.91
43.45
47.34
51.80
57.03
63.19
70.25
77.95
85.83
93.22
99.35
103.45
104.98
103.78
100.18
94.79
88.30
81.09
73.13
64.11
53.69
41.83
28.86
15.33
1.76
-11.55
-24.47
-36.86
-48.32
-58.32
-66.38
-72.33
-76.44
-79.39
-81.95
-84.81
-88.47
-93.19
-99.05
-105.91
-113.23
-120.19
-125.75
-128.94
-129.21
-126.54
-121.34
-114.27
-105.92
-96.73
