1720555189.00
64.000000
-0.00
-0.00
-0.00
-0.00
-0.00
-0.00
-0.00
-0.00
-0.00
-0.00
0.00
0.01
0.01
-0.00
-0.03
-0.05
-0.05
0.00
0.13
0.36
0.66
1.01
1.37
1.72
2.06
2.40
2.79
3.24
3.80
4.42
5.06
5.66
6.20
6.68
7.15
7.68
8.31
9.14
10.09
11.04
11.88
12.56
13.14
13.76
14.65
15.96
17.91
20.32
22.90
25.38
27.58
29.57
31.68
34.32
37.81
42.54
48.15
54.10
59.83
64.97
69.58
74.14
79.34
85.71
93.76
103.00
112.62
121.73
129.77
136.75
143.30
150.75
157.77
166.64
177.95
191.79
206.97
220.57
228.25
225.36
208.53
176.87
132.76
80.05
23.07
-34.94
-92.44
-149.16
-205.23
-260.37
-313.74
-363.87
-409.83
-450.91
-486.50
-515.74
-537.23
-549.22
-549.96
-538.36
-514.20
-478.67
-433.88
-382.46
-327.03
-269.85
-212.62
-156.62
-102.89
-52.32
-5.91
35.45
71.13
100.88
124.90
143.71
158.03
168.53
175.77
180.10
181.80
181.12
178.39
174.03
168.48
162.14
155.27
148.00
140.37
132.43
124.27
116.11
108.15
100.59
93.45
86.61
79.83
72.89
65.72
58.50
51.58
45.38
40.15
35.83
32.03
28.13
23.60
18.30
12.54
7.08
2.73
-0.03
-1.32
-1.93
-2.99
-5.44
-9.55
-14.72
-19.68
-23.16
-24.43
-23.68
-22.04
-20.95
-21.59
-24.54
-29.67
-36.39
-43.42
-48.94
-50.43
-45.37
-32.27
-11.85
12.69
36.57
55.35
66.64
70.97
71.04
69.94
69.24
68.30
64.90
56.90
43.80
27.36
11.17
-1.02
-6.87
-6.39
-1.77
3.88
8.19
10.50
11.86
13.91
17.48
21.94
25.58
26.90
25.47
22.21
18.73
16.50
16.22
17.68
20.09
22.52
23.97
23.55
20.83
16.07
10.40
5.41
2.47
1.98
2.97
3.60
2.07
-2.30
-8.76
-15.50
-20.58
-22.90
-22.68
-21.15
-19.64
-18.61
-17.28
-14.08
-7.80
1.50
12.17
21.74
27.95
29.55
26.61
19.76
10.11
-0.98
-11.98
-21.38
-28.04
-31.73
-33.30
-34.26
-36.16
-39.59
-43.92
-47.46
-48.22
-44.57
-35.79
-22.33
-5.94
10.37
23.06
29.34
28.67
23.37
17.61
14.91
15.88
17.73
16.20
8.93
-2.40
-12.59
-16.05
-10.63
0.64
11.19
14.98
10.08
-0.28
-10.08
-14.39
-12.20
-6.46
-1.78
-1.59
-6.43
-14.15
-21.41
-25.35
-24.80
-20.53
-14.74
-10.23
-9.37
-13.18
-21.05
-30.88
-39.87
-45.56
-46.63
-43.23
-36.57
-28.36
-20.10
-12.84
-7.46
-4.29
-2.97
-2.59
-1.95
-0.01
3.75
9.15
15.28
20.78
24.36
25.26
23.67
20.76
18.21
17.58
19.49
23.42
28.01
31.75
33.61
33.43
31.80
29.79
28.62
29.34
32.52
37.92
44.33
49.67
51.61
48.45
40.07
28.43
17.13
10.14
10.13
17.22
28.66
39.78
45.72
43.35
32.33
15.05
-4.38
-21.70
-33.63
-38.51
-36.28
-28.23
-16.61
-4.33
5.63
10.89
10.12
3.36
-8.42
-23.71
-41.04
-59.05
-76.18
-90.04
-97.22
-93.86
-77.06
-46.57
-5.81
38.55
78.48
107.41
122.62
125.96
122.37
117.05
112.74
109.12
104.03
95.69
84.28
71.66
59.81
49.44
39.74
29.48
18.61
8.89
3.17
4.06
12.78
28.97
51.27
77.77
106.12
133.25
155.49
169.26
172.11
163.33
143.70
114.69
77.79
34.66
-12.33
-59.60
-102.82
-137.97
-162.65
-176.62
-181.33
-179.03
-171.94
-161.98
-151.01
-140.87
-133.28
-129.40
-129.47
-132.81
-138.25
-144.89
-152.36
-160.67
-169.96
-180.08
-190.64
-201.02
-210.25
-216.78
-218.49
-213.31
-200.33
-180.77
-158.00
-136.24
-118.56
-105.33
-94.19
-81.65
-65.16
-44.58
-21.96
-0.01
19.52
36.55
51.94
66.27
78.86
87.95
91.81
90.11
84.58
78.31
74.27
73.68
75.52
77.50
77.89
76.91
76.66
79.61
86.56
95.60
102.92
105.03
100.95
92.81
84.39
78.57
75.43
72.33
66.00
54.92
40.64
26.88
17.34
13.52
13.99
15.51
15.02
11.35
5.74
0.72
-1.56
-0.64
2.10
4.45
4.76
2.88
0.00
-2.15
-2.48
-1.05
1.08
2.61
2.70
1.41
-0.56
-2.31
-3.38
-3.89
-4.34
-5.16
-6.36
-7.41
-7.63
-6.60
-4.59
-2.58
-1.77
-3.02
-6.26
-10.50
-14.21
-16.09
-15.56
-12.91
-8.98
-4.64
-0.42
3.62
7.59
11.58
15.44
18.77
21.11
22.15
21.90
20.73
19.18
17.80
16.81
16.10
15.27
14.00
12.32
10.66
9.67
9.81
11.08
12.96
14.72
15.74
15.78
15.00
13.79
12.45
11.08
9.58
7.75
5.46
2.70
-0.40
-3.53
-6.28
-8.20
-8.88
-8.14
-6.08
-3.11
0.19
3.29
5.82
7.69
8.92
9.61
9.78
9.42
8.57
7.34
5.97
4.74
3.83
3.24
2.88
2.60
2.32
2.04
1.88
1.94
2.26
2.80
3.42
3.94
4.23
4.23
3.98
3.59
3.10
2.51
1.70
0.60
-0.72
-1.93
-2.57
-2.19
-0.56
2.08
5.14
7.83
9.50
9.87
9.04
7.39
5.36
3.31
1.49
0.11
-0.66
-0.68
0.02
1.19
2.36
3.07
3.06
2.43
1.53
0.71
0.10
-0.44
-1.16
-2.19
-3.33
-4.16
-4.33
-3.77
-2.84
-2.08
-1.88
-2.23
-2.68
-2.60
-1.49
0.81
4.12
8.08
12.36
16.68
20.77
24.29
26.87
28.19
28.17
27.01
25.16
23.07
21.09
19.32
17.72
16.20
14.69
13.26
12.03
11.09
10.53
10.35
10.51
10.98
11.67
12.45
13.18
13.79
14.31
14.82
15.40
16.03
16.52
16.68
16.50
16.31
16.72
18.36
21.52
25.89
30.66
34.85
37.73
39.01
38.86
37.62
35.55
32.83
29.61
26.13
22.67
19.45
16.47
13.53
10.34
6.78
3.01
-0.48
-3.05
-4.24
-4.17
-3.79
-4.75
-8.78
-16.81
-28.23
-41.03
-52.69
-61.44
-67.09
-70.85
-74.21
-77.68
-80.32
-80.47
-77.03
-70.36
-62.12
-54.18
-47.54
-41.92
-36.40
-30.41
-24.32
-19.28
-16.41
-16.07
-17.67
-20.07
-22.10
-23.03
-22.55
-20.80
-18.16
-15.25
-12.76
-11.29
-11.01
-11.57
-12.27
-12.44
-11.73
-10.30
-8.68
-7.41
-6.70
-6.32
-5.87
-5.15
-4.56
-5.00
-7.34
-11.82
-17.59
-22.95
-26.08
-26.02
-23.06
-18.57
-14.10
-10.46
-7.38
-4.01
0.20
4.89
8.93
11.31
12.04
12.29
13.67
17.07
21.98
26.70
29.45
29.58
28.00
26.49
26.43
27.91
29.68
30.16
28.56
25.39
22.07
19.91
19.27
19.52
19.55
18.59
16.61
14.18
11.99
10.41
9.48
9.06
9.16
9.99
11.82
14.69
18.25
21.82
24.58
25.92
25.60
23.81
21.11
18.22
15.92
14.86
15.51
18.17
22.96
29.89
38.97
50.18
63.34
78.01
93.40
108.56
122.64
135.23
146.49
156.98
167.15
176.85
185.17
190.69
192.17
189.12
182.09
172.39
161.58
150.91
141.13
132.67
125.89
121.17
118.82
118.72
120.17
121.90
122.41
120.43
115.35
107.36
97.32
86.45
75.80
65.91
56.53
46.77
35.43
21.39
4.13
-16.11
-38.19
-60.38
-80.81
-98.05
-111.58
-121.93
-130.36
-138.10
-145.61
-152.19
-156.30
-156.56
-152.70
-145.99
-138.71
-133.02
-129.84
-128.44
-126.93
-123.42
-116.98
-107.93
-97.39
-86.38
-75.24
-63.49
-50.49
-36.10
-21.19
-7.46
3.17
9.31
10.67
7.96
2.51
-4.27
-11.21
-17.38
-21.84
-23.37
-20.59
-12.36
1.49
19.65
39.25
56.54
68.02
71.56
66.86
55.05
37.79
16.39
-8.39
-35.67
-63.69
-89.42
-109.36
-120.97
-124.15
-121.64
-117.96
-117.52
-122.67
-132.95
-145.62
-157.18
-164.93
-167.81
-166.32
-161.76
-155.36
-147.72
-138.89
-128.72
-117.33
-105.43
-94.15
-84.56
-77.26
-72.08
-68.30
-65.00
-61.55
-57.78
-53.90
-50.16
-46.70
-43.40
-40.08
-36.57
-32.90
-29.21
-25.72
-22.53
-19.57
-16.70
-13.66
-10.28
-6.47
-2.26
2.17
6.55
10.56
13.88
16.24
17.50
17.75
17.25
16.48
15.95
16.07
16.95
18.37
19.80
20.64
20.45
19.17
17.13
14.96
13.31
12.60
12.90
13.85
14.89
15.43
15.09
13.77
11.67
9.20
6.78
4.79
3.50
3.01
3.31
4.26
5.57
6.84
7.66
7.76
7.16
6.20
5.44
5.30
5.86
6.68
6.99
5.99
3.30
-0.83
-5.56
-9.74
-12.42
-13.17
-12.22
-10.36
-8.56
-7.67
-8.11
-10.01
-13.25
-17.68
-23.17
-29.43
-35.90
-41.72
-45.99
-48.16
-48.42
-47.66
-47.09
-47.54
-49.02
-50.55
-50.62
-47.82
-41.47
-31.84
-20.05
-7.61
3.97
13.42
19.90
23.00
22.69
19.32
13.54
6.20
-1.82
-9.71
-16.83
-22.82
-27.65
-31.58
-35.09
-38.68
-42.68
-47.17
-52.00
-56.93
-61.73
-66.30
-70.67
-75.00
-79.59
-84.87
-91.40
-99.69
-110.04
-122.26
-135.65
-149.03
-160.97
-170.17
-175.73
-177.36
-175.38
-170.53
-163.73
-155.77
-147.18
-138.18
-128.67
-118.45
-107.28
-95.08
-82.03
-68.50
-55.00
-41.86
-29.01
-15.93
-1.95
13.32
29.53
45.58
60.03
71.64
79.96
85.32
88.52
90.34
91.24
91.35
90.80
89.89
89.08
88.69
88.50
87.68
85.13
80.07
72.55
63.59
54.81
47.83
43.69
42.62
44.15
47.52
52.05
57.21
62.61
67.79
72.16
75.17
76.45
75.96
74.00
71.09
67.69
64.20
60.78
57.50
54.41
51.61
49.29
47.62
46.69
46.31
46.11
45.59
44.34
42.26
39.61
36.87
34.49
32.64
31.12
29.51
27.39
24.57
21.14
17.43
13.88
10.92
8.86
7.68
7.09
6.57
5.68
4.38
3.07
2.55
3.60
6.67
11.65
17.89
24.52
30.68
35.81
39.75
42.77
45.46
48.62
52.88
58.41
64.76
70.89
75.52
77.59
76.62
72.82
66.92
59.91
52.74
46.07
40.22
35.21
30.86
26.97
23.41
20.19
17.47
15.40
14.09
13.56
13.82
14.97
17.19
20.67
25.40
31.09
37.12
42.69
47.03
49.62
50.21
48.82
45.69
41.17
35.77
30.11
24.84
20.48
17.24
15.04
13.57
12.62
12.23
12.68
14.22
16.76
19.73
22.29
23.71
23.77
22.81
21.50
20.37
19.49
18.45
16.75
14.17
10.99
8.00
6.15
6.23
8.72
13.77
21.15
30.37
40.64
50.86
59.84
66.53
70.31
71.14
69.57
66.43
62.52
58.37
54.16
49.92
45.72
41.69
37.91
34.19
30.00
24.73
18.11
10.51
2.78
-4.26
-10.13
-14.97
-19.00
-22.01
-23.07
-21.00
-15.22
-6.58
2.30
7.85
7.08
-0.94
-14.33
-28.96
-40.03
-43.77
-38.79
-26.37
-9.82
6.75
19.78
27.25
29.10
26.89
22.98
19.41
17.07
15.46
13.37
9.81
4.84
-0.26
-3.90
-5.30
-5.27
-5.73
-8.56
-14.35
-22.02
-29.37
-34.37
-36.20
-35.38
-33.16
-30.65
-28.39
-26.43
-24.78
-23.69
-23.58
-24.60
-26.43
-28.34
-29.60
-29.82
-29.06
-27.49
-25.13
-21.83
-17.50
-12.32
-6.82
-1.58
3.01
6.94
10.28
12.75
13.77
12.77
9.76
5.61
1.76
-0.64
-1.24
-0.77
-0.64
-2.38
-7.27
-15.96
-27.83
-40.46
-49.72
-50.80
-40.15
-17.17
15.32
52.07
87.48
117.40
139.75
153.92
159.82
157.53
147.68
132.14
113.80
95.49
78.65
62.86
47.00
31.02
17.01
8.57
8.77
17.92
32.91
48.31
58.86
61.78
57.79
50.12
42.62
37.70
35.50
34.46
32.86
30.27
27.93
27.97
32.04
40.09
50.11
58.84
63.32
62.28
56.71
49.15
42.34
37.90
35.90
35.29
34.84
33.87
32.31
30.27
27.69
24.36
20.38
16.61
14.69
16.30
22.24
31.69
42.49
52.36
60.08
66.09
72.04
79.57
89.13
99.52
108.33
113.05
112.00
104.65
91.53
73.68
52.45
29.70
7.93
-9.88
-20.83
-22.98
-16.10
-1.78
16.90
36.06
51.86
61.27
62.61
56.02
43.26
27.23
11.03
-3.06
-14.12
-22.59
-29.73
-36.85
-44.71
-53.25
-61.75
-69.17
-74.62
-77.55
-78.06
-76.80
-74.78
-73.07
-72.51
-73.49
-75.95
-79.57
-84.04
-89.12
-94.79
-101.22
-108.62
-117.13
-126.58
-136.40
-145.77
-153.77
-159.80
-163.71
-165.99
-167.54
-169.48
-172.74
-177.71
-184.11
-190.84
-196.26
-198.65
-196.72
-190.14
-179.60
-166.56
-152.61
-138.94
-125.91
-113.26
-100.37
-86.88
-72.82
-58.73
-45.27
-33.22
-23.04
-14.78
-8.29
-3.40
-0.14
1.47
1.48
0.17
-2.23
-5.49
-9.38
-13.63
-18.01
-22.35
-26.64
-31.00
-35.79
-41.86
-49.82
-59.55
-70.12
-80.28
-89.02
-95.79
-100.51
-103.31
-105.53
-108.11
-110.92
-112.85
-112.83
-110.68
-107.10
-103.27
-100.39
-101.85
-109.88
-124.03
-141.18
-157.50
-170.29
-178.36
-181.35
-179.19
-175.94
-174.85
-176.19
-176.97
-173.34
-162.79
-144.36
-118.37
-86.66
-58.14
-42.25
-44.79
-65.62
-100.56
-144.20
-191.30
-237.52
-246.61
-197.19
-94.62
30.91
147.96
241.02
309.16
357.47
391.27
413.56
421.24
412.00
388.22
357.37
327.78
304.58
288.55
277.55
266.89
249.81
222.00
184.32
142.59
103.62
71.78
47.78
33.60
25.51
17.44
4.74
-14.01
-36.62
-58.67
-74.89
-80.09
-70.31
-45.20
-9.17
29.82
63.45
86.33
97.62
100.33
99.23
98.18
98.06
97.36
94.09
87.62
79.58
72.83
69.59
70.48
74.58
80.09
85.35
88.83
88.71
82.88
69.63
48.81
22.53
-5.12
-29.77
-48.31
-59.93
-65.87
-67.98
-67.53
-64.77
-59.70
-53.03
-46.70
-43.17
-44.03
-49.06
-56.24
-62.66
-66.00
-65.15
-60.94
-54.78
-48.36
-42.87
-38.53
-34.83
-30.90
-25.96
-19.85
-12.62
-4.77
2.97
9.99
15.93
20.65
24.25
26.95
28.99
30.58
31.73
32.25
31.86
30.45
28.21
25.67
23.49
22.18
21.85
22.14
22.34
21.80
20.25
17.83
14.99
12.24
9.90
8.07
6.74
5.95
5.91
6.93
9.29
12.90
17.26
21.48
24.57
25.72
24.55
21.28
16.63
11.59
7.11
3.78
1.78
0.89
0.73
0.90
1.09
1.10
0.91
0.57
0.29
0.39
1.27
3.28
6.42
10.27
14.07
16.91
18.12
17.43
14.98
11.00
5.94
0.10
-6.32
-13.19
-20.09
-26.24
-30.58
-32.12
-30.41
-25.82
-19.56
-13.30
-8.64
-6.59
-7.30
-10.12
-13.91
-17.43
-19.70
-20.18
-18.89
-16.18
-12.47
-8.07
-3.06
2.61
8.99
15.94
23.10
30.07
36.58
42.72
48.84
55.23
61.72
67.45
71.05
71.10
66.72
57.70
44.46
27.68
8.05
-13.60
-36.06
-57.54
-75.89
-89.16
-96.32
-97.63
-94.39
-88.30
-80.55
-71.50
-60.80
-48.22
-34.22
-20.22
-8.18
0.30
4.74
6.08
6.35
7.79
11.96
19.13
28.27
37.49
44.68
48.20
47.31
42.36
34.51
25.36
16.27
7.98
0.44
-7.02
-15.09
-24.17
-34.09
-44.31
-54.23
-63.36
-71.30
-77.62
-81.77
-83.21
-81.67
-77.30
-70.84
-63.36
-55.92
-49.08
-42.91
-37.13
-31.44
-25.71
-19.99
-14.47
-9.37
-4.85
-0.57
4.20
10.27
18.38
29.08
42.78
59.56
78.87
99.37
119.41
136.83
149.00
153.27
147.92
133.15
111.35
86.38
62.51
44.02
33.96
33.67
42.56
58.43
78.07
97.70
113.61
118.82
109.14
85.51
54.37
24.12
0.53
-15.13
-24.53
-30.13
-33.45
-34.44
-32.79
-28.97
-24.56
-21.39
-20.46
-21.42
-22.97
-23.77
-22.88
-20.44
-17.90
-17.42
-20.89
-28.97
-40.83
-54.90
-69.63
-83.80
-97.21
-110.46
-124.77
-141.58
-162.07
-186.46
-213.10
-238.38
-257.04
-263.75
-255.26
-232.10
-198.77
-162.13
-128.95
-103.35
-86.24
-76.01
-70.17
-66.81
-65.05
-64.50
-64.32
-64.58
-64.28
-62.58
-59.36
-55.37
-51.76
-49.66
-49.58
-51.17
-53.61
-55.76
-56.95
-57.17
-57.04
-57.45
-59.17
-62.43
-66.96
-72.19
-77.31
-81.82
-85.56
-88.64
-91.21
-93.29
-94.63
-94.88
-93.83
-91.36
-87.69
-83.18
-78.11
-72.46
-65.90
-57.90
-48.15
-36.79
-24.42
-12.02
-0.46
9.93
19.61
29.68
41.43
55.65
72.23
90.12
107.79
123.95
138.15
151.06
164.26
179.58
198.58
222.13
250.02
280.68
310.99
336.70
353.36
357.85
349.72
331.76
309.25
288.18
273.33
266.88
268.50
276.28
288.13
302.74
319.96
340.37
364.41
391.45
419.25
444.12
461.89
469.52
466.46
454.81
438.17
419.56
399.95
377.98
351.36
318.91
282.00
244.27
209.95
181.78
159.88
142.15
125.81
109.11
92.12
76.36
63.66
54.88
49.25
44.63
38.42
28.54
14.26
-3.68
-23.63
-43.88
-63.46
-82.47
-101.93
-123.12
-147.03
-174.08
-204.13
-236.60
-270.28
-303.13
-332.14
-353.87
-365.54
-366.16
-356.99
-341.03
-321.68
-301.47
-281.41
-261.48
-241.59
-222.44
-205.46
-192.18
-183.33
-178.39
-175.86
-173.97
-171.40
-167.62
-162.81
-157.47
-152.06
-146.66
-141.09
-135.01
-128.17
-120.59
-112.61
-104.77
-97.64
-91.59
-86.69
-82.68
-79.13
-75.60
-71.88
-68.05
-64.54
-61.93
-60.69
-60.84
-61.87
-62.81
-62.60
-60.52
-56.48
-51.06
-45.22
-39.99
-36.07
-33.76
-32.95
-33.28
-34.33
-35.77
-37.39
-39.13
-40.98
-42.91
-44.86
-46.64
-47.95
-48.41
-47.70
-45.63
-42.24
-37.87
-32.99
-28.05
-23.29
-18.63
-13.81
-8.59
-2.97
2.75
8.06
12.52
15.95
18.52
20.57
22.35
23.94
25.16
25.82
25.89
25.56
25.19
25.08
25.33
25.84
26.37
26.67
26.62
26.20
25.44
24.40
23.10
21.58
19.83
17.84
15.56
12.93
9.96
6.81
3.86
1.65
0.69
1.27
3.32
6.35
9.69
12.69
14.90
16.18
16.68
16.64
16.29
15.73
14.94
13.78
12.02
9.46
5.93
1.47
-3.65
-8.84
-13.34
-16.46
-17.85
-17.61
-16.35
-14.85
-13.78
-13.42
-13.60
-13.87
-13.85
-13.44
-12.95
-12.97
-14.05
-16.42
-19.83
-23.58
-26.79
-28.72
-29.03
-27.83
-25.49
-22.37
-18.68
-14.46
-9.74
-4.79
-0.10
3.66
6.02
6.90
6.73
6.31
6.38
7.34
9.08
11.03
12.60
13.38
13.44
13.14
12.92
12.97
13.14
13.09
12.51
11.38
9.90
8.38
6.97
5.53
3.68
1.03
-2.63
-7.16
-12.06
-16.58
-19.87
-21.27
-20.39
-17.31
-12.49
-6.62
-0.48
5.31
10.38
14.56
17.84
20.16
21.39
21.36
19.98
17.35
13.92
10.29
7.10
4.74
3.24
2.28
1.40
0.19
-1.46
-3.49
-5.77
-8.20
-10.87
-13.89
-17.28
-20.97
-24.77
-28.64
-32.68
-37.16
-42.29
-48.00
-53.71
-58.46
-61.12
-60.74
-56.90
-49.75
-40.00
-28.66
-16.80
-5.34
5.03
13.85
20.96
26.36
30.25
32.90
34.63
35.75
36.58
37.37
38.36
39.72
41.47
43.51
45.64
47.64
49.38
50.78
51.75
52.06
51.31
49.02
44.87
38.89
31.50
23.39
15.19
7.25
-0.44
-8.02
-15.45
-22.24
-27.44
-29.98
-29.14
-24.90
-18.00
-9.70
-1.30
6.30
12.64
17.58
21.09
22.98
23.04
21.20
17.74
13.35
8.90
5.20
2.71
1.44
1.11
1.31
1.72
2.17
2.62
3.03
3.32
3.41
3.25
2.91
2.56
2.32
2.19
1.98
1.31
-0.20
-2.72
-6.17
-10.13
-13.94
-16.90
-18.35
-17.82
-15.12
-10.35
-3.87
3.73
11.82
19.74
26.93
32.93
37.41
40.19
41.25
40.74
38.97
36.35
33.32
30.30
27.58
25.35
23.70
22.61
22.04
21.88
22.01
22.31
22.69
23.06
23.35
23.48
23.28
22.57
21.21
19.18
16.66
14.03
11.69
9.92
8.83
8.36
8.44
9.19
11.01
14.45
20.00
27.85
37.69
48.81
60.26
71.14
80.76
88.84
95.39
100.72
105.28
109.45
113.47
117.31
120.69
123.31
124.96
125.70
125.86
125.82
125.94
126.33
126.87
127.11
126.37
123.63
117.77
107.84
93.47
75.20
54.39
32.84
12.11
-6.94
-24.21
-40.02
-54.59
-67.68
-78.63
-86.61
-91.09
-92.08
-90.21
-86.60
-82.55
-79.29
-77.60
-77.78
-79.69
-82.87
-86.86
-91.25
-95.64
-99.61
-102.61
-104.24
-104.47
-103.80
-103.15
-103.41
-104.99
-107.60
-110.42
-112.49
-113.12
-112.07
-109.48
-105.73
-101.25
-96.48
-91.88
-87.87
-84.84
-83.01
-82.43
-82.94
-84.21
-85.79
-87.15
-87.72
-87.01
-84.70
-80.77
-75.54
-69.70
-64.07
-59.40
-56.03
-53.69
-51.65
-49.03
-45.28
-40.56
-35.65
-31.62
-29.17
-28.31
-28.22
-27.67
-25.51
-21.12
-14.52
-6.28
2.83
12.04
20.83
29.00
36.73
44.53
53.10
63.11
74.92
88.47
103.24
118.30
132.43
144.38
153.20
158.77
162.07
164.96
169.36
176.04
183.73
189.30
188.99
180.32
163.33
140.67
116.14
92.78
71.65
51.91
32.21
12.27
-6.48
-21.47
-30.37
-32.34
-28.47
-20.95
-12.05
-3.19
5.14
12.95
20.07
25.82
29.12
29.06
25.32
18.43
9.58
0.21
-8.46
-15.69
-21.34
-25.71
-29.30
-32.57
-35.83
-39.16
-42.44
-45.45
-47.87
-49.34
-49.49
-47.95
-44.52
-39.26
-32.55
-25.13
-17.95
-11.97
-7.91
-6.04
-6.21
-7.90
-10.49
-13.46
-16.51
-19.57
-22.63
-25.70
-28.76
-31.82
-34.89
-37.98
-41.02
-43.86
-46.26
-48.03
-49.17
-49.95
-50.86
-52.46
-55.10
-58.77
-63.06
-67.37
-71.23
-74.46
-77.37
-80.45
-84.08
-88.13
-91.88
-94.16
-93.85
-90.30
-83.66
-74.71
-64.59
-54.43
-45.05
-37.00
-30.58
-25.97
-23.20
-22.13
-22.41
-23.49
-24.76
-25.69
-25.91
-25.28
-23.82
-21.70
-19.14
-16.39
-13.64
-10.96
-8.31
-5.54
-2.56
0.55
3.55
6.09
7.84
8.70
8.73
8.10
6.93
5.26
3.07
0.55
-1.89
-3.52
-3.62
-1.71
2.15
7.38
13.08
18.35
22.49
25.18
26.34
26.05
24.44
21.62
17.75
13.00
7.53
1.52
-4.83
-11.26
-17.42
-22.86
-27.12
-29.88
-31.06
-30.97
-30.25
-29.67
-29.97
-31.51
-34.18
-37.50
-40.85
-43.82
-46.41
-49.11
-52.60
-57.44
-63.74
-71.02
-78.30
-84.38
-88.16
-88.95
-86.62
-81.61
-74.79
-67.19
-59.72
-52.89
-46.71
-40.72
-34.29
-26.97
-18.87
-10.79
-3.96
0.44
1.99
1.32
0.07
0.19
3.16
9.33
17.77
26.73
34.29
39.15
40.91
40.01
37.40
34.12
30.79
27.43
23.42
17.77
9.68
-1.02
-13.71
-27.19
-40.12
-51.46
-60.46
-66.42
-68.41
-65.42
-56.87
-43.24
-26.44
-9.42
4.78
14.12
18.22
18.16
15.77
12.72
9.99
7.75
5.72
3.53
0.97
-1.91
-4.91
-7.77
-10.09
-11.40
-11.06
-8.42
-3.14
4.48
13.35
21.77
28.02
30.95
30.48
27.60
23.93
21.04
19.78
20.00
20.79
21.06
20.27
18.69
17.40
17.67
20.41
25.66
32.60
39.95
46.50
51.55
55.00
57.13
58.28
58.65
58.32
57.35
55.99
54.69
53.90
53.80
54.16
54.33
53.52
51.16
47.27
42.57
38.17
35.09
33.77
33.85
34.36
34.23
32.81
30.07
26.52
22.72
19.01
15.28
11.26
6.82
2.33
-1.39
-3.33
-2.80
0.22
5.08
10.72
16.16
20.79
24.38
27.01
28.81
30.00
30.94
32.11
34.05
37.05
40.98
45.22
48.94
51.43
52.39
51.92
50.39
48.20
45.70
43.25
41.22
39.96
39.68
40.34
41.54
42.63
42.79
41.27
37.55
31.52
23.59
14.69
6.13
-0.74
-4.88
-5.88
-4.04
-0.28
4.26
8.53
11.87
14.10
15.42
16.25
16.95
17.73
18.62
19.54
20.40
21.08
21.52
21.70
21.63
21.43
21.21
21.05
20.96
20.89
20.82
20.77
20.95
21.57
22.72
24.19
25.42
25.58
23.93
20.25
14.98
9.18
4.12
0.84
-0.22
0.76
3.29
6.95
11.58
17.28
24.08
31.60
39.02
45.21
49.20
50.48
49.11
45.61
40.69
34.97
28.92
22.78
16.73
10.98
5.81
1.58
-1.43
-3.21
-4.00
-4.30
-4.63
-5.34
-6.43
-7.70
-8.93
-10.11
-11.50
-13.44
-16.13
-19.41
-22.84
-25.94
-28.39
-30.25
-31.77
-33.20
-34.54
-35.42
-35.17
-33.10
-28.79
-22.35
-14.49
-6.33
0.92
6.38
9.75
11.26
11.45
10.76
9.36
7.24
4.43
1.32
-1.35
-2.71
-2.19
0.17
3.68
7.25
9.84
10.86
10.29
8.64
6.60
4.83
3.67
3.13
2.90
2.50
1.49
-0.43
-3.23
-6.56
-9.82
-12.31
-13.44
-12.82
-10.34
-6.15
-0.63
5.69
12.17
18.06
22.71
25.63
26.61
25.80
23.65
20.71
17.53
14.56
12.01
9.91
8.15
6.52
4.91
3.32
1.89
0.86
0.34
0.33
0.59
0.79
0.61
-0.18
-1.61
-3.59
-5.93
-8.42
-10.84
-13.00
-14.82
-16.25
-17.32
-18.05
-18.38
-18.15
-17.23
-15.58
-13.37
-11.00
-9.00
-7.88
-8.03
-9.69
-12.87
-17.45
-23.00
-28.85
-34.14
-38.08
-40.29
-40.98
-41.02
-41.49
-43.20
-46.28
-50.15
-53.89
-56.68
-58.11
-58.16
-56.87
-54.22
-50.20
-45.14
-39.97
-36.11
-34.91
-37.13
-42.38
-49.28
-55.80
-59.89
-59.96
-55.11
-45.25
-30.95
-13.40
5.81
25.06
42.97
58.62
71.58
81.77
89.26
94.22
96.91
97.67
96.69
93.76
88.26
79.39
66.92
51.75
35.92
21.91
11.52
5.09
1.49
-0.83
-2.67
-3.34
-1.04
5.93
17.99
33.91
51.49
68.79
85.01
100.55
116.25
132.31
147.74
160.57
168.70
170.80
166.88
158.24
146.72
134.00
120.82
106.96
91.65
74.37
55.47
36.40
19.32
6.15
-2.22
-6.30
-7.71
-8.48
-10.29
-13.97
-19.48
-26.11
-32.97
-39.34
-44.99
-50.15
-55.28
-60.73
-66.52
-72.24
-77.33
-81.43
-84.53
-86.97
-89.10
-90.96
-92.14
-91.97
-89.91
-85.85
-80.17
-73.52
-66.44
-59.19
-51.68
-43.77
-35.55
-27.37
-19.87
-13.65
-9.00
-5.76
-3.40
-1.31
0.99
3.62
6.52
9.47
12.28
14.77
16.66
17.60
17.31
15.88
14.02
12.95
13.91
17.54
23.41
29.98
35.24
37.45
35.75
30.28
21.87
11.55
0.36
-10.68
-20.38
-27.39
-30.53
-29.32
-24.30
-16.89
-8.90
-1.79
3.68
7.31
9.15
9.15
7.10
2.88
-3.34
-11.04
-19.50
-28.07
-36.25
-43.63
-49.71
-53.82
-55.36
-54.06
-50.24
-44.72
-38.57
-32.70
-27.71
-23.85
-21.20
-19.68
-19.15
-19.31
-19.74
-20.05
-19.97
-19.47
-18.71
-17.88
-17.04
-16.09
-14.75
-12.67
-9.64
-5.54
-0.44
5.43
11.67
17.78
23.13
27.18
29.61
30.37
29.77
28.31
26.54
24.93
23.75
23.19
23.38
24.45
26.58
29.80
33.87
38.26
42.24
45.14
46.64
46.95
46.71
46.75
47.70
49.71
52.46
55.38
58.00
60.22
62.44
65.40
69.91
76.63
85.89
97.63
111.39
126.32
141.33
155.29
167.47
177.82
187.02
196.15
206.23
217.67
230.04
242.11
252.17
258.52
259.86
255.60
245.89
231.58
213.91
194.21
173.62
152.92
132.57
112.80
93.73
75.35
57.45
39.52
20.85
0.75
-21.24
-45.18
-70.66
-96.74
-122.08
-145.21
-164.84
-180.16
-190.95
-197.50
-200.31
-199.84
-196.41
-190.17
-181.22
-169.65
-155.67
-139.79
-122.87
-106.22
-91.23
-78.90
-69.37
-61.85
-55.10
-48.17
-41.00
-34.28
-28.77
-24.58
-20.92
-16.76
-11.75
-6.89
-4.31
-6.16
-13.42
-25.29
-39.55
-53.75
-66.25
-76.67
-85.55
-93.58
-101.00
-107.45
-112.29
-115.05
-115.55
-113.87
-110.11
-104.38
-96.91
-88.26
-79.32
-71.07
-64.24
-59.04
-55.16
-52.12
-49.65
-47.91
-47.34
-48.25
-50.41
-52.89
-54.40
-53.93
-51.30
-47.29
-43.21
-40.17
-38.45
-37.34
-35.52
-31.76
-25.61
-17.74
-9.88
-4.43
-3.86
-9.99
-23.36
-42.98
-66.41
-90.46
-111.99
-128.56
-138.73
-141.84
-137.68
-126.44
-108.96
-87.01
-63.28
-40.80
-21.93
-7.60
2.75
10.61
17.38
23.70
29.32
33.67
36.46
37.88
38.44
38.55
38.38
38.01
37.85
38.77
41.75
47.17
54.11
60.03
61.42
55.24
40.39
18.69
-5.72
-28.02
-44.65
-54.11
-56.33
-51.30
-38.08
-15.24
17.33
56.87
97.49
132.17
155.66
166.67
167.76
163.18
156.17
147.51
136.10
120.89
102.45
83.07
65.57
51.64
41.09
32.27
23.41
13.70
3.61
-5.64
-13.08
-18.70
-23.37
-28.35
-34.47
-41.78
-49.57
-56.87
-62.96
-67.61
-71.00
-73.47
-75.29
-76.70
-77.99
-79.47
-81.23
-82.90
-83.48
-81.68
-76.52
-67.95
-57.02
-45.57
-35.37
-27.52
-22.10
-18.55
-16.22
-14.82
-14.49
-15.47
-17.75
-20.93
-24.42
-27.90
-31.48
-35.68
-41.03
-47.63
-54.92
-61.90
-67.42
-70.65
-71.31
-69.66
-66.37
-62.30
-58.35
-55.18
-53.21
-52.45
-52.67
-53.64
-55.35
-58.09
-62.24
-67.82
-74.21
-80.05
-83.59
-83.44
-79.01
-70.79
-60.02
-48.24
-36.80
-26.71
-18.61
-12.83
-9.47
-8.28
-8.66
-9.80
-10.95
-11.77
-12.32
-12.98
-14.16
-16.01
-18.38
-20.87
-23.02
-24.37
-24.51
-23.11
-20.17
-16.16
-12.11
-9.42
-9.37
-12.60
-18.92
-27.38
-36.81
-46.35
-55.62
-64.52
-72.83
-79.81
-84.27
-84.96
-81.10
-72.76
-60.92
-47.04
-32.69
-19.15
-7.24
2.61
10.32
15.99
19.98
22.78
25.01
27.26
29.91
33.06
36.46
39.59
41.85
42.83
42.38
40.86
38.84
37.05
35.97
35.61
35.39
34.35
31.51
26.16
18.21
8.09
-3.49
-15.80
-28.41
-41.12
-53.75
-65.90
-76.80
-85.45
-90.85
-92.31
-89.57
-82.92
-73.02
-60.89
-47.87
-35.44
-25.08
-17.86
-14.11
-13.23
-13.84
-14.22
-12.94
-9.29
-3.55
3.35
10.26
16.47
22.05
27.88
35.40
45.88
59.87
76.70
94.34
109.78
119.75
121.66
114.40
98.73
77.22
53.61
31.95
15.60
6.35
4.22
7.60
14.12
21.54
28.47
34.64
40.53
46.74
53.41
60.09
66.09
70.92
74.71
78.18
82.39
88.22
95.73
103.86
110.24
111.76
105.59
90.55
67.88
41.15
15.04
-6.49
-21.62
-30.99
-36.79
-41.21
-45.34
-49.04
-51.78
-53.69
-56.02
-60.51
-68.23
-78.45
-88.53
-94.81
-94.35
-86.47
-73.41
-59.78
-50.69
-49.56
-56.59
-68.61
-80.32
-86.66
-84.66
-74.39
-58.65
-41.43
-26.18
-14.63
-6.64
-0.96
3.54
7.06
8.85
7.63
2.56
-6.05
-16.70
-27.32
-35.97
-41.74
-44.59
-45.04
-44.27
-43.45
-43.52
-45.06
-48.30
-52.83
-58.26
-63.60
-67.34
-68.90
-68.32
-65.82
-61.41
-55.01
-46.17
-36.13
-26.49
-18.48
-14.28
-15.47
-21.89
-31.35
-40.21
-43.62
-39.46
-27.49
-9.48
8.34
17.53
10.65
-15.65
-59.27
-112.49
-167.79
-218.68
-247.27
-242.02
-202.73
-142.37
-80.46
-42.29
-28.64
-33.13
-47.22
-62.41
-70.24
-66.95
-52.43
-29.40
-2.29
25.56
49.83
68.28
81.25
88.69
89.84
84.38
73.20
58.63
44.70
33.39
25.70
22.19
22.21
24.48
28.46
34.60
44.20
59.21
80.13
106.88
139.23
176.62
218.55
265.55
318.97
379.79
446.97
515.02
574.67
615.32
628.53
611.40
568.33
509.46
446.89
390.59
345.46
311.38
285.05
262.39
240.03
215.99
189.38
160.11
128.83
97.00
66.68
39.95
18.32
2.17
-9.45
-18.48
-27.20
-37.42
-49.77
-63.28
-75.56
-83.59
-85.06
-79.50
-68.83
-56.70
-47.11
-42.84
-44.51
-50.64
-58.73
-66.40
-72.22
-75.80
-77.40
-77.45
-76.29
-74.21
-71.48
-68.33
-64.77
-60.43
-54.55
-46.43
-35.90
-23.73
-11.64
-1.86
3.61
3.72
-1.20
-9.69
-19.80
-29.91
-39.28
-48.04
-56.86
-66.32
-76.52
-86.84
-95.88
-101.71
-102.07
-95.05
-79.93
-58.13
-33.55
-11.77
1.93
4.87
-1.68
-12.97
-23.05
-27.66
-26.15
-21.35
-17.67
-18.53
-24.82
-34.90
-46.04
-56.27
-65.24
-73.80
-82.78
-91.99
-100.02
-105.02
-105.95
-103.27
-98.83
-95.09
-94.22
-97.50
-105.25
-117.19
-132.84
-151.58
-172.47
-193.98
-213.94
-229.65
-238.53
-238.73
-229.54
-211.53
-186.31
-156.15
-123.49
-90.47
-58.71
-29.27
-2.87
19.83
38.06
51.06
58.39
60.34
58.04
53.37
48.30
44.36
42.20
41.48
41.29
40.62
38.79
35.60
31.22
25.96
20.14
14.04
7.92
2.14
-2.99
-7.33
-11.06
-14.72
-18.93
-24.09
-29.98
-35.69
-39.82
-40.99
-38.30
-31.56
-21.28
-8.40
6.08
21.25
36.39
50.84
63.90
74.81
82.77
87.17
87.78
84.98
79.70
73.29
67.16
62.41
59.54
58.44
58.57
59.29
60.03
60.37
59.98
58.64
56.15
52.49
47.91
42.80
37.56
32.29
26.71
20.34
12.85
4.43
-4.07
-11.31
-15.94
-17.10
-14.58
-8.84
-0.62
9.33
20.41
32.13
43.90
54.95
64.43
71.55
75.82
77.11
75.68
72.16
67.44
62.56
58.52
56.02
55.32
56.10
57.63
58.99
59.38
58.36
55.93
52.45
48.50
44.66
41.24
38.23
35.31
31.93
27.63
22.21
15.85
9.10
2.63
-2.95
-7.27
-10.36
-12.55
-14.41
-16.58
-19.61
-23.86
-29.46
-36.28
-43.91
-51.61
-58.34
-62.87
-64.05
-61.22
-54.46
-44.62
-33.04
-21.14
-10.02
-0.36
7.52
13.44
17.25
18.87
18.35
16.00
12.28
7.77
2.99
-1.67
-5.85
-9.29
-11.81
-13.41
-14.28
-14.85
-15.55
-16.76
-18.62
-21.05
-23.71
-26.26
-28.44
-30.18
-31.68
-33.29
-35.45
-38.50
-42.52
-47.18
-51.81
-55.44
-57.11
-56.04
-51.87
-44.73
-35.25
-24.44
-13.50
-3.59
4.40
10.01
13.20
14.21
13.43
11.25
7.97
3.88
-0.68
-5.29
-9.49
-12.95
-15.47
-17.08
-17.99
-18.46
-18.81
-19.25
-19.88
-20.66
-21.45
-22.07
-22.45
-22.63
-22.82
-23.28
-24.38
-26.45
-29.85
-34.72
-40.78
-47.11
-52.07
-53.70
-50.34
-41.31
-27.41
-10.68
6.22
20.94
32.12
39.60
44.03
46.29
46.94
46.03
43.42
39.17
33.86
28.52
24.31
21.96
21.46
22.15
23.03
23.32
22.75
21.57
20.24
19.15
18.35
17.66
16.84
15.77
14.50
13.12
11.54
9.44
6.27
1.52
-5.01
-12.96
-21.28
-28.44
-32.77
-33.05
-28.86
-20.80
-10.26
1.03
11.54
20.26
26.79
31.17
33.60
34.33
33.56
31.50
28.47
24.84
21.06
17.47
14.39
12.04
10.56
10.03
10.37
11.34
12.48
13.28
13.30
12.29
10.30
7.56
4.38
1.01
-2.45
-6.09
-10.10
-14.75
-20.15
-26.16
-32.20
-37.29
-40.20
-39.81
-35.46
-27.25
-16.04
-3.26
9.51
20.88
29.88
36.04
39.27
39.78
37.93
34.17
29.01
23.01
16.77
10.94
6.10
2.71
0.98
0.84
1.91
3.66
5.54
7.10
8.03
8.20
7.60
6.20
4.04
1.15
-2.45
-6.73
-11.72
-17.45
-23.96
-31.17
-38.76
-45.99
-51.73
-54.70
-53.79
-48.44
-38.96
-26.42
-12.46
1.24
13.27
22.77
29.38
33.10
34.17
32.94
29.87
25.57
20.76
16.16
12.37
9.76
8.40
8.12
8.62
9.49
10.39
11.04
11.26
10.96
10.16
8.88
7.14
4.90
2.15
-1.17
-5.06
-9.57
-14.81
-20.89
-27.90
-35.59
-43.29
-49.80
-53.67
-53.58
-48.80
-39.47
-26.61
-11.83
3.10
16.69
27.85
36.04
41.13
43.30
43.00
40.83
37.46
33.54
29.53
25.71
22.26
19.26
16.84
15.11
14.10
13.67
13.50
13.18
12.35
10.82
8.54
5.53
1.81
-2.67
-7.93
-13.89
-20.38
-27.16
-34.06
-41.02
-48.01
-54.82
-60.85
-65.12
-66.49
-64.04
-57.51
-47.51
-35.35
-22.69
-11.03
-1.37
5.87
10.73
13.50
14.59
14.49
13.77
13.02
12.73
13.12
14.03
15.06
15.74
15.87
15.57
15.18
15.06
15.37
15.96
16.56
16.83
16.65
16.02
15.12
14.09
12.97
11.65
9.83
7.06
2.87
-3.11
-10.84
-19.73
-28.60
-35.89
-40.04
-39.98
-35.39
-26.75
-15.20
-2.17
10.89
22.74
32.51
39.70
44.18
46.09
45.83
43.91
40.91
37.36
33.74
30.39
27.56
25.35
23.79
22.82
22.46
22.71
23.55
24.88
26.41
27.72
28.38
28.12
26.94
25.11
23.04
21.05
19.20
17.22
14.65
11.03
6.15
0.25
-5.95
-11.37
-14.75
-15.02
-11.60
-4.60
5.07
15.99
26.52
35.26
41.33
44.46
44.89
43.15
39.75
35.13
29.59
23.36
16.78
10.21
4.14
-0.99
-4.81
-7.12
-8.00
-7.77
-6.97
-6.24
-6.19
-7.22
-9.42
-12.62
-16.44
-20.53
-24.66
-28.79
-33.05
-37.62
-42.70
-48.44
-54.83
-61.60
-68.11
-73.35
-76.06
-75.09
-69.79
-60.25
-47.33
-32.51
-17.42
-3.52
8.16
17.03
22.89
25.78
25.90
23.57
19.28
13.65
7.43
1.47
-3.48
-6.85
-8.36
-8.01
-6.05
-2.87
1.05
5.19
9.06
12.25
14.48
15.63
15.68
14.66
12.55
9.29
4.78
-0.96
-7.79
-15.38
-23.26
-30.80
-37.26
-41.82
-43.66
-42.15
-37.00
-28.45
-17.23
-4.46
8.60
20.78
31.21
39.32
44.91
48.02
48.88
47.88
45.48
42.17
38.46
34.82
31.59
29.03
27.21
26.03
25.33
24.93
24.71
24.54
24.25
23.61
22.29
20.00
16.52
11.86
6.16
-0.29
-7.22
-14.44
-21.87
-29.49
-37.19
-44.54
-50.71
-54.61
-55.10
-51.46
-43.75
-32.87
-20.32
-7.79
3.35
12.31
18.85
23.15
25.45
26.02
25.12
23.01
20.06
16.70
13.39
10.57
8.61
7.85
8.53
10.68
14.09
18.17
22.17
25.29
26.95
26.91
25.19
21.96
17.45
11.85
5.43
-1.52
-8.66
-15.86
-23.16
-30.77
-38.74
-46.69
-53.72
-58.54
-59.87
-56.97
-49.89
-39.44
-26.95
-13.91
-1.58
9.10
17.53
23.44
26.79
27.73
26.62
23.94
20.24
16.10
12.08
8.64
6.17
4.92
4.99
6.29
8.44
10.90
13.00
14.14
13.92
12.27
9.40
5.71
1.62
-2.59
-6.88
-11.41
-16.54
-22.61
-29.78
-37.83
-46.07
-53.28
-57.97
-58.73
-54.66
-45.75
-32.96
-18.02
-2.91
10.61
21.40
28.98
33.47
35.24
34.74
32.36
28.49
23.60
18.23
12.96
8.30
4.64
2.18
0.95
0.76
1.32
2.22
3.03
3.34
2.89
1.61
-0.40
-2.90
-5.65
-8.49
-11.48
-14.83
-18.90
-24.06
-30.45
-37.89
-45.62
-52.43
-56.80
-57.32
-53.12
-44.16
-31.38
-16.37
-1.04
12.91
24.33
32.68
37.89
40.25
40.14
37.99
34.26
29.47
24.17
18.96
14.36
10.80
8.46
7.34
7.27
7.89
8.81
9.67
10.16
10.08
9.31
7.76
5.42
2.35
-1.35
-5.52
-10.13
-15.31
-21.31
-28.33
-36.14
-43.87
-50.03
-52.85
-50.92
-43.68
-31.74
-16.70
-0.63
14.50
27.28
36.99
43.52
47.08
48.00
46.57
43.14
38.10
32.06
25.73
19.84
14.98
11.42
9.12
7.79
7.04
6.55
6.09
5.54
4.78
3.69
2.11
-0.04
-2.75
-5.92
-9.51
-13.59
-18.43
-24.39
-31.67
-40.03
-48.63
-56.06
-60.69
-61.13
-56.64
-47.43
-34.56
-19.65
-4.42
9.65
21.54
30.70
36.93
40.22
40.73
38.69
34.54
28.90
22.59
16.49
11.45
8.12
6.89
7.78
10.55
14.66
19.41
24.08
28.05
30.84
32.18
31.97
30.20
26.93
22.30
16.45
9.59
1.96
-6.21
-14.60
-22.76
-30.02
-35.51
-38.23
-37.36
-32.52
-23.95
-12.60
0.10
12.50
23.12
30.94
35.55
37.09
36.09
33.21
29.02
23.95
18.28
12.32
6.50
1.34
-2.59
-4.95
-5.74
-5.32
-4.30
-3.34
-2.88
-3.09
-3.86
-4.99
-6.38
-8.08
-10.32
-13.37
-17.42
-22.55
-28.69
-35.57
-42.75
-49.45
-54.61
-56.98
-55.46
-49.39
-38.91
-25.02
-9.37
6.10
19.69
30.20
37.11
40.48
40.74
38.52
34.46
29.24
23.51
17.88
12.97
9.23
6.94
6.08
6.41
7.45
8.65
9.54
9.82
9.34
8.16
6.38
4.11
1.40
-1.74
-5.38
-9.69
-14.83
-20.92
-27.83
-35.10
-41.82
-46.76
-48.62
-46.41
-39.82
-29.33
-16.07
-1.67
12.23
24.25
33.48
39.54
42.42
42.48
40.21
36.18
30.99
25.17
19.25
13.74
9.13
5.78
3.86
3.26
3.56
4.20
4.67
4.64
4.05
3.03
1.70
-0.00
-2.27
-5.42
-9.69
-15.12
-21.55
-28.68
-36.07
-43.12
-49.05
-52.90
-53.67
-50.56
-43.30
-32.29
-18.64
-3.92
10.17
22.17
31.11
36.57
38.71
38.00
35.13
30.78
25.58
20.08
14.79
10.18
6.68
4.57
3.91
4.47
5.79
7.28
8.38
8.66
7.93
6.21
3.66
0.49
-3.19
-7.40
-12.22
-17.80
-24.23
-31.40
-39.04
-46.55
-53.09
-57.56
-58.79
-55.86
-48.40
-36.91
-22.70
-7.64
6.35
17.80
25.92
30.59
32.21
31.33
28.56
24.42
19.43
14.09
8.97
4.57
1.28
-0.70
-1.37
-0.99
0.09
1.43
2.66
3.48
3.76
3.43
2.45
0.84
-1.44
-4.35
-7.95
-12.30
-17.58
-23.87
-31.02
-38.42
-44.95
-49.19
-49.80
-45.98
-37.74
-25.90
-11.81
2.98
17.01
29.10
38.34
44.18
46.45
45.41
41.73
36.33
30.20
24.16
18.73
14.18
10.57
7.90
6.17
5.35
5.34
5.99
7.01
8.05
8.73
8.74
7.89
6.14
3.57
0.30
-3.65
-8.40
-14.17
-21.11
-29.03
-37.21
-44.38
-48.97
-49.53
-45.22
-36.09
-23.12
-7.96
7.47
21.46
32.76
40.77
45.37
46.83
45.57
42.08
36.91
30.66
23.99
17.63
12.20
8.16
5.71
4.75
5.01
6.04
7.40
8.68
9.57
9.87
9.48
8.36
6.54
4.08
1.03
-2.52
-6.56
-11.12
-16.32
-22.18
-28.50
-34.60
-39.24
-40.87
-38.07
-30.12
-17.39
-1.32
15.99
32.48
46.68
57.97
66.44
72.53
76.69
79.28
80.50
80.42
79.05
76.29
72.03
66.28
59.30
51.67
44.10
37.14
30.97
25.29
19.43
12.70
4.70
-4.57
-14.68
-25.05
-35.12
-44.59
-53.46
-62.00
-70.59
-79.47
-88.56
-97.31
-104.72
-109.47
-110.23
-106.03
-96.55
-82.32
-64.66
-45.37
-26.35
-9.14
5.30
16.70
25.34
31.82
36.81
40.84
44.26
47.26
49.98
52.64
55.53
58.88
62.71
66.67
70.07
72.14
72.44
70.99
68.27
64.96
61.69
58.92
56.95
55.93
55.75
56.00
55.89
54.59
51.68
47.62
43.88
42.54
45.57
54.05
67.76
85.23
104.28
122.64
138.56
150.99
159.58
164.35
165.33
162.35
155.03
143.07
126.56
106.04
82.33
56.03
27.17
-4.57
-39.17
-75.53
-111.24
-143.23
-168.97
-187.73
-200.88
-211.26
-221.80
-234.23
-248.49
-263.03
-275.81
-285.12
-290.09
-290.54
-286.56
-278.14
-265.11
-247.41
-225.51
-200.61
-174.58
-149.56
-127.34
-108.92
-94.32
-82.75
-73.13
-64.56
-56.68
-49.71
-44.18
-40.64
-39.28
-39.66
-40.64
-40.56
-37.66
-30.70
-19.45
-4.82
11.40
27.18
40.83
51.45
59.00
64.03
67.33
69.56
71.01
71.61
70.97
68.51
63.59
55.67
44.57
30.64
14.93
-0.78
-14.30
-23.53
-27.04
-24.48
-16.53
-4.58
9.81
25.25
40.55
54.56
65.97
73.42
75.88
73.12
66.00
56.28
46.13
37.42
31.21
27.65
26.19
26.07
26.68
27.67
28.87
29.96
30.37
29.33
26.17
20.62
13.04
4.26
-4.66
-12.94
-20.27
-26.85
-33.09
-39.22
-44.95
-49.39
-51.20
-49.08
-42.22
-30.68
-15.48
1.65
18.72
33.99
46.26
55.04
60.34
62.49
61.81
58.61
53.17
45.97
37.73
29.43
22.14
16.72
13.67
12.92
13.96
16.05
18.35
20.19
21.12
20.96
19.74
17.61
14.74
11.24
7.02
1.82
-4.65
-12.49
-21.37
-30.41
-38.20
-43.16
-43.98
-39.97
-31.27
-18.77
-3.90
11.76
26.70
39.69
49.81
56.47
59.47
58.96
55.54
50.08
43.59
37.01
31.06
26.16
22.40
19.73
18.00
17.08
16.84
17.15
17.82
18.56
19.07
18.98
17.97
15.79
12.24
7.23
0.74
-7.11
-16.07
-25.70
-35.31
-43.91
-50.28
-53.07
-51.20
-44.17
-32.34
-17.00
-0.01
16.65
31.31
42.95
51.15
55.93
57.48
56.08
52.08
46.03
38.67
30.95
23.81
18.00
13.91
11.51
10.44
10.21
10.31
10.40
10.30
9.95
9.30
8.19
6.39
3.61
-0.36
-5.68
-12.35
-20.29
-29.26
-38.75
-47.90
-55.47
-59.97
-60.05
-54.93
-44.70
-30.41
-13.81
3.06
18.39
30.93
40.12
45.90
48.57
48.55
46.28
42.21
36.85
30.87
25.02
20.08
16.63
14.87
14.50
14.92
15.36
15.30
14.65
13.68
12.85
12.43
12.30
11.97
10.77
8.20
3.98
-1.84
-9.04
-17.30
-26.06
-34.48
-41.33
-45.15
-44.69
-39.25
-29.05
-15.20
0.54
16.25
30.25
41.34
48.92
52.84
53.29
50.70
45.61
38.78
31.07
23.49
17.03
12.47
10.21
10.11
11.59
13.83
16.11
18.01
19.53
20.95
22.55
24.41
26.31
27.64
27.54
24.93
18.72
8.10
-7.07
-25.73
-45.65
-63.67
-76.60
-82.17
-79.68
-70.01
-55.10
-37.18
-18.17
0.60
18.33
34.62
49.39
62.79
75.08
86.46
96.87
105.89
112.93
117.37
118.83
117.10
112.19
104.29
93.86
81.85
69.72
59.18
51.73
47.95
47.05
46.92
44.61
37.30
23.41
3.21
-21.20
-46.68
-70.26
-90.22
-106.42
-119.92
-132.11
-143.72
-154.52
-163.48
-169.39
-171.56
-170.07
-165.74
-159.86
-153.92
-149.46
-147.87
-150.12
-156.50
-166.48
-178.81
-191.87
-203.96
-213.63
-219.92
-222.55
-222.09
-219.79
-217.21
-215.56
-215.14
-215.16
-214.15
-210.69
-204.04
-194.36
-182.24
-168.38
-153.42
-138.25
-124.21
-112.83
-104.99
-100.07
-95.77
-89.02
-77.37
-60.22
-38.95
-16.10
6.14
26.80
46.23
65.25
84.24
102.74
119.73
134.36
146.67
157.74
169.80
185.73
208.40
239.68
279.18
323.51
366.50
400.77
419.96
420.87
404.17
373.67
334.63
292.13
250.12
211.30
177.44
149.52
127.73
111.10
97.54
84.68
70.89
56.00
41.27
28.56
19.38
14.71
14.14
16.13
18.72
20.45
20.97
21.06
21.97
24.90
31.49
42.41
57.20
74.52
93.00
111.81
130.47
148.57
165.30
181.11
195.76
208.02
215.41
215.19
205.49
186.36
160.36
132.34
110.29
100.25
103.64
116.01
129.82
138.26
138.26
131.28
108.56
68.24
14.41
-44.13
-99.27
-146.37
-183.84
-211.27
-228.68
-236.97
-236.18
-228.24
-216.89
-207.50
-204.79
-211.22
-227.14
-251.52
-282.26
-314.37
-342.13
-354.73
-346.60
-318.20
-275.77
-229.06
-187.65
-157.56
-138.80
-127.79
-120.02
-113.63
-108.79
-106.17
-105.49
-104.87
-101.77
-93.52
-79.68
-61.72
-43.34
-28.09
-17.50
-10.74
-5.32
1.57
11.89
25.57
41.55
57.26
70.58
80.99
89.86
100.06
115.33
139.75
172.31
212.29
256.85
300.88
337.59
360.16
363.99
348.52
317.52
277.50
235.97
198.10
166.03
139.56
117.71
99.87
86.05
76.09
68.94
63.14
56.88
49.05
39.75
29.96
20.96
13.70
8.65
5.99
6.26
9.92
17.03
26.96
38.29
49.35
58.72
65.72
70.26
72.63
72.88
70.69
65.59
57.30
45.98
32.12
16.34
-0.78
-18.51
-35.88
-51.49
-63.99
-72.71
-78.40
-83.25
-89.92
-100.16
-113.59
-127.56
-138.25
-142.46
-139.21
-130.19
-119.11
-110.08
-106.25
-109.01
-118.07
-131.95
-148.39
-164.55
-177.22
-183.51
-181.85
-173.08
-160.70
-150.00
-146.24
-152.68
-169.28
-192.75
-217.88
-239.47
-254.04
-260.71
-260.98
-257.55
-252.85
-247.75
-241.23
-231.02
-214.96
-192.34
-164.53
-134.64
-106.30
-82.34
-64.07
-51.39
-43.23
-38.07
-34.10
-29.20
-21.24
-8.71
8.44
28.27
47.28
61.65
68.95
69.27
65.32
61.35
61.46
67.99
80.75
97.24
113.66
126.26
132.34
130.81
122.19
108.27
91.55
74.75
60.20
49.41
42.79
39.74
38.92
38.86
38.37
36.77
33.79
29.44
23.83
17.28
10.40
4.07
-0.80
-3.78
-5.27
-6.56
-9.27
-14.60
-22.57
-31.85
-40.20
-45.40
-46.17
-42.57
-35.87
-27.92
-20.39
-14.31
-9.97
-7.10
-5.24
-4.04
-3.34
-3.28
-4.05
-5.73
-8.05
-10.29
-11.44
-10.56
-7.28
-1.99
4.28
10.22
14.85
17.81
19.35
20.06
20.47
20.72
20.71
20.21
19.14
17.61
15.87
14.09
12.26
10.31
8.19
6.09
4.40
3.68
4.47
7.09
11.59
17.70
24.85
32.29
39.21
44.90
48.82
50.74
50.70
49.02
46.17
42.72
39.21
36.15
33.93
32.73
32.53
33.03
33.84
34.51
34.73
34.33
33.37
32.06
30.62
29.19
27.79
26.24
24.26
21.53
17.85
13.27
8.19
3.35
-0.38
-2.13
-1.34
2.10
7.86
15.20
23.23
31.07
37.99
43.46
47.16
48.98
48.93
47.27
44.39
40.79
37.02
33.55
30.73
28.72
27.47
26.72
26.10
25.21
23.83
21.93
19.67
17.32
15.06
12.90
10.71
8.27
5.40
2.05
-1.71
-5.71
-9.71
-13.36
-16.21
-17.74
-17.48
-15.12
-10.65
-4.39
3.07
10.98
18.54
25.03
29.91
32.87
33.87
33.09
30.90
27.76
24.15
20.47
17.04
14.03
11.52
9.55
8.09
7.10
6.49
6.12
5.85
5.56
5.20
4.79
4.36
3.88
3.22
2.18
0.51
-1.91
-5.03
-8.55
-11.98
-14.64
-15.90
-15.31
-12.68
-8.13
-2.11
4.77
11.82
18.38
23.94
28.12
30.76
31.87
31.60
30.20
27.95
25.14
22.03
18.88
15.91
13.32
11.31
9.93
9.13
8.74
8.48
8.12
7.44
6.39
5.00
3.35
1.51
-0.51
-2.75
-5.27
-8.10
-11.20
-14.47
-17.70
-20.59
-22.75
-23.74
-23.18
-20.81
-16.69
-11.13
-4.73
1.80
7.77
12.62
15.99
17.76
17.97
16.82
14.62
11.77
8.66
5.65
3.02
0.94
-0.47
-1.18
-1.22
-0.72
0.05
0.81
1.30
1.38
1.08
0.54
-0.09
-0.75
-1.54
-2.64
-4.25
-6.44
-9.15
-12.12
-14.95
-17.23
-18.48
-18.33
-16.52
-12.96
-7.81
-1.51
5.35
12.04
17.85
22.28
25.03
26.09
25.61
23.90
21.28
18.11
14.75
11.57
8.86
6.85
5.62
5.12
5.16
5.51
5.93
6.24
6.34
6.19
5.79
5.11
4.13
2.83
1.16
-0.91
-3.41
-6.31
-9.52
-12.83
-15.93
-18.35
-19.64
-19.36
-17.28
-13.43
-8.10
-1.78
4.90
11.32
16.92
21.29
24.16
25.43
25.17
23.63
21.20
18.34
15.51
13.04
11.15
9.89
9.23
9.06
9.24
9.64
10.15
10.67
11.16
11.61
12.05
12.44
12.75
12.91
12.87
12.63
12.21
11.67
11.05
10.44
9.92
9.69
10.06
11.48
14.49
19.53
26.78
35.98
46.38
56.97
66.73
74.99
81.60
86.85
91.15
94.76
97.62
99.50
100.15
99.31
96.68
91.71
83.71
72.03
56.55
37.89
17.52
-2.64
-20.70
-35.32
-45.88
-52.51
-55.79
-56.44
-55.07
-52.11
-47.91
-43.10
-38.65
-35.86
-35.90
-39.14
-44.78
-50.99
-55.60
-57.11
-55.29
-51.25
-46.75
-43.35
-41.77
-41.79
-42.69
-43.83
-45.15
-47.09
-50.24
-54.85
-60.50
-66.10
-70.33
-72.21
-71.58
-69.24
-66.64
-65.35
-66.52
-70.55
-77.03
-84.98
-93.05
-99.78
-103.91
-104.64
-101.92
-96.58
-90.08
-84.04
-79.48
-76.43
-73.89
-70.38
-64.71
-56.55
-46.56
-35.95
-25.94
-17.18
-9.68
-3.14
2.75
7.93
12.08
14.78
15.76
15.07
13.09
10.43
7.84
6.12
5.94
7.73
11.46
16.61
22.30
27.59
31.75
34.45
35.73
35.81
34.95
33.37
31.29
29.00
26.86
25.24
24.32
24.08
24.18
24.13
23.46
21.92
19.61
16.98
14.68
13.33
13.25
14.40
16.35
18.54
20.39
21.57
22.01
21.81
21.20
20.30
19.09
17.37
14.78
11.04
6.09
0.31
-5.54
-10.59
-14.11
-15.93
-16.42
-16.32
-16.48
-17.44
-19.28
-21.66
-24.05
-26.00
-27.35
-28.30
-29.23
-30.45
-32.00
-33.47
-34.17
-33.34
-30.45
-25.41
-18.57
-10.63
-2.35
5.64
12.92
19.28
24.58
28.74
31.60
33.08
33.16
32.08
30.26
28.23
26.54
25.52
25.31
25.79
26.71
27.87
29.13
30.48
31.94
33.47
34.96
36.25
37.23
37.91
38.37
38.69
38.81
38.47
37.36
35.38
32.89
30.80
30.35
32.69
38.36
47.08
57.74
68.82
78.82
86.77
92.33
95.80
97.89
99.54
101.69
104.96
109.36
114.06
117.45
117.59
112.82
102.45
87.04
68.24
48.19
28.92
11.88
-2.21
-13.22
-21.40
-27.28
-31.61
-35.39
-39.78
-45.75
-53.83
-63.91
-75.24
-86.68
-97.04
-105.38
-111.10
-113.96
-113.90
-110.99
-105.42
-97.54
-87.88
-77.18
-66.23
-55.83
-46.70
-39.38
-34.18
-31.11
-29.81
-29.58
-29.58
-29.02
-27.36
-24.43
-20.31
-15.31
-9.78
-4.11
1.34
6.21
10.19
13.07
14.78
15.44
15.25
14.53
13.56
12.61
11.89
11.53
11.62
12.10
12.83
13.63
14.39
15.31
17.04
20.65
27.45
38.46
53.94
72.97
93.50
112.84
128.47
138.85
143.81
144.49
142.76
140.41
138.59
137.57
136.78
135.10
131.19
123.76
111.99
95.89
76.41
55.37
34.86
16.53
0.98
-12.43
-25.15
-38.61
-53.58
-69.70
-85.74
-100.14
-111.62
-119.62
-124.33
-126.53
-127.20
-127.10
-126.64
-125.73
-123.98
-120.94
-116.26
-109.90
-102.09
-93.33
-84.38
-76.23
-69.96
-66.52
-66.30
-68.91
-73.17
-77.61
-81.03
-83.15
-84.58
-86.45
-89.56
-93.77
-97.90
-100.12
-98.87
-93.47
-84.57
-73.84
-63.49
-55.56
-51.43
-51.50
-55.27
-61.54
-68.84
-75.74
-81.07
-84.02
-84.19
-81.69
-77.17
-71.70
-66.39
-61.85
-57.79
-53.05
-46.18
-36.22
-23.32
-8.80
5.48
17.84
27.39
33.99
37.70
38.32
35.35
28.47
18.17
6.15
-5.13
-13.36
-17.35
-17.56
-15.74
-14.00
-13.77
-15.14
-16.98
-17.64
-15.83
-11.27
-4.76
2.24
8.20
12.06
13.42
12.42
9.51
5.29
0.43
-4.25
-7.98
-10.25
-11.06
-10.99
-11.00
-11.86
-13.71
-15.86
-17.04
-15.97
-11.98
-5.30
3.14
12.04
20.30
27.20
32.49
36.13
38.11
38.33
36.66
33.12
28.11
22.46
17.27
13.56
11.94
12.36
14.22
16.65
18.92
20.66
21.96
23.14
24.48
26.01
27.45
28.35
28.32
27.17
25.05
22.35
19.49
16.76
14.17
11.51
8.56
5.33
2.15
-0.28
-1.16
0.16
3.87
9.61
16.54
23.59
29.76
34.37
37.16
38.24
37.88
36.40
34.02
30.94
27.31
23.44
19.70
16.53
14.31
13.20
13.14
13.89
15.07
16.31
17.34
17.96
18.08
17.71
16.89
15.71
14.24
12.52
10.56
8.29
5.62
2.48
-1.06
-4.80
-8.26
-10.84
-11.90
-10.93
-7.71
-2.41
4.41
11.96
19.29
25.57
30.14
32.62
32.95
31.36
28.28
24.27
19.96
15.90
12.56
10.23
9.02
8.87
9.58
10.86
12.43
14.00
15.37
16.42
17.15
17.61
17.92
18.11
18.13
17.83
16.98
15.41
13.01
9.86
6.21
2.50
-0.68
-2.71
-3.06
-1.46
2.03
6.93
12.51
17.93
22.44
25.52
26.94
26.71
25.03
22.22
18.69
14.84
11.06
7.63
4.78
2.63
1.23
0.53
0.42
0.69
1.19
1.72
2.15
2.40
2.39
2.05
1.29
0.05
-1.71
-3.97
-6.68
-9.75
-13.00
-16.16
-18.81
-20.45
-20.62
-19.02
-15.59
-10.59
-4.54
1.91
8.09
13.43
17.52
20.09
21.08
20.56
18.68
15.72
12.05
8.14
4.52
1.63
-0.27
-1.24
-1.56
-1.63
-1.76
-2.08
-2.54
-3.03
-3.51
-3.99
-4.56
-5.34
-6.40
-7.84
-9.72
-12.04
-14.73
-17.53
-20.02
-21.75
-22.27
-21.28
-18.67
-14.56
-9.28
-3.42
2.36
7.37
11.14
13.46
14.35
14.02
12.66
10.45
7.61
4.42
1.32
-1.23
-2.87
-3.51
-3.30
-2.59
-1.77
-1.09
-0.66
-0.50
-0.58
-0.88
-1.42
-2.23
-3.36
-4.90
-6.93
-9.49
-12.57
-16.01
-19.49
-22.57
-24.76
-25.59
-24.68
-21.82
-17.08
-10.85
-3.79
3.20
9.28
13.73
16.22
16.70
15.41
12.72
9.06
4.90
0.74
-2.88
-5.54
-7.05
-7.46
-7.10
-6.33
-5.47
-4.68
-3.96
-3.29
-2.65
-2.09
-1.68
-1.47
-1.53
-1.94
-2.79
-4.21
-6.19
-8.59
-10.99
-12.79
-13.32
-12.02
-8.62
-3.16
3.96
12.15
20.64
28.70
35.70
41.25
45.27
48.00
49.86
51.31
52.59
53.62
54.13
53.84
52.85
51.72
51.47
53.09
57.18
63.50
70.99
78.17
83.63
86.72
87.81
88.30
90.18
95.51
105.80
121.51
141.62
163.46
183.00
195.73
198.10
188.75
169.18
143.29
115.94
91.25
71.38
56.37
44.78
34.93
25.88
17.93
12.26
10.08
11.66
15.71
19.65
20.48
16.16
6.60
-6.14
-18.69
-27.86
-31.76
-30.25
-24.33
-15.17
-3.46
10.63
26.92
44.70
62.66
79.29
93.55
105.08
114.10
120.82
124.87
125.24
120.80
111.21
97.65
82.73
69.60
60.68
56.67
56.49
58.06
59.47
59.66
58.40
55.56
50.57
42.41
30.15
13.83
-5.32
-25.22
-44.05
-61.21
-77.78
-95.95
-117.89
-144.44
-174.27
-204.03
-229.40
-246.50
-253.30
-250.33
-240.34
-227.36
-215.36
-207.13
-204.01
-206.21
-213.42
-225.28
-241.50
-261.66
-285.26
-311.31
-338.04
-362.79
-382.26
-393.05
-392.62
-380.19
-357.47
-329.15
-301.11
-278.40
-263.34
-254.92
-249.68
-243.48
-233.31
-218.47
-202.32
-190.44
-188.93
-202.15
-230.92
-271.61
-316.32
-354.61
-376.43
-377.58
-359.51
-328.02
-289.99
-250.46
-211.46
-172.27
-130.45
-83.55
-33.21
16.72
61.41
96.31
117.79
123.19
111.65
85.22
66.64
74.19
116.11
184.96
262.27
330.12
378.82
407.51
420.56
421.70
413.22
394.22
363.33
321.37
271.63
217.85
162.32
104.77
46.00
-15.18
-77.82
-137.05
-184.90
-213.66
-219.72
-205.44
-177.87
-145.45
-116.37
-95.52
-83.91
-79.71
-79.97
-82.00
-83.61
-82.84
-77.77
-67.86
-53.74
-37.00
-19.37
-2.24
14.07
30.37
48.30
69.67
95.19
124.12
154.46
183.78
210.13
232.84
252.74
271.62
291.29
312.45
334.40
355.39
373.54
387.79
398.40
406.74
414.85
425.13
439.82
460.52
487.10
516.71
543.56
560.11
559.53
538.41
498.29
445.04
386.37
328.89
276.16
228.63
185.14
144.60
106.88
72.44
41.25
12.04
-17.55
-49.98
-86.50
-126.38
-166.88
-204.11
-234.35
-255.12
-265.68
-266.82
-260.28
-248.03
-231.87
-213.30
-193.57
-173.70
-154.48
-136.48
-120.30
-106.74
-96.97
-92.15
-92.93
-98.77
-107.83
-117.49
-125.18
-129.39
-129.96
-127.72
-123.63
-118.17
-111.17
-102.35
-91.97
-81.22
-71.83
-65.33
-62.29
-61.99
-62.98
-63.82
-63.87
-63.49
-63.59
-64.89
-67.40
-70.20
-71.81
-70.77
-66.17
-58.02
-47.09
-34.64
-21.96
-10.14
-0.02
7.65
12.14
12.86
9.74
3.69
-3.25
-8.28
-8.95
-4.56
3.03
9.69
10.87
4.08
-9.22
-23.83
-32.98
-31.65
-19.04
1.01
22.03
38.01
45.71
45.26
38.79
28.41
14.99
-1.71
-21.88
-44.40
-66.57
-85.00
-96.80
-100.70
-97.31
-88.55
-76.84
-64.18
-51.76
-39.94
-28.61
-17.63
-7.02
2.82
11.21
17.31
20.34
19.87
16.24
10.95
6.61
6.35
12.76
26.71
46.65
68.91
88.90
102.67
108.35
106.54
99.84
91.60
84.79
81.29
81.91
86.63
94.82
105.27
115.94
124.02
126.51
120.99
106.57
84.12
55.82
23.95
-10.25
-46.69
-85.38
-124.49
-159.25
-182.52
-187.42
-170.65
-134.66
-87.14
-38.09
4.07
35.16
55.45
67.48
73.41
73.65
67.59
55.62
40.87
28.87
25.36
33.23
50.40
69.99
82.82
81.38
63.07
31.26
-6.68
-43.12
-73.55
-97.89
-118.99
-139.61
-160.05
-178.02
-190.81
-198.06
-203.36
-213.23
-233.95
-267.97
-312.10
-358.31
-396.80
-419.68
-423.41
-409.10
-381.07
-344.62
-304.04
-261.77
-218.85
-175.63
-132.67
-90.81
-50.48
-11.06
29.40
73.12
120.59
168.84
211.24
239.54
247.18
232.82
201.48
163.08
128.62
106.14
98.57
104.23
119.37
140.78
167.06
197.94
232.66
268.85
302.63
329.78
347.29
354.24
351.75
342.25
328.25
311.65
293.20
272.62
249.04
221.49
189.38
152.87
112.94
71.05
28.85
-12.36
-52.04
-90.45
-128.72
-168.85
-213.51
-265.25
-325.02
-390.59
-455.65
-510.82
-546.24
-555.19
-536.65
-495.90
-442.22
-385.19
-331.33
-282.45
-236.10
-187.82
-134.00
-74.12
-11.84
45.86
91.08
117.99
125.28
116.58
99.00
80.25
66.62
62.01
68.24
85.41
111.60
142.12
169.56
185.90
185.82
169.91
145.34
122.88
111.68
114.61
127.16
140.11
144.58
136.33
116.71
90.51
62.64
35.73
10.28
-13.54
-34.22
-48.82
-54.76
-51.98
-43.62
-34.80
-29.74
-29.69
-32.68
-35.29
-35.04
-31.49
-25.81
-19.41
-12.96
-6.17
1.61
10.72
21.10
32.31
43.94
55.51
66.21
74.90
80.53
82.76
82.17
79.92
77.04
74.08
71.45
70.18
72.19
79.62
93.65
113.82
137.97
162.94
185.68
203.45
214.10
215.89
208.25
192.43
171.81
151.58
136.85
131.01
134.47
144.62
156.67
165.20
165.86
156.72
138.77
115.11
89.07
61.86
31.54
-5.55
-51.30
-102.45
-149.47
-179.43
-181.48
-152.08
-97.14
-29.53
36.03
88.32
122.30
138.69
141.70
136.10
125.65
112.48
97.13
79.42
58.67
34.38
6.69
-23.37
-54.23
-84.10
-111.62
-136.00
-156.78
-173.23
-184.05
-187.55
-182.35
-168.23
-146.56
-120.09
-92.03
-65.03
-40.93
-21.00
-6.80
-0.71
-5.38
-22.38
-50.63
-85.76
-120.98
-149.38
-166.35
-170.98
-165.62
-153.87
-138.47
-120.01
-97.56
-70.30
-39.39
-8.57
16.85
32.31
36.44
32.17
25.82
24.24
31.74
48.01
68.24
85.40
93.39
89.76
76.47
58.68
42.27
31.48
27.59
29.27
33.84
38.77
42.51
44.33
43.64
39.55
31.01
17.68
0.74
-16.93
-31.77
-41.17
-44.79
-44.65
-44.10
-46.17
-52.50
-63.20
-77.38
-93.65
-110.02
-123.53
-130.30
-126.31
-109.22
-79.74
-41.90
-1.85
34.44
63.09
83.11
95.65
102.62
105.35
104.08
98.38
87.60
71.65
51.37
28.60
6.12
-12.51
-23.90
-26.03
-19.26
-6.32
8.68
21.70
29.88
31.36
24.41
6.74
-23.87
-67.52
-120.09
-172.76
-214.14
-234.32
-228.72
-199.52
-153.78
-99.58
-42.59
15.08
73.35
131.57
186.49
232.49
263.19
273.96
263.77
235.31
194.02
146.38
98.27
54.01
15.93
-15.45
-40.90
-61.80
-79.34
-93.90
-104.85
-110.70
-109.81
-101.15
-85.02
-63.44
-40.33
-21.10
-11.69
-17.09
-39.40
-76.41
-121.45
-165.08
-198.18
-215.15
-215.65
-204.00
-186.64
-168.91
-152.87
-137.02
-117.65
-90.76
-53.52
-5.24
52.29
114.67
175.39
227.05
263.44
281.42
281.89
269.20
249.22
227.02
205.46
185.15
165.33
145.19
124.79
105.28
88.60
76.65
70.27
68.26
66.98
60.78
43.78
12.34
-33.13
-87.68
-143.29
-191.39
-225.28
-241.42
-239.26
-220.47
-188.07
-146.35
-100.84
-57.86
-23.01
0.70
14.17
21.68
28.60
38.64
51.71
64.24
71.60
71.04
63.79
54.58
49.06
50.47
57.91
66.98
72.52
71.40
63.56
50.77
34.20
12.62
-16.95
-56.51
-104.05
-152.39
-191.16
-211.28
-209.24
-188.73
-158.55
-128.05
-102.88
-83.12
-64.81
-43.33
-16.53
14.16
44.61
70.10
87.17
94.00
89.93
74.90
49.77
17.15
-17.78
-47.61
-64.51
-62.86
-41.43
-4.02
41.88
87.68
126.36
154.07
170.23
176.26
174.13
165.18
150.04
129.05
103.05
73.59
42.72
12.33
-16.41
-43.21
-68.23
-91.52
-112.46
-129.84
-142.25
-148.73
-149.16
-144.15
-134.73
-121.70
-105.46
-86.13
-64.05
-40.28
-16.64
4.50
20.91
31.11
34.79
32.76
26.61
18.35
9.95
3.08
-0.99
-1.46
1.89
8.69
17.99
28.28
37.78
44.83
48.20
47.45
43.00
35.92
27.68
19.73
13.14
8.42
5.37
3.31
1.46
-0.65
-2.89
-4.58
-4.94
-3.57
-0.73
2.72
5.74
7.78
9.02
10.26
12.42
15.87
20.08
23.76
25.41
24.08
19.83
13.80
7.70
3.16
1.00
1.04
2.26
3.41
3.57
2.53
0.86
-0.48
-0.56
1.10
4.29
8.12
11.34
12.79
11.81
8.53
3.71
-1.57
-6.45
-10.51
-13.87
-16.78
-19.30
-21.04
-21.32
-19.55
-15.58
-9.90
-3.46
2.83
8.33
12.87
16.52
19.29
20.97
21.21
19.76
16.71
12.59
8.13
4.08
0.93
-1.17
-2.33
-2.75
-2.67
-2.22
-1.52
-0.70
0.10
0.70
0.93
0.72
0.07
-0.99
-2.38
-4.15
-6.41
-9.28
-12.86
-17.06
-21.62
-26.05
-29.78
-32.17
-32.70
-31.01
-27.07
-21.19
-14.06
-6.55
0.40
6.03
9.86
11.72
11.71
10.16
7.53
4.34
1.07
-1.94
-4.58
-6.89
-8.92
-10.66
-11.87
-12.22
-11.52
-9.90
-7.89
-6.27
-5.79
-6.91
-9.70
-13.89
-19.00
-24.44
-29.37
-32.80
-33.78
-31.86
-27.42
-21.74
-16.56
-13.33
-12.56
-13.66
-15.38
-16.51
-16.61
-16.20
-16.49
-18.78
-23.85
-31.57
-41.00
-50.74
-59.44
-66.05
-69.91
-70.58
-67.53
-60.20
-48.31
-32.32
-13.63
5.42
22.17
34.40
40.95
41.95
38.61
32.51
25.00
16.59
6.91
-5.06
-20.25
-38.72
-59.32
-79.93
-98.34
-113.00
-123.34
-129.49
-131.48
-128.85
-120.99
-107.97
-91.25
-73.57
-57.76
-45.36
-35.76
-26.92
-17.06
-6.45
2.14
4.72
-1.81
-17.74
-40.10
-63.71
-83.11
-94.11
-94.38
-83.24
-61.29
-30.50
5.47
41.52
72.24
93.95
106.33
112.65
118.07
126.68
139.15
152.37
161.38
162.50
155.76
145.19
136.45
133.78
137.75
145.21
151.20
151.44
144.10
129.83
110.35
86.79
58.90
25.76
-12.71
-54.20
-93.62
-124.16
-139.34
-135.19
-111.62
-72.31
-23.69
27.04
73.76
112.66
142.69
164.99
181.66
194.37
203.37
207.31
204.02
192.02
171.38
143.94
112.65
80.38
49.13
20.07
-5.90
-27.57
-43.45
-52.48
-54.85
-52.30
-47.69
-43.78
-42.07
-42.31
-42.74
-41.04
-35.51
-25.61
-11.99
3.94
20.50
35.67
46.76
50.25
42.44
20.75
-14.62
-59.78
-107.67
-150.02
-179.87
-193.66
-191.64
-177.05
-154.49
-128.34
-101.86
-77.08
-54.99
-35.78
-19.22
-4.88
7.49
17.80
25.67
30.77
33.15
33.53
32.97
32.34
31.84
30.79
28.16
23.38
17.09
11.03
7.54
8.36
13.92
23.07
33.64
43.46
51.03
55.82
57.94
57.63
55.00
50.13
43.56
36.52
30.69
27.43
27.04
28.43
29.53
28.29
23.59
15.65
5.56
-5.69
-17.96
-32.08
-49.09
-69.24
-91.17
-111.98
-128.19
-137.02
-137.50
-130.59
-118.63
-104.05
-88.35
-71.55
-52.45
-29.59
-2.37
28.17
59.30
87.39
109.30
123.47
130.36
131.86
129.79
125.09
117.29
105.67
90.75
75.41
64.23
61.37
68.17
82.02
96.97
106.00
103.70
87.99
60.22
24.21
-15.27
-53.38
-85.63
-108.03
-117.51
-112.63
-94.35
-66.32
-34.35
-5.06
15.95
25.67
24.67
16.83
7.81
2.59
3.13
7.99
13.16
14.22
8.40
-4.45
-22.30
-42.40
-62.57
-81.58
-98.64
-112.59
-121.49
-123.25
-116.68
-102.51
-83.59
-63.91
-47.16
-35.33
-28.20
-23.84
-19.75
-14.18
-7.01
0.14
4.44
2.83
-7.01
-25.67
-51.54
-80.93
-108.77
-129.97
-141.03
-141.24
-133.10
-121.41
-111.45
-107.07
-109.21
-115.67
-122.09
-123.69
-117.16
-101.87
-80.01
-55.49
-32.16
-12.23
4.35
19.13
33.85
49.20
64.67
79.32
92.87
106.15
120.47
136.50
153.36
168.83
180.57
187.41
190.01
190.29
190.13
190.47
191.23
192.04
193.10
195.28
199.34
204.89
209.97
211.36
205.97
192.25
170.77
144.05
115.41
87.90
63.54
43.15
26.79
14.17
4.88
-1.61
-6.09
-9.62
-13.34
-18.15
-24.21
-30.79
-36.37
-39.18
-37.84
-32.19
-23.52
-14.30
-7.28
-4.37
-5.88
-10.42
-15.68
-19.51
-21.04
-21.10
-21.93
-26.17
-35.66
-50.49
-68.74
-87.02
-101.65
-110.02
-111.52
-107.79
-101.98
-97.53
-96.71
-99.73
-104.78
-108.98
-109.74
-105.96
-98.37
-89.10
-80.63
-74.76
-72.11
-72.22
-74.16
-77.09
-80.63
-84.77
-89.76
-95.88
-103.18
-111.36
-119.44
-125.65
-127.43
-121.85
-106.38
-79.95
-43.72
-1.33
41.80
79.73
107.74
123.52
127.79
123.67
115.00
105.01
95.43
86.57
78.54
72.10
68.59
68.98
72.81
78.01
81.83
82.24
78.82
72.66
65.22
57.19
48.34
38.47
28.58
21.27
19.58
25.14
36.77
50.63
61.89
66.99
64.98
57.41
47.13
36.81
28.19
22.18
18.84
17.95
18.97
20.68
21.27
18.55
10.76
-2.70
-20.79
-41.01
-60.03
-74.78
-83.42
-85.70
-82.69
-75.91
-66.30
-53.72
-37.27
-16.26
8.74
35.51
60.66
80.51
91.96
92.99
82.68
61.28
30.24
-7.64
-48.32
-87.07
-119.41
-142.15
-153.88
-155.05
-147.45
-133.55
-115.98
-97.08
-78.70
-62.01
-47.56
-35.56
-26.17
-19.70
-16.16
-14.85
-13.99
-11.23
-4.72
5.64
17.72
27.92
32.85
31.20
24.62
17.08
13.05
15.53
24.90
39.03
54.60
68.56
79.17
86.08
89.83
90.94
89.55
85.35
78.02
67.71
55.21
41.59
27.73
13.85
-0.39
-15.27
-30.36
-44.22
-54.83
-60.49
-60.86
-57.28
-52.31
-48.61
-47.82
-49.92
-53.55
-56.81
-58.29
-57.62
-55.50
-53.24
-52.01
-52.36
-53.93
-55.72
-56.38
-54.86
-50.68
-44.08
-35.86
-27.08
-18.75
-11.56
-5.86
-1.59
1.46
3.65
5.33
6.72
7.94
8.98
9.87
10.82
12.23
14.63
18.35
23.24
28.62
33.48
36.91
38.50
38.43
37.17
35.01
31.86
27.26
20.79
12.48
2.99
-6.74
-15.89
-24.16
-31.77
-39.13
-46.32
-52.81
-57.50
-59.13
-56.74
-50.06
-39.56
-26.36
-11.87
2.46
15.38
25.91
33.40
37.55
38.39
36.26
31.80
25.80
19.08
12.36
6.10
0.54
-4.31
-8.39
-11.47
-13.03
-12.47
-9.43
-4.28
1.79
6.95
9.33
7.78
2.29
-6.00
-15.26
-23.67
-30.03
-34.01
-35.96
-36.53
-36.12
-34.65
-31.57
-26.15
-17.98
-7.42
4.25
15.18
23.56
28.27
29.36
27.83
25.18
22.60
20.53
18.70
16.55
13.85
11.00
8.93
8.58
10.39
14.05
18.67
23.18
26.83
29.31
30.67
31.01
30.31
28.46
25.43
21.43
16.91
12.43
8.37
4.82
1.52
-1.95
-5.89
-10.34
-14.92
-18.83
-21.05
-20.62
-16.87
-9.71
0.28
11.90
23.59
33.78
41.19
45.13
45.44
42.54
37.14
30.17
22.58
15.27
9.04
4.49
2.00
1.61
3.08
5.88
9.40
13.02
16.17
18.42
19.46
19.09
17.35
14.42
10.68
6.53
2.28
-1.98
-6.35
-11.10
-16.51
-22.69
-29.43
-36.18
-42.03
-45.92
-46.90
-44.36
-38.27
-29.20
-18.29
-6.95
3.40
11.65
17.10
19.61
19.48
17.29
13.73
9.47
5.11
1.13
-2.07
-4.29
-5.52
-6.05
-6.23
-6.44
-6.85
-7.46
-8.20
-9.09
-10.37
-12.45
-15.71
-20.27
-25.88
-31.92
-37.67
-42.60
-46.57
-49.94
-53.36
-57.48
-62.54
-68.03
-72.71
-74.87
-72.97
-66.30
-55.51
-42.62
-30.49
-21.94
-18.75
-21.18
-27.97
-36.95
-45.82
-52.81
-56.82
-57.39
-54.47
-48.32
-39.66
-29.64
-19.67
-11.03
-4.32
0.70
4.88
9.14
13.89
18.90
23.61
27.77
31.79
36.69
43.65
53.25
65.05
77.85
89.96
99.91
106.91
110.95
112.47
112.00
109.96
106.61
102.19
96.99
91.63
87.08
84.50
85.03
89.25
96.74
105.84
113.91
117.98
115.60
105.46
87.64
63.56
35.44
5.89
-22.60
-47.97
-68.82
-84.58
-95.47
-102.62
-107.54
-111.88
-117.13
-124.30
-133.65
-144.44
-154.92
-162.71
-165.57
-162.32
-153.60
-141.70
-129.50
-119.00
-110.01
-99.75
-83.57
-56.88
-17.07
35.01
94.90
155.52
208.97
248.30
268.85
268.82
249.15
213.31
166.67
115.85
67.82
28.62
2.09
-10.95
-12.65
-7.17
0.89
7.90
11.82
11.94
8.08
0.31
-10.93
-23.99
-35.82
-42.63
-41.54
-32.30
-17.66
-2.52
8.33
12.19
9.33
2.36
-5.29
-10.98
-13.61
-13.29
-10.72
-6.35
-0.03
8.86
21.10
37.19
56.95
79.25
102.10
123.04
139.78
150.90
156.20
156.63
153.78
149.26
144.22
139.19
134.18
129.02
123.64
118.15
112.77
107.51
101.81
94.26
82.70
64.76
38.93
5.61
-32.36
-70.24
-102.87
-126.59
-140.73
-147.68
-151.46
-155.51
-161.00
-166.31
-168.26
-163.93
-152.36
-134.92
-114.55
-94.41
-76.70
-62.29
-50.99
-42.32
-35.97
-32.06
-30.81
-32.16
-35.40
-39.25
-42.06
-42.35
-39.37
-33.37
-25.58
-17.77
-11.58
-7.94
-6.84
-7.45
-8.68
-9.72
-10.36
-10.96
-12.10
-14.23
-17.42
-21.34
-25.50
-29.40
-32.71
-35.20
-36.66
-36.74
-35.05
-31.22
-25.23
-17.45
-8.73
-0.16
7.22
12.66
15.86
16.92
16.18
14.07
11.05
7.51
3.86
0.48
-2.28
-4.16
-4.99
-4.78
-3.64
-1.93
-0.11
1.33
2.03
1.92
1.16
0.15
-0.77
-1.39
-1.80
-2.26
-3.09
-4.57
-6.84
-9.96
-13.83
-18.21
-22.58
-26.15
-27.98
-27.17
-23.26
-16.41
-7.41
2.46
11.85
19.64
25.18
28.33
29.31
28.52
26.41
23.34
19.64
15.62
11.60
7.97
5.09
3.23
2.45
2.58
3.21
3.88
4.18
3.91
3.08
1.82
0.35
-1.21
-2.84
-4.65
-6.80
-9.41
-12.61
-16.42
-20.83
-25.70
-30.68
-35.21
-38.55
-39.92
-38.76
-34.90
-28.68
-20.90
-12.57
-4.74
1.72
6.18
8.28
7.98
5.61
1.88
-2.26
-5.90
-8.52
-10.20
-11.47
-12.92
-14.82
-16.86
-18.36
-18.61
-17.38
-14.91
-11.85
-8.93
-6.81
-6.10
-7.46
-11.55
-18.62
-27.91
-37.32
-43.66
-43.71
-35.47
-19.17
2.54
25.48
45.40
59.64
67.98
72.43
76.11
81.56
89.63
99.17
108.02
114.34
117.70
119.25
120.71
123.11
125.85
126.85
123.81
115.56
102.70
87.16
70.72
53.82
35.15
12.47
-15.92
-49.86
-86.85
-122.88
-153.74
-176.51
-190.45
-196.97
-198.97
-199.78
-202.22
-208.14
-218.50
-233.44
-252.16
-272.53
-290.80
-301.73
-299.98
-281.81
-246.71
-197.80
-140.60
-80.53
-20.59
39.39
101.53
166.98
233.45
294.54
341.32
365.47
362.43
333.15
283.49
222.26
158.74
100.67
53.25
18.91
-2.68
-14.42
-21.12
-28.22
-39.94
-57.46
-78.27
-97.19
-109.03
-111.12
-104.96
-95.60
-89.23
-90.43
-100.44
-117.50
-138.61
-161.41
-184.61
-207.51
-228.62
-244.99
-252.81
-249.17
-233.51
-207.88
-176.00
-141.33
-105.74
-69.65
-33.47
0.89
29.67
48.66
55.76
52.93
46.23
43.50
50.89
70.04
97.74
128.02
155.59
178.26
197.29
215.69
235.53
256.59
276.89
294.08
307.20
316.89
324.53
330.50
333.77
332.55
325.94
315.00
302.10
289.30
276.62
261.61
240.60
210.98
172.90
129.27
83.96
39.53
-3.91
-47.87
-93.08
-137.50
-175.95
-202.02
-211.12
-202.89
-181.47
-153.38
-125.04
-100.53
-81.06
-66.20
-55.43
-49.17
-48.01
-51.61
-57.65
-62.13
-60.72
-50.57
-31.45
-5.55
23.45
51.72
76.11
94.55
106.02
110.47
108.54
101.47
90.86
78.36
65.51
53.46
42.87
33.87
26.09
18.79
11.05
2.10
-8.46
-20.65
-34.10
-48.01
-60.96
-70.75
-74.81
-71.04
-58.92
-40.26
-18.62
1.96
18.65
30.83
39.99
48.41
57.69
67.78
77.05
83.27
84.83
81.34
73.60
62.73
49.35
32.89
11.83
-15.30
-48.76
-86.57
-124.54
-157.19
-179.50
-188.81
-185.67
-173.74
-158.37
-144.63
-135.75
-132.36
-132.93
-134.99
-136.45
-136.27
-134.38
-131.07
-126.30
-119.60
-110.48
-99.06
-86.40
-74.09
-63.34
-54.24
-45.65
-35.90
-23.76
-9.27
6.26
20.87
32.87
41.48
46.77
49.30
49.52
47.61
43.47
37.11
28.91
19.74
10.78
3.27
-1.81
-3.99
-3.31
-0.27
4.45
10.19
16.60
23.60
31.11
38.83
46.05
51.85
55.51
56.91
56.61
55.65
55.22
56.29
59.47
64.99
72.83
82.74
94.28
106.72
118.91
129.30
136.19
138.00
133.83
123.87
109.48
92.96
76.89
63.30
53.01
45.33
38.59
30.91
21.10
9.17
-3.67
-15.53
-24.56
-29.59
-30.37
-27.50
-22.02
-14.99
-7.28
0.42
7.38
12.68
15.22
14.09
8.95
0.37
-10.29
-21.28
-31.08
-38.90
-44.73
-49.14
-52.75
-55.95
-58.78
-61.17
-63.05
-64.51
-65.67
-66.57
-67.08
-66.94
-65.85
-63.63
-60.26
-55.98
-51.28
-46.85
-43.46
-41.72
-41.84
-43.47
-45.75
-47.59
-47.95
-46.10
-41.78
-35.14
-26.69
-17.14
-7.32
1.98
10.08
16.49
20.91
23.24
23.59
22.32
20.04
17.56
15.66
14.81
15.06
16.00
17.00
17.45
17.04
15.81
14.09
12.42
11.29
10.99
11.41
12.05
12.06
10.60
7.11
1.63
-5.25
-12.56
-19.39
-25.13
-29.62
-32.94
-35.19
-36.27
-35.85
-33.64
-29.56
-23.94
-17.48
-10.92
-4.83
0.63
5.58
10.13
14.13
17.09
18.40
17.68
15.06
11.22
7.17
3.80
1.62
0.66
0.58
0.95
1.38
1.66
1.68
1.38
0.75
-0.13
-1.19
-2.35
-3.57
-4.96
-6.70
-9.04
-12.13
-16.01
-20.62
-25.79
-31.24
-36.50
-40.86
-43.44
-43.46
-40.44
-34.54
-26.54
-17.65
-9.30
-2.75
1.09
1.94
0.20
-3.00
-6.13
-7.75
-6.98
-3.80
1.04
6.54
12.04
17.42
23.01
29.19
35.92
42.77
49.18
54.90
60.14
65.29
70.41
74.90
77.58
77.26
73.15
65.15
53.68
39.41
23.15
6.02
-10.40
-24.22
-33.90
-39.12
-41.33
-43.51
-48.94
-59.85
-76.52
-97.32
-119.39
-139.55
-154.93
-163.35
-163.54
-155.58
-140.99
-122.42
-102.57
-82.98
-63.27
-41.66
-16.56
11.70
40.08
63.61
77.46
79.09
69.39
52.17
32.54
14.93
1.85
-6.46
-11.30
-14.46
-17.22
-19.62
-20.39
-17.35
-8.44
7.25
28.67
52.83
75.64
93.27
103.42
105.94
102.58
95.97
88.44
81.13
73.76
65.24
54.38
40.75
24.79
7.36
-10.74
-29.17
-47.70
-65.60
-80.90
-90.53
-91.04
-79.97
-56.96
-24.26
13.74
51.55
83.96
107.33
120.36
124.25
122.01
117.25
112.82
109.89
107.88
105.35
101.20
95.59
89.84
85.63
83.86
83.92
83.81
81.01
73.62
61.09
44.35
25.32
6.23
-10.90
-24.57
-33.93
-38.80
-39.67
-37.64
-34.20
-30.76
-28.18
-26.35
-24.46
-21.44
-16.81
-11.12
-5.91
-2.96
-3.59
-8.12
-15.94
-26.05
-37.46
-49.38
-60.95
-71.00
-77.93
-80.19
-77.09
-69.42
-59.47
-50.25
-44.37
-42.88
-44.98
-48.43
-50.58
-49.34
-43.89
-34.68
-23.02
-10.52
1.42
11.75
19.79
25.14
27.67
27.52
25.12
21.19
16.45
11.52
6.70
2.14
-2.11
-5.81
-8.56
-10.00
-10.07
-9.17
-8.00
-7.37
-7.74
-9.10
-10.98
-12.75
-13.90
-14.27
-14.16
-14.07
-14.60
-16.15
-18.75
-22.06
-25.31
-27.53
-27.79
-25.41
-20.29
-12.87
-4.05
4.99
13.15
19.56
23.73
25.62
25.54
24.04
21.74
19.17
16.62
14.26
12.13
10.30
8.84
7.85
7.34
7.22
7.27
7.26
6.98
6.34
5.36
4.12
2.67
1.07
-0.68
-2.62
-4.86
-7.52
-10.78
-14.75
-19.36
-24.27
-28.81
-32.10
-33.25
-31.68
-27.29
-20.50
-12.16
-3.30
5.07
12.16
17.41
20.49
21.27
19.84
16.50
11.77
6.31
0.81
-4.13
-8.10
-10.85
-12.31
-12.50
-11.57
-9.74
-7.37
-4.88
-2.71
-1.21
-0.59
-0.91
-2.08
-3.87
-5.97
-8.09
-10.08
-11.99
-14.07
-16.55
-19.48
-22.44
-24.62
-25.02
-22.82
-17.76
-10.20
-1.06
8.55
17.56
25.18
30.91
34.45
35.65
34.52
31.27
26.38
20.59
14.75
9.61
5.66
3.03
1.57
0.94
0.83
0.99
1.28
1.58
1.78
1.68
1.07
-0.20
-2.19
-4.82
-7.93
-11.44
-15.38
-19.90
-25.08
-30.76
-36.44
-41.28
-44.31
-44.70
-42.04
-36.44
-28.52
-19.23
-9.67
-0.84
6.43
11.64
14.54
15.21
13.94
11.16
7.38
3.17
-0.95
-4.51
-7.10
-8.51
-8.73
-7.98
-6.66
-5.21
-4.01
-3.30
-3.11
-3.32
-3.80
-4.38
-4.98
-5.54
-6.09
-6.74
-7.72
-9.29
-11.72
-15.11
-19.16
-23.18
-26.07
-26.69
-24.16
-18.22
-9.40
1.14
11.86
21.35
28.60
33.19
35.26
35.18
33.42
30.34
26.32
21.69
16.93
12.52
8.91
6.32
4.78
4.11
4.05
4.32
4.71
5.02
5.09
4.80
4.02
2.68
0.74
-1.81
-4.90
-8.50
-12.55
-17.02
-21.86
-26.96
-31.94
-36.15
-38.67
-38.56
-35.15
-28.33
-18.70
-7.39
4.18
14.64
22.92
28.41
30.91
30.60
27.95
23.62
18.38
12.95
8.06
4.18
1.62
0.38
0.23
0.80
1.65
2.45
3.00
3.19
2.95
2.21
0.91
-0.99
-3.46
-6.43
-9.83
-13.67
-18.02
-22.95
-28.41
-34.03
-39.11
-42.68
-43.72
-41.42
-35.47
-26.22
-14.62
-2.06
9.98
20.23
27.93
32.77
34.87
34.54
32.18
28.22
23.15
17.60
12.31
8.01
5.25
4.21
4.70
6.18
8.06
9.84
11.24
12.12
12.44
12.12
11.07
9.23
6.67
3.56
0.09
-3.70
-7.94
-12.87
-18.54
-24.59
-30.11
-33.86
-34.56
-31.37
-24.18
-13.65
-1.08
11.95
23.94
33.74
40.63
44.32
44.91
42.66
38.01
31.51
23.83
15.78
8.22
1.97
-2.38
-4.56
-4.76
-3.49
-1.47
0.58
2.14
2.97
3.10
2.66
1.84
0.69
-0.81
-2.72
-5.14
-8.14
-11.78
-16.12
-21.10
-26.37
-31.17
-34.39
-34.81
-31.47
-24.11
-13.35
-0.52
12.66
24.61
34.20
40.90
44.64
45.59
44.04
40.28
34.76
28.19
21.47
15.57
11.26
8.93
8.45
9.27
10.69
12.03
12.80
12.82
12.12
10.87
9.24
7.33
5.12
2.51
-0.61
-4.34
-8.72
-13.79
-19.54
-25.82
-32.21
-37.89
-41.67
-42.27
-38.72
-30.77
-19.13
-5.29
8.82
21.39
31.13
37.44
40.31
40.19
37.68
33.46
28.15
22.37
16.70
11.68
7.74
5.12
3.85
3.74
4.46
5.60
6.81
7.76
8.24
8.04
7.06
5.23
2.63
-0.61
-4.32
-8.36
-12.75
-17.52
-22.74
-28.27
-33.69
-38.27
-41.04
-41.04
-37.59
-30.53
-20.36
-8.12
4.79
16.92
27.07
34.43
38.59
39.54
37.62
33.42
27.79
21.64
15.81
10.96
7.46
5.45
4.93
5.75
7.64
10.23
13.10
15.90
18.37
20.36
21.71
22.19
21.52
19.53
16.26
12.09
7.50
2.91
-1.71
-6.81
-13.12
-21.19
-30.95
-41.47
-51.00
-57.35
-58.61
-53.91
-43.91
-30.83
-17.85
-8.02
-3.24
-3.67
-8.00
-14.17
-20.21
-24.85
-27.38
-27.28
-23.78
-15.96
-3.30
13.71
33.12
51.85
66.46
74.17
73.69
65.54
51.84
35.66
20.16
7.76
-0.38
-4.57
-6.16
-7.01
-8.71
-12.10
-17.14
-22.98
-28.42
-32.16
-33.25
-31.10
-25.61
-17.24
-6.85
4.33
14.97
23.72
29.33
30.80
27.60
19.87
8.54
-4.77
-18.19
-30.01
-39.01
-44.52
-46.26
-44.19
-38.55
-29.99
-19.65
-9.13
-0.03
6.40
9.65
9.89
7.75
3.90
-1.08
-6.69
-12.40
-17.63
-21.97
-25.30
-27.98
-30.70
-34.11
-38.36
-42.81
-46.17
-46.90
-43.80
-36.57
-25.92
-13.37
-0.69
10.74
20.24
27.88
34.12
39.38
43.72
46.81
48.19
47.60
45.21
41.61
37.57
33.86
30.97
29.19
28.57
29.05
30.39
32.15
33.70
34.35
33.52
30.95
26.74
21.43
15.76
10.48
6.10
2.64
-0.40
-3.84
-8.51
-14.69
-21.83
-28.56
-33.12
-34.03
-30.66
-23.42
-13.61
-2.81
7.64
16.87
24.53
30.45
34.42
36.18
35.52
32.55
27.79
22.14
16.66
12.15
9.08
7.44
6.84
6.77
6.82
6.75
6.54
6.26
5.90
5.25
3.99
1.76
-1.57
-5.79
-10.39
-14.76
-18.36
-21.04
-23.09
-25.13
-27.82
-31.50
-35.97
-40.35
-43.36
-43.71
-40.60
-34.00
-24.71
-14.06
-3.49
5.89
13.42
18.90
22.38
23.99
23.91
22.36
19.67
16.30
12.76
9.53
6.99
5.31
4.46
4.27
4.51
5.00
5.59
6.20
6.67
6.78
6.20
4.66
2.08
-1.36
-5.26
-9.12
-12.59
-15.59
-18.31
-21.16
-24.52
-28.49
-32.75
-36.49
-38.64
-38.13
-34.31
-27.23
-17.59
-6.57
4.52
14.63
23.05
29.42
33.56
35.40
34.91
32.26
27.89
22.58
17.39
13.42
11.55
12.17
15.01
19.19
23.62
27.31
29.76
30.97
31.31
31.13
30.46
28.89
25.81
20.89
14.39
7.29
1.01
-3.30
-5.31
-5.68
-5.77
-6.90
-9.67
-13.65
-17.62
-20.07
-19.33
-13.56
-0.50
22.07
55.00
96.35
140.56
179.51
205.03
211.98
200.18
174.13
140.84
106.89
76.45
50.99
30.31
14.05
2.30
-4.83
-8.11
-9.84
-13.24
-21.23
-35.01
-53.51
-73.77
-92.30
-106.62
-115.95
-121.27
-124.24
-126.13
-127.12
-126.34
-122.54
-114.84
-103.20
-88.41
-71.68
-54.24
-36.92
-20.07
-3.75
11.94
26.56
39.07
48.25
53.03
53.20
49.80
44.76
40.11
36.93
34.85
32.53
28.78
23.43
17.39
11.71
6.36
-0.22
-10.40
-25.65
-45.12
-65.47
-82.31
-92.36
-94.91
-91.99
-86.96
-82.68
-80.38
-79.81
-80.13
-80.92
-82.41
-84.91
-88.29
-91.35
-92.36
-89.79
-83.10
-73.07
-61.28
-49.36
-38.23
-27.80
-17.15
-5.21
8.54
23.58
38.33
50.50
57.76
58.45
52.11
39.82
24.05
8.08
-4.92
-12.72
-14.63
-11.52
-5.38
1.53
7.51
11.98
15.51
19.34
24.49
30.98
37.37
41.14
39.68
31.53
17.14
-1.19
-20.35
-37.88
-52.91
-66.11
-78.63
-90.78
-101.45
-108.46
-109.93
-105.36
-95.88
-83.54
-70.25
-57.17
-45.16
-35.46
-30.00
-30.47
-36.84
-46.31
-53.84
-54.11
-44.10
-24.68
-0.23
23.41
41.52
52.28
56.83
57.85
57.66
56.95
54.65
48.88
38.27
22.85
4.19
-15.11
-32.27
-44.93
-51.43
-50.74
-42.41
-26.73
-5.21
19.36
43.26
63.06
76.71
84.17
86.90
86.92
85.65
83.68
81.20
78.77
77.53
78.65
82.33
87.10
90.13
88.45
80.55
67.20
51.06
35.33
22.27
12.44
4.92
-1.72
-8.48
-15.58
-22.65
-29.29
-35.47
-41.59
-48.19
-55.66
-63.99
-72.84
-81.70
-90.14
-98.01
-105.29
-111.92
-117.54
-121.38
-122.47
-120.16
-114.51
-106.30
-96.50
-85.37
-72.02
-54.58
-31.40
-2.39
30.21
62.27
89.33
108.35
118.72
122.11
121.29
118.75
115.99
113.64
112.19
112.52
115.77
122.83
133.46
145.95
157.68
165.98
168.74
164.73
153.46
135.47
112.49
87.49
64.02
44.92
30.98
20.54
10.41
-2.13
-17.59
-33.72
-46.76
-53.70
-54.24
-51.16
-48.87
-51.07
-58.88
-70.56
-82.72
-92.19
-97.34
-98.41
-96.96
-94.48
-91.41
-87.08
-80.31
-70.59
-58.85
-47.40
-39.12
-36.14
-38.92
-45.99
-54.72
-62.35
-67.13
-68.78
-68.25
-66.87
-65.54
-64.31
-62.69
-60.26
-57.14
-53.94
-51.12
-48.36
-44.30
-36.97
-24.74
-7.26
14.20
37.23
59.34
79.10
96.66
113.32
130.73
149.73
169.85
189.31
205.49
215.47
216.40
205.96
182.91
147.92
104.22
57.31
13.77
-20.94
-44.31
-57.52
-64.60
-70.24
-77.61
-87.15
-96.97
-104.31
-107.17
-104.97
-98.30
-88.05
-74.81
-58.96
-41.37
-23.88
-9.13
0.22
2.87
-0.40
-6.80
-12.70
-14.98
-12.21
-4.68
6.20
18.85
32.12
45.28
57.71
68.68
77.47
83.81
88.16
91.46
94.52
97.25
98.26
95.35
86.39
70.43
48.14
21.50
-7.03
-35.28
-61.53
-84.29
-101.96
-112.97
-116.23
-111.75
-100.88
-85.74
-68.52
-50.78
-33.30
-16.41
-0.40
14.31
27.14
37.46
44.56
47.68
46.35
41.06
33.84
28.01
27.21
33.75
47.40
65.35
83.32
97.31
105.03
106.17
101.88
93.59
82.31
68.35
51.66
32.20
10.35
-12.99
-36.48
-58.45
-77.29
-91.79
-101.37
-106.12
-106.48
-102.99
-96.10
-86.26
-74.18
-61.04
-48.49
-38.33
-31.83
-29.41
-30.30
-32.88
-35.25
-36.08
-35.17
-33.49
-32.60
-33.62
-36.30
-38.78
-38.20
-31.73
-17.72
3.64
30.32
58.90
85.18
104.83
114.22
111.15
95.67
70.20
39.04
7.17
-21.24
-43.79
-59.98
-70.54
-76.40
-77.99
-75.13
-67.51
-55.29
-39.57
-22.33
-5.95
7.47
16.73
21.88
24.14
25.31
27.07
30.17
34.10
37.21
37.37
32.79
22.74
7.83
-10.11
-28.54
-44.82
-56.67
-62.45
-61.31
-53.17
-38.90
-20.30
0.02
19.06
34.10
43.42
46.77
45.33
41.18
36.44
32.58
30.06
28.55
27.37
25.96
24.13
21.96
19.61
17.24
15.09
13.53
12.96
13.60
15.15
16.70
17.08
15.29
11.03
4.72
-2.77
-10.59
-18.38
-26.26
-34.69
-43.99
-54.17
-64.75
-74.85
-83.38
-89.21
-91.39
-89.32
-82.97
-72.93
-60.31
-46.47
-32.63
-19.56
-7.40
4.30
16.24
28.96
42.45
55.93
68.17
78.01
84.85
88.92
90.95
91.71
91.45
89.97
86.94
82.49
77.46
73.10
70.48
69.82
70.30
70.36
68.45
63.51
55.25
44.02
30.58
15.91
1.19
-12.34
-23.42
-31.16
-35.19
-35.78
-33.69
-29.91
-25.40
-20.90
-16.96
-13.98
-12.21
-11.77
-12.69
-14.95
-18.49
-23.27
-29.13
-35.74
-42.49
-48.57
-53.23
-56.09
-57.27
-57.30
-56.79
-56.04
-54.88
-52.71
-49.06
-43.78
-37.34
-30.59
-24.30
-18.90
-14.34
-10.40
-7.04
-4.64
-3.74
-4.67
-7.04
-9.82
-11.63
-11.38
-8.74
-4.11
1.77
8.43
15.88
24.49
34.32
44.73
54.21
60.87
63.13
60.37
53.03
42.36
29.85
16.76
4.04
-7.59
-17.39
-24.57
-28.52
-29.05
-26.65
-22.39
-17.68
-13.79
-11.56
-11.16
-12.26
-14.29
-16.81
-19.66
-22.97
-27.07
-32.15
-38.22
-44.99
-51.93
-58.33
-63.36
-66.25
-66.43
-63.77
-58.69
-52.14
-45.33
-39.35
-34.78
-31.63
-29.48
-27.85
-26.60
-25.92
-26.10
-27.00
-27.83
-27.27
-23.98
-17.15
-6.88
6.11
20.81
36.29
51.69
65.96
77.79
85.94
89.80
89.94
88.00
86.01
85.39
86.28
87.68
88.17
86.76
83.42
78.73
73.34
67.37
60.46
52.30
43.29
34.70
28.33
25.62
26.94
31.31
36.81
41.37
43.56
42.93
39.83
34.97
29.03
22.55
16.03
10.03
5.09
1.53
-0.84
-2.69
-5.00
-8.69
-14.29
-21.77
-30.55
-39.72
-48.32
-55.62
-61.27
-65.37
-68.30
-70.30
-71.28
-70.71
-67.95
-62.76
-55.65
-47.73
-40.25
-33.79
-27.79
-20.72
-10.84
2.73
19.28
36.46
51.00
59.93
61.72
56.96
48.24
39.36
34.10
35.04
42.83
56.15
72.21
87.68
99.59
105.94
105.83
99.45
87.70
72.05
54.19
35.80
18.20
2.18
-12.02
-24.42
-34.94
-43.20
-48.72
-51.32
-51.48
-50.20
-48.69
-47.73
-47.63
-48.42
-50.31
-53.68
-58.56
-63.74
-66.42
-62.74
-49.38
-25.18
7.87
45.02
80.34
108.65
126.95
134.81
133.73
126.20
114.66
100.96
86.25
71.04
55.44
39.28
22.18
3.83
-15.79
-36.28
-56.63
-75.40
-91.06
-102.41
-109.11
-111.70
-111.44
-109.87
-108.48
-108.37
-110.09
-113.63
-118.34
-123.01
-125.98
-125.49
-120.15
-109.35
-93.47
-73.75
-52.00
-30.00
-8.82
11.40
31.50
52.87
76.66
103.00
130.52
156.31
176.75
188.58
190.05
181.48
164.91
142.80
116.61
86.28
50.76
9.64
-35.42
-80.36
-119.97
-150.04
-169.02
-178.18
-180.32
-177.89
-171.88
-161.95
-147.61
-129.13
-107.75
-84.99
-61.60
-37.47
-12.14
14.12
39.72
62.14
79.10
89.73
95.21
98.26
101.68
107.06
114.05
120.86
125.36
126.46
124.71
121.98
120.17
120.00
120.60
119.99
116.23
108.32
96.35
80.92
62.43
40.93
16.52
-9.73
-35.48
-57.67
-73.67
-82.50
-85.27
-84.61
-83.45
-83.81
-86.25
-90.11
-94.26
-97.69
-99.75
-100.08
-98.29
-93.96
-86.73
-76.68
-64.48
-51.33
-38.58
-27.31
-18.03
-10.65
-4.65
0.58
5.39
9.81
13.57
16.28
17.69
17.80
16.93
15.66
14.72
14.72
16.01
18.51
21.62
24.51
26.45
27.17
26.95
26.49
26.35
26.64
26.75
25.61
22.25
16.31
8.20
-1.01
-10.16
-18.35
-25.07
-29.98
-32.79
-33.11
-30.72
-25.75
-18.75
-10.58
-2.17
5.73
12.44
17.33
19.80
19.50
16.68
12.31
7.89
4.87
4.02
5.10
6.99
8.34
8.15
6.23
3.05
-0.56
-3.96
-6.89
-9.51
-12.08
-14.66
-17.07
-18.91
-19.87
-19.97
-19.66
-19.70
-20.87
-23.65
-28.01
-33.39
-38.70
-42.71
-44.25
-42.58
-37.53
-29.50
-19.32
-7.90
3.91
15.46
26.17
35.40
42.39
46.49
47.36
45.24
40.95
35.53
29.87
24.47
19.40
14.55
9.97
5.98
3.12
1.77
1.94
3.16
4.60
5.42
5.07
3.42
0.77
-2.34
-5.35
-7.91
-9.95
-11.80
-13.98
-17.00
-21.09
-25.92
-30.65
-34.06
-35.00
-32.70
-27.03
-18.52
-8.17
2.75
12.94
21.30
27.08
29.98
30.19
28.35
25.28
21.80
18.43
15.39
12.67
10.20
7.98
6.20
5.08
4.81
5.34
6.40
7.54
8.26
8.18
7.14
5.27
2.85
0.19
-2.46
-5.05
-7.68
-10.51
-13.73
-17.40
-21.49
-25.77
-29.82
-33.04
-34.68
-34.01
-30.48
-24.01
-15.09
-4.72
5.71
14.82
21.54
25.35
26.26
24.73
21.43
17.04
12.21
7.40
3.05
-0.54
-3.14
-4.69
-5.29
-5.22
-4.86
-4.53
-4.41
-4.52
-4.77
-5.07
-5.50
-6.29
-7.77
-10.23
-13.73
-18.14
-23.13
-28.40
-33.80
-39.36
-45.15
-51.10
-56.79
-61.37
-63.81
-63.29
-59.61
-53.51
-46.48
-40.32
-36.45
-35.43
-36.86
-39.80
-43.35
-47.19
-51.77
-57.85
-65.97
-75.91
-86.65
-96.66
-104.43
-108.84
-109.20
-105.22
-96.86
-84.39
-68.66
-51.24
-34.31
-19.92
-9.25
-1.91
4.04
11.37
22.60
38.98
60.19
84.91
111.52
138.90
166.62
194.23
220.62
243.45
259.33
264.55
256.30
233.96
199.87
159.06
117.86
81.63
53.00
31.58
15.25
2.48
-6.36
-9.26
-4.77
5.69
17.33
23.95
21.62
11.45
-0.42
-5.88
0.64
19.20
44.36
68.27
84.34
89.59
84.84
72.68
55.58
34.79
10.77
-15.57
-42.11
-65.73
-83.34
-92.96
-94.31
-88.54
-77.43
-62.55
-44.87
-24.93
-3.31
18.90
39.98
57.77
70.18
75.58
73.05
62.35
43.85
18.53
-11.90
-44.93
-77.51
-106.57
-129.69
-145.61
-154.25
-156.20
-151.99
-141.77
-125.50
-103.76
-78.37
-52.52
-29.94
-13.67
-4.88
-2.65
-4.51
-7.67
-10.14
-11.40
-12.12
-13.45
-16.18
-20.24
-24.69
-28.20
-29.59
-28.25
-24.12
-17.49
-8.53
2.95
17.43
35.31
56.27
79.04
101.31
120.28
133.47
139.38
137.89
130.04
117.55
102.28
85.86
69.61
54.67
42.15
32.94
27.33
24.60
22.95
19.92
13.27
1.83
-14.02
-32.49
-51.04
-67.32
-79.83
-88.25
-93.25
-95.91
-97.24
-97.66
-96.94
-94.24
-88.40
-78.23
-63.01
-42.93
-19.48
4.70
26.39
43.00
53.51
58.80
61.14
62.97
65.78
69.70
74.01
77.88
80.79
82.30
81.51
76.95
67.20
52.06
33.41
14.96
0.84
-6.20
-6.19
-1.86
2.54
3.10
-2.30
-13.55
-28.84
-45.75
-62.23
-77.08
-89.79
-100.04
-107.25
-110.58
-109.26
-103.28
-93.58
-81.85
-69.73
-58.16
-47.08
-35.80
-23.78
-11.33
0.36
9.69
15.40
17.19
15.87
12.85
9.53
6.78
4.78
3.30
2.03
0.92
0.10
-0.24
-0.15
0.00
-0.35
-1.65
-3.91
-6.57
-8.71
-9.44
-8.43
-6.11
-3.55
-2.06
-2.61
-5.48
-10.11
-15.43
-20.25
-23.55
-24.82
-23.88
-20.91
-16.24
-10.31
-3.65
3.14
9.47
14.83
18.78
21.05
21.51
20.24
17.54
13.90
9.97
6.41
3.80
2.55
2.84
4.64
7.72
11.65
15.85
19.62
22.26
23.26
22.41
19.94
16.49
12.91
10.03
8.40
8.08
8.61
9.13
8.71
6.73
3.13
-1.49
-6.06
-9.39
-10.42
-8.55
-3.68
3.83
13.16
23.16
32.52
39.98
44.65
46.19
44.94
41.61
37.04
31.87
26.31
20.37
14.01
7.46
1.19
-4.13
-7.94
-10.01
-10.54
-10.04
-9.20
-8.59
-8.54
-9.10
-10.14
-11.46
-12.92
-14.51
-16.24
-18.15
-20.26
-22.55
-24.99
-27.55
-30.13
-32.48
-34.11
-34.32
-32.42
-27.90
-20.77
-11.59
-1.43
8.37
16.60
22.46
25.72
26.68
25.95
24.19
21.88
19.30
16.56
13.83
11.33
9.37
8.21
7.94
8.42
9.32
10.30
11.03
11.35
11.16
10.39
9.00
6.93
4.24
1.11
-2.20
-5.41
-8.40
-11.27
-14.27
-17.65
-21.35
-24.99
-27.75
-28.76
-27.32
-23.21
-16.77
-8.76
-0.10
8.34
15.90
22.10
26.64
29.31
30.01
28.82
26.00
21.98
17.34
12.76
8.84
6.09
4.74
4.71
5.62
6.89
7.93
8.35
8.01
7.09
5.89
4.67
3.60
2.67
1.81
0.87
-0.29
-1.85
-4.03
-6.95
-10.57
-14.46
-17.89
-20.02
-20.30
-18.75
-16.04
-13.25
-11.50
-11.55
-13.58
-17.23
-21.75
-26.20
-29.70
-31.37
-30.55
-26.85
-20.33
-11.53
-1.50
8.47
17.18
23.77
27.87
29.60
29.35
27.63
24.92
21.62
18.11
14.77
11.95
9.87
8.64
8.21
8.38
8.93
9.60
10.14
10.34
10.04
9.16
7.70
5.72
3.34
0.63
-2.32
-5.49
-8.89
-12.59
-16.63
-20.99
-25.42
-29.43
-32.28
-33.15
-31.36
-26.66
-19.29
-10.01
0.05
9.70
17.89
23.92
27.50
28.73
27.97
25.74
22.55
18.86
15.04
11.43
8.33
6.03
4.75
4.57
5.41
6.95
8.73
10.20
10.91
10.60
9.30
7.24
4.84
2.46
0.31
-1.63
-3.66
-6.23
-9.85
-14.84
-21.17
-28.33
-35.36
-41.03
-44.26
-44.28
-40.94
-34.67
-26.33
-17.00
-7.76
0.51
7.29
12.43
16.17
18.85
20.78
22.08
22.68
22.47
21.52
20.14
18.90
18.39
19.03
20.89
23.68
26.84
29.68
31.58
32.11
31.08
28.56
24.88
20.49
15.84
11.30
7.10
3.28
-0.22
-3.66
-7.31
-11.35
-15.81
-20.36
-24.41
-27.15
-27.86
-26.20
-22.49
-17.69
-13.23
-10.50
-10.49
-13.50
-19.14
-26.71
-35.47
-44.85
-54.38
-63.59
-71.78
-78.01
-81.30
-80.80
-76.05
-67.00
-53.97
-37.71
-19.39
-0.62
16.66
30.66
40.31
45.84
48.90
52.12
58.26
69.10
84.84
104.00
124.03
142.08
155.89
164.03
165.88
161.34
150.66
134.62
114.70
93.20
72.87
56.03
43.70
35.17
28.37
20.89
11.08
-1.32
-15.56
-30.90
-47.57
-67.11
-91.60
-122.32
-158.59
-197.37
-234.00
-263.60
-282.49
-289.25
-284.78
-271.55
-252.39
-229.19
-201.98
-168.72
-126.25
-71.88
-5.50
68.76
142.32
203.82
241.94
249.04
223.98
173.25
109.25
46.45
-3.53
-35.53
-52.03
-61.02
-72.25
-93.42
-127.67
-173.39
-225.62
-277.85
-323.56
-357.48
-376.34
-379.49
-368.93
-348.36
-321.54
-290.58
-255.30
-213.98
-165.37
-109.93
-49.97
11.49
72.19
131.74
191.36
252.27
314.16
373.97
426.34
465.24
485.81
485.68
464.84
425.16
369.68
302.54
229.46
157.87
96.05
51.27
27.77
25.53
40.72
67.18
98.45
129.02
154.47
171.33
177.17
170.98
153.22
126.04
92.85
57.74
24.53
-3.92
-25.98
-41.46
-51.13
-55.90
-56.12
-51.61
-42.65
-31.16
-21.17
-17.69
-24.40
-41.39
-64.64
-87.74
-105.13
-114.79
-118.69
-120.85
-124.46
-129.94
-134.79
-135.03
-127.46
-111.30
-88.02
-59.86
-28.30
6.74
46.37
91.43
141.05
191.90
238.77
276.19
300.31
310.22
308.09
297.98
284.02
268.67
251.99
232.15
206.92
175.10
137.17
94.96
50.38
4.58
-42.17
-89.69
-136.74
-180.38
-216.72
-242.46
-256.18
-258.83
-252.97
-241.42
-226.35
-209.20
-191.39
-174.92
-162.18
-155.00
-153.56
-155.92
-158.68
-158.21
-151.92
-138.82
-119.39
-95.30
-69.02
-43.58
-22.00
-6.39
2.95
7.98
12.38
19.96
33.07
51.45
72.35
91.65
105.41
111.19
108.74
99.82
87.47
75.04
64.97
58.13
53.69
49.68
44.05
35.72
24.82
12.29
-1.00
-14.86
-29.81
-46.40
-64.33
-81.98
-96.73
-105.83
-107.40
-101.09
-88.13
-70.91
-52.29
-34.76
-19.94
-8.35
0.43
7.33
13.12
17.99
21.56
23.30
23.06
21.51
19.93
19.53
20.72
22.67
23.65
21.89
16.59
8.39
-0.82
-8.90
-14.54
-17.97
-20.93
-25.77
-34.28
-46.80
-61.99
-77.63
-91.68
-103.20
-112.53
-120.53
-127.59
-132.87
-134.49
-130.40
-119.60
-102.92
-82.95
-63.12
-46.67
-35.74
-30.87
-30.92
-33.12
-33.42
-27.11
-9.84
20.85
64.24
115.92
168.60
214.20
246.29
261.99
262.24
250.66
231.44
207.53
180.05
148.99
114.62
78.61
44.10
14.66
-7.25
-21.19
-28.61
-31.83
-32.79
-32.35
-30.48
-27.07
-22.70
-18.83
-17.28
-19.34
-25.27
-34.25
-44.61
-54.10
-59.89
-58.86
-48.39
-27.62
1.37
33.45
61.85
80.48
86.23
79.88
65.35
47.84
31.66
19.21
10.81
5.30
0.79
-4.93
-14.00
-28.06
-47.52
-70.99
-95.24
-115.92
-128.85
-131.45
-123.66
-107.90
-88.20
-68.88
-53.10
-42.21
-35.78
-32.21
-29.32
-25.00
-17.47
-5.56
10.96
31.17
53.19
74.82
94.39
111.38
126.28
139.83
152.04
161.72
166.76
165.19
156.25
140.81
120.87
98.48
74.81
49.80
22.66
-7.20
-39.46
-72.73
-105.06
-134.83
-161.30
-184.60
-205.21
-223.13
-237.48
-246.76
-249.73
-246.36
-238.37
-228.98
-221.75
-219.01
-220.56
-223.34
-222.35
-212.35
-189.68
-153.47
-105.69
-50.40
7.45
63.12
112.84
154.00
185.31
206.71
219.19
224.63
225.27
223.10
219.28
213.79
205.58
193.10
174.97
150.71
121.04
87.75
53.28
20.02
-10.35
-37.19
-60.76
-81.66
-100.05
-115.20
-125.66
-129.99
-127.83
-120.43
-110.41
-100.50
-92.15
-84.64
-75.37
-60.95
-38.56
-6.94
33.36
80.16
130.09
178.86
221.72
254.14
272.98
277.41
269.28
252.41
231.22
209.37
188.82
169.98
152.44
135.76
120.01
105.61
93.02
82.42
73.55
65.92
59.06
52.73
46.62
40.32
33.11
24.21
13.22
0.56
-12.35
-23.55
-31.57
-36.34
-39.51
-43.73
-51.19
-62.32
-75.44
-87.58
-96.08
-99.91
-99.95
-98.20
-96.43
-95.35
-94.49
-93.13
-91.09
-89.14
-88.50
-90.06
-93.73
-98.41
-102.56
-104.70
-103.98
-100.33
-94.31
-86.88
-79.13
-72.02
-66.18
-61.77
-58.45
-55.43
-51.76
-46.61
-39.66
-31.22
-22.18
-13.64
-6.59
-1.53
1.56
3.20
4.11
5.05
6.57
9.03
12.52
16.91
21.95
27.44
33.46
40.46
49.24
60.62
74.94
91.67
109.27
125.56
138.32
145.99
148.11
145.38
139.28
131.50
123.42
115.75
108.51
101.19
93.07
83.65
72.95
61.69
51.14
42.64
36.91
33.56
31.00
26.97
19.33
6.85
-10.34
-30.96
-53.02
-74.42
-93.37
-108.50
-118.93
-124.22
-124.48
-120.32
-112.82
-103.30
-93.11
-83.41
-75.02
-68.32
-63.28
-59.49
-56.33
-53.18
-49.67
-45.81
-41.87
-38.17
-34.90
-31.95
-29.05
-25.92
-22.55
-19.19
-16.27
-14.21
-13.16
-12.94
-13.13
-13.27
-13.05
-12.49
-11.86
-11.64
-12.31
-14.19
-17.31
-21.34
-25.67
-29.52
-32.12
-32.86
-31.39
-27.72
-22.17
-15.32
-8.03
-1.23
4.10
7.15
7.46
5.05
0.44
-5.38
-11.20
-15.74
-17.89
-16.89
-12.47
-4.98
4.62
14.85
24.07
30.96
34.93
36.29
36.03
35.36
35.15
35.57
36.15
36.08
34.68
31.71
27.41
22.29
16.89
11.69
6.97
3.07
0.36
-0.72
0.26
3.67
9.62
18.02
28.42
40.11
52.22
63.88
74.34
83.04
89.56
93.57
94.95
93.96
91.65
89.85
90.82
96.27
106.44
119.52
132.00
139.86
139.94
131.04
114.18
92.03
67.85
44.56
24.22
7.90
-4.10
-12.07
-16.80
-19.46
-21.48
-24.22
-28.49
-34.29
-40.73
-46.21
-49.04
-47.98
-42.82
-34.59
-25.30
-17.40
-12.99
-13.21
-17.81
-25.39
-33.82
-41.13
-46.12
-48.80
-50.23
-51.91
-55.04
-59.93
-65.92
-71.76
-76.21
-78.51
-78.72
-77.49
-75.75
-74.25
-73.28
-72.65
-71.82
-70.28
-67.80
-64.64
-61.37
-58.58
-56.62
-55.36
-54.34
-52.99
-50.79
-47.34
-42.16
-34.66
-24.22
-10.64
5.61
23.19
40.25
55.00
66.30
73.95
78.60
81.29
83.09
84.75
86.60
88.74
91.13
93.66
96.18
98.43
99.98
100.35
99.02
95.66
90.17
82.68
73.38
62.46
50.04
36.44
22.39
9.16
-1.70
-9.05
-12.79
-14.01
-14.47
-15.41
-16.48
-15.68
-10.18
2.08
21.19
45.00
70.26
94.14
115.47
134.87
153.64
172.47
190.57
206.06
216.96
222.24
222.21
218.02
210.89
201.49
189.95
176.35
161.05
144.88
128.71
113.03
97.69
82.21
66.23
49.92
33.91
18.76
4.42
-10.01
-26.08
-45.50
-69.51
-98.41
-131.15
-165.05
-195.84
-218.26
-227.30
-220.12
-197.49
-164.06
-127.01
-93.49
-68.35
-52.87
-45.58
-44.05
-46.73
-53.70
-66.06
-84.47
-107.60
-131.82
-151.87
-162.63
-160.84
-146.22
-121.34
-90.73
-59.28
-30.85
-7.51
10.45
23.78
33.50
40.34
44.78
47.30
48.59
49.51
50.64
52.03
52.99
52.39
49.06
42.23
31.82
18.37
2.74
-14.26
-32.05
-50.31
-68.77
-87.04
-104.48
-120.45
-134.56
-146.87
-157.86
-168.18
-178.25
-188.01
-197.07
-205.00
-211.78
-218.11
-225.33
-235.09
-249.09
-269.09
-296.73
-332.97
-377.03
-425.42
-471.78
-508.10
-527.04
-524.59
-501.48
-462.83
-416.04
-367.96
-322.99
-282.89
-247.84
-217.87
-193.43
-174.79
-160.88
-148.71
-134.10
-113.35
-85.14
-51.27
-16.03
15.71
40.65
58.41
71.36
83.33
97.94
117.27
141.42
168.82
197.48
225.70
253.16
281.28
312.60
349.31
391.43
435.58
475.57
504.47
517.30
512.76
493.25
463.15
426.48
385.51
340.69
291.87
239.60
185.42
131.05
77.27
23.44
-31.62
-88.17
-144.21
-195.67
-237.73
-266.79
-282.07
-285.84
-282.67
-277.06
-271.79
-267.13
-261.34
-252.43
-239.66
-224.08
-207.82
-192.76
-179.29
-166.28
-152.02
-135.49
-117.32
-99.64
-84.82
-74.30
-67.79
-63.51
-59.16
-53.17
-45.19
-35.95
-26.50
-17.32
-7.62
4.67
22.12
46.74
78.73
116.01
154.45
188.86
214.62
228.84
230.73
221.24
202.15
175.55
143.68
109.30
75.77
46.58
24.41
10.24
3.12
0.83
1.27
3.45
7.69
14.86
25.31
38.11
51.52
64.08
75.56
86.84
98.82
110.78
119.36
119.04
104.23
72.12
24.95
-29.86
-81.73
-120.55
-140.03
-139.31
-122.09
-93.99
-60.03
-23.13
15.25
53.63
89.20
118.02
136.49
143.20
139.76
129.91
117.42
104.29
90.14
73.36
53.05
30.45
8.88
-7.83
-17.22
-19.42
-16.85
-12.74
-9.43
-7.51
-6.20
-4.52
-2.30
-0.39
0.09
-1.26
-3.62
-5.36
-5.08
-2.61
0.75
2.98
2.51
-0.73
-5.13
-8.11
-7.36
-1.91
7.45
18.51
28.63
35.76
39.13
39.27
37.57
35.42
33.67
32.41
31.19
29.50
27.10
24.19
21.23
18.74
17.13
16.66
17.40
19.27
21.95
24.83
27.02
27.62
26.07
22.37
17.05
10.96
4.85
-0.86
-6.10
-11.02
-15.84
-20.62
-25.19
-29.15
-31.86
-32.65
-30.98
-26.66
-19.98
-11.79
-3.31
4.11
9.31
11.40
9.93
4.85
-3.55
-14.62
-27.41
-40.84
-53.82
-65.46
-74.98
-81.78
-85.39
-85.57
-82.57
-77.22
-70.84
-64.76
-59.74
-55.63
-51.31
-45.27
-36.30
-24.01
-9.06
7.14
22.89
36.70
47.54
54.96
58.91
59.75
58.18
55.18
52.07
50.30
51.23
55.83
64.32
76.02
89.34
102.02
111.59
115.88
113.68
105.17
92.07
77.28
64.08
55.27
52.34
55.21
62.40
71.54
80.11
86.13
88.62
87.69
84.33
79.87
75.31
70.97
66.45
61.07
54.54
47.22
40.01
33.75
28.75
24.65
20.86
17.29
14.66
14.36
17.71
25.15
35.88
47.98
59.17
67.57
72.25
73.25
71.28
67.23
61.78
55.33
48.09
40.26
32.29
24.81
18.55
14.10
11.66
10.97
11.42
12.22
12.70
12.45
11.40
9.71
7.62
5.35
2.97
0.42
-2.40
-5.62
-9.37
-13.69
-18.55
-23.77
-28.93
-33.32
-36.11
-36.43
-33.72
-27.92
-19.59
-9.78
0.26
9.27
16.35
20.96
22.93
22.37
19.63
15.21
9.75
3.94
-1.56
-6.21
-9.66
-11.80
-12.74
-12.80
-12.39
-11.97
-11.90
-12.38
-13.46
-15.07
-17.06
-19.27
-21.58
-23.94
-26.33
-28.84
-31.59
-34.67
-38.12
-41.76
-45.11
-47.49
-48.06
-46.12
-41.26
-33.60
-23.71
-12.58
-1.33
8.96
17.41
23.42
26.66
27.09
24.96
20.83
15.52
10.00
5.20
1.78
0.04
-0.10
0.95
2.62
4.35
5.72
6.63
7.23
7.82
8.66
9.75
10.77
11.27
10.89
9.62
7.81
6.09
5.14
5.54
7.84
12.43
19.52
28.89
39.77
50.98
61.32
70.13
77.65
84.83
92.59
100.96
108.51
112.63
110.72
101.74
87.14
70.55
56.07
46.17
40.42
35.64
27.61
13.09
-8.89
-37.07
-68.98
-101.88
-133.09
-159.57
-177.82
-184.37
-177.11
-156.69
-126.97
-94.12
-64.55
-42.96
-31.07
-27.70
-29.71
-33.35
-35.35
-33.47
-26.53
-14.00
4.22
27.77
55.25
83.60
108.05
123.47
126.51
117.64
101.54
85.16
74.51
71.92
75.27
79.97
82.28
81.98
82.28
87.51
99.88
117.79
136.40
150.19
155.46
151.71
141.10
126.62
110.26
92.21
71.68
48.41
23.82
0.72
-17.09
-26.44
-26.09
-17.52
-4.59
8.11
17.06
20.59
18.03
9.97
-2.16
-16.42
-31.10
-45.30
-58.93
-72.35
-87.18
-107.40
-136.67
-175.83
-220.89
-263.40
-293.11
-301.15
-283.23
-242.46
-190.51
-141.96
-108.39
-94.07
-96.01
-107.40
-120.99
-131.28
-122.55
-85.12
-19.93
60.97
142.88
216.47
278.09
324.45
358.00
379.45
387.10
380.24
360.56
331.49
299.00
266.36
234.17
201.68
167.05
127.76
82.98
34.47
-13.80
-57.44
-93.98
-123.11
-145.85
-164.42
-181.58
-198.92
-216.15
-231.25
-241.72
-246.34
-245.52
-240.83
-234.87
-230.39
-229.00
-230.66
-233.66
-235.80
-235.51
-232.58
-228.03
-223.93
-222.84
-227.20
-238.67
-257.58
-282.22
-308.64
-331.22
-344.17
-343.98
-330.86
-308.86
-283.77
-260.07
-239.00
-218.56
-195.80
-169.62
-142.35
-119.01
-105.23
-105.06
-119.86
-148.35
-186.96
-230.24
-271.10
-301.80
-315.91
-310.30
-286.45
-249.65
-206.76
-163.53
-122.98
-85.70
-51.42
-20.29
6.91
29.50
48.05
64.68
82.56
104.75
133.13
167.76
206.62
245.89
280.79
306.58
319.87
319.42
306.39
283.77
255.50
225.34
196.35
170.51
148.87
131.78
119.27
111.19
107.29
107.06
109.67
113.72
117.35
118.73
116.75
111.77
105.59
100.72
99.20
101.50
106.21
110.83
113.08
112.11
108.74
104.75
101.71
100.01
98.88
97.15
94.31
91.00
88.83
89.42
93.53
100.77
109.88
119.33
127.93
134.92
139.86
142.45
142.56
140.41
136.55
131.70
126.37
120.61
114.12
106.55
98.05
89.38
81.62
75.51
70.86
66.43
60.32
50.90
37.47
20.59
1.61
-17.99
-37.11
-55.08
-71.37
-85.26
-95.82
-102.25
-104.26
-102.12
-96.51
-88.08
-77.13
-63.68
-47.69
-29.44
-9.73
10.23
29.10
45.69
59.02
68.31
72.76
71.70
64.76
52.26
35.63
17.28
0.16
-13.02
-20.72
-22.98
-21.30
-17.82
-14.15
-10.60
-6.15
0.81
11.54
26.15
43.35
60.86
75.95
86.13
89.67
85.85
75.24
59.58
41.50
23.84
8.90
-2.12
-9.30
-13.57
-16.09
-17.62
-18.40
-18.43
-17.72
-16.56
-15.34
-14.27
-13.20
-11.76
-9.60
-6.75
-3.69
-1.04
0.81
2.01
3.26
5.40
8.89
13.48
18.10
21.39
22.20
20.07
15.32
8.85
1.71
-5.23
-11.40
-16.57
-20.70
-23.94
-26.62
-29.29
-32.55
-36.84
-42.14
-47.78
-52.59
-55.21
-54.59
-50.31
-42.74
-32.87
-22.03
-11.43
-1.98
5.85
11.98
16.50
19.51
21.09
21.24
20.09
18.01
15.53
13.31
11.88
11.51
12.19
13.70
15.71
17.82
19.59
20.54
20.36
18.92
16.39
13.21
9.87
6.75
3.92
1.14
-2.02
-6.00
-11.12
-17.53
-25.13
-33.56
-42.20
-50.16
-56.41
-59.94
-59.99
-56.29
-49.18
-39.45
-28.14
-16.30
-4.75
5.92
15.23
22.77
28.16
31.22
32.13
31.45
29.93
28.29
26.92
25.82
24.74
23.43
21.84
20.17
18.66
17.43
16.37
15.13
13.33
10.71
7.30
3.35
-0.67
-4.37
-7.46
-9.92
-12.00
-14.12
-16.77
-20.30
-24.73
-29.66
-34.32
-37.65
-38.62
-36.52
-31.19
-23.10
-13.24
-2.88
6.77
14.74
20.52
23.95
25.17
24.43
22.10
18.56
14.30
9.83
5.64
2.08
-0.68
-2.69
-4.07
-4.90
-5.22
-4.99
-4.23
-3.17
-2.21
-1.87
-2.56
-4.46
-7.40
-11.00
-14.81
-18.45
-21.69
-24.49
-26.95
-29.30
-31.89
-35.09
-39.09
-43.74
-48.36
-51.88
-53.07
-50.99
-45.33
-36.59
-25.91
-14.79
-4.57
3.82
9.98
13.95
15.96
16.29
15.21
13.02
10.08
6.86
3.88
1.56
0.20
-0.14
0.45
1.77
3.55
5.52
7.41
8.87
9.60
9.31
7.87
5.34
1.99
-1.77
-5.54
-9.05
-12.24
-15.22
-18.24
-21.53
-25.27
-29.52
-34.16
-38.84
-42.93
-45.62
-46.06
-43.61
-38.07
-29.77
-19.57
-8.62
1.91
11.05
18.10
22.70
24.82
24.71
22.88
20.00
16.74
13.68
11.16
9.33
8.21
7.73
7.86
8.47
9.39
10.35
10.96
10.91
10.02
8.29
5.87
3.01
-0.06
-3.16
-6.22
-9.23
-12.26
-15.37
-18.59
-22.01
-25.66
-29.62
-33.82
-38.03
-41.75
-44.21
-44.64
-42.43
-37.38
-29.77
-20.23
-9.56
1.48
12.21
22.03
30.23
36.08
38.99
38.75
35.78
31.13
26.15
22.06
19.59
18.72
18.92
19.49
19.90
20.01
19.98
20.01
20.10
20.00
19.29
17.58
14.77
11.08
6.92
2.78
-1.05
-4.52
-7.80
-11.12
-14.62
-18.38
-22.32
-26.29
-30.07
-33.32
-35.56
-36.21
-34.69
-30.61
-23.97
-15.17
-5.02
5.44
15.17
23.24
29.00
32.14
32.73
31.16
28.06
24.16
20.11
16.40
13.31
11.00
9.53
8.90
9.03
9.72
10.63
11.35
11.52
10.91
9.49
7.39
4.77
1.75
-1.60
-5.24
-9.03
-12.78
-16.27
-19.38
-22.18
-24.98
-28.15
-31.90
-36.09
-40.10
-42.91
-43.46
-40.92
-35.10
-26.47
-16.12
-5.48
4.07
11.51
16.38
18.74
19.04
17.89
15.81
13.19
10.25
7.18
4.24
1.73
0.01
-0.70
-0.40
0.75
2.40
4.18
5.75
6.83
7.21
6.68
5.16
2.66
-0.62
-4.35
-8.19
-11.85
-15.28
-18.62
-22.17
-26.24
-31.01
-36.38
-41.92
-46.86
-50.28
-51.26
-49.16
-43.80
-35.54
-25.18
-13.88
-2.81
6.98
14.73
20.01
22.70
22.95
21.15
17.86
13.79
9.61
5.89
2.96
0.89
-0.46
-1.38
-2.05
-2.52
-2.69
-2.41
-1.75
-1.04
-0.79
-1.31
-2.34
-3.07
-2.51
-0.28
2.94
5.52
5.64
2.25
-4.32
-12.63
-21.00
-28.32
-34.36
-39.40
-43.54
-46.40
-47.43
-46.59
-44.77
-43.55
-44.32
-47.44
-51.98
-56.09
-57.98
-56.61
-51.89
-44.37
-34.61
-22.74
-8.47
8.29
26.83
45.32
61.12
71.75
75.92
74.24
68.88
62.50
56.87
52.13
46.82
38.94
27.12
11.32
-7.05
-25.34
-40.19
-48.09
-46.27
-33.94
-13.34
10.51
31.47
44.93
49.81
48.77
46.40
46.22
48.60
50.76
48.72
39.87
24.45
5.17
-14.73
-33.34
-50.79
-68.53
-87.39
-106.10
-120.91
-126.72
-119.57
-98.89
-68.62
-36.12
-9.36
6.56
11.58
10.32
9.60
15.14
29.12
49.82
73.36
95.85
114.96
130.27
142.36
151.60
157.39
158.39
153.63
143.54
129.93
115.23
100.89
86.68
71.39
54.43
37.42
24.48
20.50
28.34
46.52
68.89
86.73
92.26
81.95
58.07
28.12
2.31
-9.59
-0.91
30.02
79.39
139.19
199.47
250.94
287.13
305.22
305.58
290.64
263.72
228.25
187.41
143.89
99.87
56.83
15.42
-24.48
-63.52
-102.37
-141.20
-179.07
-213.74
-241.96
-260.29
-266.36
-259.87
-243.28
-221.40
-199.95
-183.44
-173.62
-169.35
-167.89
-166.61
-164.17
-160.38
-155.33
-148.41
-138.45
-124.75
-108.26
-91.97
-79.59
-73.42
-72.70
-73.67
-71.52
-63.05
-48.53
-31.54
-17.07
-9.10
-8.97
-15.44
-25.84
-37.71
-49.78
-61.86
-73.76
-84.47
-92.16
-95.28
-93.47
-87.94
-80.47
-71.87
-61.20
-46.31
-25.74
-0.37
26.21
49.21
65.11
73.33
76.08
76.44
76.08
74.13
68.10
56.31
39.99
23.63
13.29
13.81
26.63
49.11
75.74
100.35
117.91
125.57
122.66
110.31
91.05
68.24
45.20
24.27
6.16
-9.76
-24.29
-36.98
-45.71
-47.48
-40.55
-26.11
-8.46
6.68
14.98
15.56
11.29
7.02
6.95
12.62
22.58
33.76
43.04
48.37
48.75
43.48
31.89
13.70
-9.94
-35.77
-58.64
-73.06
-75.27
-64.80
-44.71
-20.31
2.90
20.83
31.50
34.61
30.73
20.99
7.24
-7.53
-19.27
-24.01
-19.37
-5.92
12.85
31.83
46.37
54.02
54.89
50.80
43.70
34.88
25.18
15.88
9.46
9.28
18.24
37.26
64.27
94.66
122.60
142.85
151.92
148.53
133.53
109.10
78.20
44.22
10.66
-19.25
-43.19
-60.29
-71.30
-77.87
-81.47
-82.46
-79.95
-72.77
-60.98
-46.64
-33.47
-24.82
-21.88
-22.96
-24.76
-24.73
-22.77
-21.32
-23.50
-31.08
-43.39
-57.83
-71.53
-82.46
-89.64
-92.30
-89.26
-79.43
-62.90
-41.92
-20.47
-2.70
8.82
13.97
14.16
10.89
4.73
-4.57
-16.67
-29.63
-39.91
-43.60
-38.51
-25.20
-6.84
12.38
29.14
42.18
52.17
60.50
68.05
74.31
77.64
76.27
69.38
57.58
42.41
25.25
6.39
-15.08
-40.37
-69.48
-100.03
-127.15
-144.78
-147.61
-132.99
-101.64
-57.67
-7.44
41.78
83.09
111.20
123.43
120.06
103.96
79.38
50.67
21.39
-5.70
-28.17
-43.77
-50.80
-48.84
-39.08
-23.82
-5.52
14.14
34.33
54.37
73.20
89.36
101.67
110.10
115.70
119.48
121.10
118.18
107.05
84.58
49.79
4.68
-46.39
-97.99
-144.94
-183.06
-209.67
-223.82
-226.15
-218.71
-204.66
-187.76
-171.88
-160.21
-154.53
-154.74
-158.76
-163.20
-164.77
-161.53
-153.57
-142.61
-130.79
-119.28
-107.76
-94.91
-79.46
-61.47
-42.38
-24.11
-7.96
6.02
18.74
31.02
42.86
53.36
61.66
68.18
75.08
85.75
102.61
125.47
150.87
173.35
187.77
191.43
184.83
170.84
152.99
133.62
113.19
90.77
65.55
38.51
12.91
-6.39
-14.96
-10.57
5.83
31.04
61.31
94.04
128.10
162.76
196.65
227.23
251.77
268.81
278.90
283.89
285.15
282.42
273.90
257.96
234.71
206.55
176.96
148.53
121.51
93.87
62.56
25.07
-19.37
-69.46
-122.14
-172.99
-216.94
-249.54
-268.23
-273.40
-268.43
-258.41
-248.08
-240.11
-234.24
-228.03
-218.53
-203.37
-181.85
-154.75
-123.95
-92.26
-63.07
-40.13
-26.48
-23.20
-28.96
-40.89
-56.47
-75.29
-98.97
-128.92
-163.60
-197.01
-220.08
-224.36
-205.84
-166.50
-112.85
-52.98
5.95
58.45
100.13
127.27
137.59
131.89
114.90
94.16
76.75
66.73
63.88
65.09
66.70
66.23
62.98
57.29
49.82
41.52
33.93
29.19
29.24
34.56
43.48
52.96
60.08
63.73
64.98
66.11
68.78
72.83
76.45
77.57
75.12
69.37
61.31
51.60
40.18
26.61
10.89
-6.00
-22.33
-36.96
-50.20
-63.82
-79.91
-99.30
-120.62
-140.53
-155.07
-160.94
-156.49
-141.97
-119.36
-92.10
-64.72
-41.98
-27.43
-22.08
-23.96
-29.12
-33.55
-35.11
-34.09
-32.29
-31.10
-30.29
-28.18
-22.98
-14.29
-3.50
7.04
15.44
21.27
25.37
28.83
32.06
34.68
36.28
37.23
38.90
42.93
50.09
59.46
68.70
74.88
75.79
70.69
60.42
46.92
32.45
18.84
7.03
-2.90
-11.28
-18.22
-23.19
-24.93
-22.08
-14.03
-1.69
12.41
25.08
33.82
37.97
38.90
39.10
40.73
44.59
50.13
56.30
62.41
68.39
74.23
79.15
81.36
78.67
69.78
55.37
38.13
21.71
9.12
1.57
-1.62
-2.31
-2.42
-3.16
-5.08
-8.40
-13.25
-19.67
-27.21
-34.66
-40.18
-41.74
-37.85
-28.08
-13.27
4.69
23.46
40.80
55.25
66.41
75.09
83.11
92.79
106.20
124.48
147.48
173.75
201.04
226.79
248.63
264.59
273.29
274.08
267.21
253.83
235.98
216.04
196.03
176.79
157.72
136.89
111.96
81.13
43.95
1.28
-45.14
-93.24
-140.92
-185.94
-225.96
-258.93
-283.91
-301.58
-313.75
-322.14
-326.74
-325.08
-313.01
-287.04
-246.65
-195.59
-141.22
-91.96
-54.44
-31.36
-21.10
-18.98
-19.21
-16.90
-9.12
4.29
20.98
36.66
46.24
45.56
33.10
11.08
-14.89
-37.70
-51.64
-54.81
-49.73
-41.70
-36.06
-35.76
-40.86
-50.05
-62.63
-79.38
-101.56
-128.68
-156.96
-179.94
-191.33
-188.19
-172.50
-150.02
-127.36
-108.86
-95.21
-84.42
-73.86
-62.13
-49.48
-36.87
-24.75
-12.57
0.91
16.57
34.50
53.96
73.77
92.63
109.01
120.97
126.37
123.56
112.44
94.95
74.79
56.17
42.38
34.77
32.79
34.73
38.64
42.43
43.86
40.53
30.49
13.49
-7.81
-28.00
-40.74
-41.34
-29.03
-7.55
16.90
38.70
55.32
68.21
80.94
96.36
114.11
130.44
140.69
142.49
137.30
129.33
122.36
117.12
110.86
99.77
82.32
61.00
41.28
28.17
23.02
22.48
20.57
12.41
-3.08
-22.86
-41.73
-55.10
-60.95
-59.70
-53.28
-44.15
-34.80
-27.48
-24.22
-26.20
-33.28
-43.52
-53.74
-60.77
-62.94
-60.80
-56.75
-53.32
-51.26
-48.63
-41.13
-24.19
4.55
43.64
87.94
130.03
162.16
178.43
176.33
157.43
126.99
92.72
63.20
45.79
44.72
59.89
86.81
117.96
144.92
160.82
162.22
149.68
126.77
98.71
70.58
46.30
28.20
16.78
10.38
5.08
-4.79
-25.14
-59.30
-105.37
-155.57
-198.26
-221.58
-217.52
-184.29
-126.51
-53.54
23.22
92.54
145.39
176.25
183.85
170.54
140.75
99.61
52.32
4.84
-35.35
-59.71
-61.10
-37.21
7.31
61.49
111.97
148.03
165.30
166.07
156.80
144.53
134.31
128.56
127.77
131.50
138.45
146.49
152.53
153.11
145.32
127.51
99.78
63.66
21.73
-23.02
-67.62
-109.72
-148.02
-182.32
-213.40
-242.52
-270.89
-298.82
-325.41
-348.24
-363.78
-368.19
-358.58
-334.48
-298.67
-256.76
-215.54
-180.52
-154.12
-135.27
-120.74
-107.43
-94.03
-81.31
-70.92
-63.74
-59.29
-56.16
-53.48
-51.65
-52.07
-55.76
-62.03
-68.26
-71.04
-67.82
-58.19
-43.87
-27.75
-12.52
0.09
9.37
15.19
17.30
15.27
8.61
-2.68
-17.73
-34.76
-51.33
-65.09
-74.36
-78.51
-77.91
-73.31
-65.42
-54.66
-41.55
-27.22
-13.58
-2.89
3.30
5.00
4.04
3.22
4.81
9.32
15.04
18.77
17.30
8.88
-5.98
-24.69
-43.56
-59.12
-69.15
-73.00
-71.37
-65.58
-57.06
-47.04
-36.62
-26.72
-17.89
-10.30
-3.62
2.50
7.95
11.92
13.08
10.42
4.01
-4.72
-13.56
-20.71
-25.73
-29.70
-34.63
-42.27
-53.15
-66.34
-79.93
-91.83
-100.45
-105.11
-106.08
-104.51
-101.87
-99.57
-98.43
-98.28
-98.04
-96.29
-91.99
-85.11
-76.68
-68.26
-61.20
-56.09
-52.73
-50.63
-49.55
-49.87
-52.27
-57.11
-63.87
-70.99
-76.36
-78.07
-75.24
-68.40
-59.20
-49.65
-41.23
-34.18
-27.44
-19.17
-7.58
8.16
27.54
48.90
70.35
90.51
109.27
127.74
147.67
170.78
198.31
230.80
268.05
308.84
350.52
388.78
418.18
433.70
432.82
417.09
391.83
364.04
339.31
319.27
301.21
280.11
251.98
216.08
175.19
133.53
94.18
57.89
24.10
-6.73
-31.48
-45.01
-42.64
-23.26
9.47
48.43
86.00
116.58
137.57
148.31
149.11
140.87
125.84
108.09
93.02
85.47
87.68
98.59
114.48
130.82
143.76
150.41
148.49
136.09
112.56
79.56
42.10
7.70
-16.06
-24.49
-17.80
-1.00
18.35
32.97
38.29
33.41
20.55
3.45
-14.22
-29.82
-41.87
-49.78
-53.57
-53.85
-51.95
-50.09
-50.86
-56.40
-67.38
-82.40
-98.07
-109.85
-113.50
-106.50
-89.08
-64.15
-36.47
-11.14
7.79
18.14
19.67
13.62
2.01
-12.92
-28.94
-44.00
-56.28
-64.56
-68.65
-69.50
-68.94
-69.02
-71.28
-76.23
-83.26
-90.91
-97.31
-100.74
-100.04
-95.06
-86.84
-77.44
-69.47
-65.09
-65.14
-68.63
-73.12
-75.91
-75.35
-71.55
-66.13
-61.08
-57.71
-56.08
-55.37
-54.70
-53.65
-52.11
-49.77
-45.57
-37.97
-25.65
-8.47
12.14
33.58
52.94
67.90
77.31
81.11
80.15
75.86
70.09
64.75
61.51
61.37
64.43
69.87
76.17
81.26
82.79
78.59
67.48
50.19
29.79
11.11
-0.94
-3.47
2.89
14.10
24.44
28.85
25.11
14.79
2.66
-5.11
-3.50
9.39
31.21
55.76
75.06
81.86
72.09
45.95
7.59
-36.22
-78.22
-112.53
-136.08
-149.44
-156.86
-164.98
-180.28
-205.87
-238.95
-270.45
-287.99
-281.16
-246.70
-190.79
-126.67
-68.85
-26.71
-1.32
13.09
24.06
35.68
46.64
52.33
49.55
39.68
28.27
21.34
21.34
25.75
29.07
26.85
18.75
8.62
1.85
2.18
9.91
22.34
35.75
47.34
56.14
62.67
68.23
74.32
82.33
93.27
107.19
123.01
138.58
151.54
160.38
165.11
167.27
169.03
172.18
177.28
183.54
189.27
192.71
192.69
188.94
182.00
173.06
163.75
155.93
151.22
150.31
152.36
154.80
153.96
146.18
129.18
102.97
69.95
34.25
0.61
-26.93
-46.01
-56.26
-58.97
-56.10
-48.99
-37.57
-20.27
4.78
37.91
76.44
114.57
144.82
160.61
158.73
140.39
110.78
77.09
46.29
23.27
9.90
5.18
6.02
8.41
8.65
4.30
-5.46
-20.06
-38.29
-58.97
-81.41
-105.00
-128.94
-152.04
-173.00
-190.97
-205.81
-217.96
-227.82
-235.31
-239.79
-240.63
-237.86
-232.40
-225.69
-218.93
-212.39
-205.24
-196.07
-183.58
-167.15
-146.98
-123.82
-98.54
-71.81
-44.05
-15.66
12.85
40.75
67.30
91.92
114.17
133.32
147.97
155.81
154.19
141.24
117.09
84.42
47.79
11.90
-20.34
-48.99
-76.69
-107.04
-142.53
-183.05
-225.77
-266.17
-299.83
-323.88
-337.96
-344.13
-345.83
-346.51
-348.07
-350.24
-350.60
-345.64
-331.91
-307.06
-270.69
-224.83
-174.12
-125.32
-85.91
-61.87
-55.32
-63.25
-78.11
-90.29
-91.60
-78.00
-50.34
-13.18
27.64
66.86
100.79
127.37
145.86
156.60
160.83
160.52
157.91
154.78
151.70
147.52
139.57
124.45
99.40
63.65
19.20
-29.28
-75.48
-113.11
-137.84
-148.70
-148.40
-142.14
-135.34
-131.34
-129.85
-127.34
-118.72
-100.19
-71.56
-36.87
-2.63
25.26
44.30
56.16
65.18
75.41
88.22
101.78
112.38
116.79
113.83
104.57
91.50
77.28
64.19
53.98
48.06
47.27
51.22
57.86
63.79
65.62
61.45
51.90
39.74
28.51
20.91
17.65
17.45
18.00
17.27
14.64
11.23
9.42
11.67
19.33
31.99
47.58
63.32
77.08
88.15
97.38
106.13
114.94
122.51
125.72
120.94
105.76
80.11
46.35
8.34
-29.71
-63.86
-90.27
-104.97
-104.30
-86.49
-53.66
-12.62
26.72
55.22
68.73
70.10
67.61
70.39
83.41
104.95
127.92
143.86
147.24
137.46
117.88
92.91
65.23
34.92
0.73
-37.64
-77.92
-115.13
-143.16
-157.22
-155.75
-141.12
-118.66
-94.63
-74.02
-59.22
-49.85
-43.68
-38.00
-30.59
-20.36
-7.22
7.93
23.26
36.05
43.12
41.66
30.25
9.57
-17.69
-47.73
-77.05
-103.41
-126.15
-145.76
-163.08
-178.60
-192.25
-203.43
-211.01
-213.46
-209.36
-197.90
-179.58
-156.31
-130.52
-103.68
-75.16
-42.26
-1.69
48.47
107.35
171.12
234.18
290.84
336.63
368.72
385.90
388.71
379.74
363.78
346.84
334.13
327.83
326.01
323.59
314.93
296.58
268.86
235.31
200.63
168.51
140.61
116.84
96.64
80.02
67.46
59.01
53.44
48.30
40.98
29.97
15.50
-0.71
-16.49
-30.12
-40.87
-48.82
-54.54
-58.74
-61.98
-64.63
-66.63
-67.33
-65.48
-59.62
-48.79
-33.21
-14.62
3.94
19.11
28.27
30.50
26.76
19.32
10.59
1.98
-6.60
-16.21
-27.72
-40.69
-53.09
-61.96
-64.70
-60.25
-49.38
-34.31
-17.53
-1.00
14.53
29.24
43.64
57.87
71.26
82.44
89.93
93.02
92.16
88.68
84.05
78.98
73.26
66.25
57.76
48.72
40.82
35.66
33.53
33.13
32.00
27.59
18.14
2.88
-18.49
-46.31
-81.10
-122.92
-170.58
-221.25
-270.92
-315.26
-350.79
-375.72
-390.26
-396.17
-395.76
-390.60
-380.56
-363.69
-337.07
-298.77
-249.70
-194.69
-141.59
-98.67
-71.05
-58.05
-53.22
-46.97
-30.85
-0.90
41.09
89.02
135.39
174.30
203.16
222.57
234.71
241.41
243.05
238.68
226.80
206.32
177.13
139.96
96.00
46.40
-7.85
-65.54
-124.50
-181.05
-230.20
-266.73
-287.04
-290.60
-280.29
-261.49
-240.47
-222.57
-211.10
-206.97
-208.96
-214.53
-220.65
-224.58
-224.47
-219.81
-211.39
-200.89
-189.99
-179.68
-169.98
-160.24
-149.68
-138.03
-125.66
-113.27
-101.39
-90.03
-78.57
-66.15
-52.06
-36.09
-18.69
-0.73
16.83
33.42
49.00
63.97
78.91
94.32
110.45
127.35
144.75
162.06
178.14
191.48
200.48
204.14
202.51
196.81
188.97
180.64
172.21
162.37
148.79
129.59
105.08
78.52
55.49
41.82
41.15
53.27
74.33
98.76
121.78
141.45
158.97
177.39
199.89
228.41
263.56
304.93
351.20
399.72
445.92
483.44
505.51
507.06
486.46
446.10
391.20
327.61
259.99
191.37
123.97
60.39
4.11
-41.44
-74.66
-96.82
-111.73
-123.94
-136.91
-151.85
-167.50
-180.69
-187.52
-184.73
-171.21
-149.19
-124.11
-103.29
-93.02
-95.34
-106.51
-118.58
-123.45
-117.39
-102.92
-86.77
-76.41
-76.06
-85.07
-98.98
-112.34
-121.17
-123.90
-120.52
-109.73
-90.16
-61.32
-24.66
16.71
59.11
99.37
135.65
167.44
198.17
230.56
264.66
297.16
323.41
339.85
345.45
341.89
332.74
327.78
335.20
358.19
393.17
431.71
464.03
482.27
482.74
466.98
448.06
439.77
450.18
477.85
514.03
548.20
573.01
586.43
549.17
442.35
272.76
72.25
-121.68
-284.96
-410.47
-500.41
-559.89
-594.68
-604.11
-589.74
-557.48
-517.27
-479.11
-449.22
-428.25
-413.50
-401.52
-384.94
-359.71
-326.91
-292.24
-262.53
-242.57
-232.59
-229.85
-231.02
-230.34
-224.48
-213.77
-201.64
-192.29
-189.17
-192.84
-202.29
-215.79
-229.31
-238.33
-238.55
-227.12
-199.54
-160.31
-117.04
-77.93
-49.27
-32.97
-27.31
-28.53
-32.77
-37.29
-41.09
-42.70
-40.32
-32.79
-19.78
-2.86
15.32
32.08
45.94
56.20
64.25
72.56
83.30
97.48
114.14
129.87
138.93
134.56
111.18
68.60
13.85
-40.99
-83.20
-104.38
-103.30
-85.26
-58.69
-31.64
-9.35
7.53
20.86
32.49
42.66
50.29
54.76
56.85
58.25
56.77
51.21
40.82
25.86
7.19
-13.72
-34.46
-50.13
-59.01
-60.29
-53.90
-41.42
-25.40
-7.96
8.83
25.42
43.89
66.58
95.79
132.98
177.03
223.51
264.91
292.25
298.13
279.07
236.64
177.36
110.12
42.24
-23.10
-86.95
-151.85
-218.16
-281.64
-333.93
-365.25
-368.51
-342.39
-291.54
-224.36
-149.72
-74.49
-3.08
61.31
115.46
155.70
178.56
182.22
167.51
137.74
97.73
52.29
5.50
-39.39
-79.73
-113.36
-138.70
-155.05
-162.80
-163.36
-158.96
-152.12
-145.08
-138.86
-133.05
-126.01
-115.75
-100.96
-81.75
-59.58
-36.32
-13.29
9.54
33.29
59.50
89.00
121.50
155.69
189.82
222.29
251.83
277.36
297.79
312.04
319.49
320.45
316.42
309.62
302.06
294.50
286.04
274.80
259.33
239.92
219.00
200.10
186.01
177.21
171.52
165.32
155.65
141.71
125.11
108.83
95.48
86.13
80.13
75.68
70.93
64.69
56.64
47.08
36.58
25.46
13.55
0.27
-15.18
-33.33
-54.05
-76.57
-99.81
-123.04
-146.31
-170.37
-195.85
-222.48
-248.67
-271.95
-289.86
-301.02
-305.44
-303.89
-297.06
-284.93
-267.00
-243.14
-214.59
-183.99
-154.51
-128.37
-105.72
-85.01
-64.55
-44.37
-27.08
-16.88
-17.15
-28.13
-46.07
-64.52
-76.96
-79.31
-70.96
-53.96
-31.38
-5.77
21.24
48.50
74.61
97.37
114.06
122.03
119.43
105.87
82.79
53.39
21.99
-7.13
-30.90
-47.96
-58.28
-62.34
-60.45
-53.02
-41.33
-27.97
-16.31
-9.03
-6.84
-8.27
-10.96
-13.14
-14.39
-15.02
-14.54
-10.89
-1.03
16.94
41.63
67.80
88.29
97.23
93.09
79.63
64.39
55.47
58.14
72.97
96.05
120.89
141.17
152.76
154.36
146.69
131.01
108.03
78.05
42.26
4.06
-30.69
-55.39
-65.51
-61.05
-46.96
-30.93
-19.83
-16.72
-20.09
-25.79
-30.04
-31.68
-32.48
-35.25
-41.55
-50.37
-58.75
-63.57
-63.37
-59.00
-52.99
-48.08
-46.04
-47.39
-51.81
-59.02
-69.28
-83.12
-100.81
-121.68
-144.12
-166.08
-185.66
-201.62
-213.27
-220.14
-221.65
-217.11
-206.16
-189.17
-167.37
-142.60
-116.73
-91.23
-67.06
-44.85
-25.09
-8.27
5.22
15.34
22.47
27.39
31.10
34.46
37.99
41.52
44.12
44.31
40.53
31.70
17.60
-0.92
-22.07
-43.60
-63.10
-78.55
-88.53
-92.53
-90.91
-84.77
-75.57
-64.73
-53.26
-41.65
-29.96
-18.06
-5.87
6.43
18.40
29.39
38.70
45.81
50.67
53.87
56.49
59.82
65.07
72.99
83.77
96.77
110.46
122.38
129.49
129.00
119.40
101.25
77.30
51.72
28.77
11.41
0.54
-4.93
-7.28
-8.93
-11.55
-15.64
-20.65
-25.37
-28.61
-29.58
-28.22
-25.09
-21.09
-17.17
-14.15
-12.69
-13.35
-16.50
-22.22
-30.05
-38.97
-47.65
-54.87
-59.95
-62.96
-64.64
-65.96
-67.70
-70.13
-72.93
-75.30
-76.29
-75.04
-71.13
-64.70
-56.52
-47.79
-39.86
-33.79
-30.09
-28.73
-29.39
-31.63
-35.12
-39.49
-44.20
-48.35
-50.86
-50.72
-47.32
-40.59
-31.01
-19.30
-6.26
7.45
21.33
34.81
47.17
57.45
64.53
67.46
65.78
59.87
51.01
41.08
31.99
25.22
21.44
20.69
22.49
26.28
31.44
37.28
42.96
47.59
50.49
51.40
50.63
48.81
46.59
44.27
41.68
38.33
33.71
27.59
20.26
12.57
5.73
1.10
-0.19
2.40
8.75
17.96
28.60
39.06
47.88
54.09
57.35
57.89
56.28
53.26
49.47
45.29
40.95
36.52
32.07
27.71
23.61
19.98
17.06
15.03
14.11
14.37
15.67
17.57
19.34
20.22
19.64
17.49
14.09
10.02
5.81
1.75
-2.05
-5.66
-9.12
-12.46
-15.76
-19.11
-22.52
-25.68
-27.84
-27.88
-24.78
-18.00
-7.85
4.59
17.90
30.81
42.45
52.39
60.36
66.05
69.02
68.89
65.56
59.49
51.62
43.30
35.88
30.41
27.36
26.61
27.51
29.19
30.78
31.69
31.57
30.32
27.97
24.56
20.22
15.16
9.72
4.35
-0.53
-4.75
-8.40
-11.92
-15.81
-20.36
-25.36
-30.03
-33.21
-33.70
-30.75
-24.23
-14.69
-3.17
9.09
20.81
30.84
38.24
42.40
43.16
40.84
36.24
30.43
24.49
19.33
15.48
13.12
12.15
12.27
13.14
14.43
15.84
17.06
17.77
17.64
16.40
13.99
10.57
6.59
2.61
-0.85
-3.49
-5.30
-6.52
-7.60
-9.15
-11.79
-16.00
-21.86
-28.85
-35.82
-41.18
-43.49
-41.93
-36.70
-28.99
-20.49
-12.81
-6.89
-2.87
-0.30
1.40
2.59
3.32
3.40
2.61
0.99
-1.08
-3.00
-4.32
-4.92
-5.15
-5.60
-6.89
-9.36
-12.94
-17.11
-21.19
-24.64
-27.47
-30.29
-33.89
-39.04
-46.09
-54.71
-63.94
-72.62
-79.95
-85.98
-91.61
-97.61
-104.76
-113.56
-124.12
-135.91
-147.61
-157.30
-162.91
-162.83
-155.53
-141.32
-122.72
-103.36
-86.12
-71.60
-58.16
-43.68
-27.12
-8.06
11.51
27.59
36.44
37.15
32.90
30.21
36.13
56.50
96.56
157.01
232.61
312.97
385.75
440.77
472.93
482.25
461.50
412.07
344.13
272.44
208.05
154.38
110.22
74.20
45.83
22.19
1.73
-18.47
-42.69
-75.31
-119.15
-175.39
-235.70
-292.68
-340.13
-371.60
-382.23
-369.46
-333.93
-279.99
-215.28
-148.96
-91.13
-48.86
-23.10
-10.58
-6.36
-6.13
-6.97
-6.78
-3.17
4.18
14.82
28.16
42.91
58.30
73.82
89.65
107.27
129.75
158.07
191.13
225.24
254.17
270.75
269.28
248.17
207.32
156.94
108.58
70.59
45.17
28.86
15.63
1.28
-15.58
-33.84
-51.04
-67.34
-84.51
-105.20
-131.86
-165.83
-207.54
-256.37
-310.57
-361.32
-400.48
-420.63
-417.26
-390.47
-344.64
-287.34
-226.52
-167.90
-113.43
-63.66
-18.32
22.62
58.93
91.95
124.25
158.96
198.02
240.82
282.87
318.00
340.75
348.74
344.15
331.21
313.88
294.36
273.20
249.98
224.99
199.78
170.98
138.95
105.89
74.96
48.90
29.43
17.11
11.37
11.00
14.41
20.83
29.30
38.73
48.23
57.21
65.42
72.48
78.21
82.52
86.01
88.86
91.21
92.60
92.99
92.84
92.14
91.24
90.50
90.63
91.94
94.39
97.67
101.50
105.77
109.49
112.03
112.96
112.16
109.14
103.02
92.28
74.44
53.06
29.07
3.24
-23.57
-50.32
-76.55
-101.98
-126.68
-150.77
-174.19
-197.65
-221.32
-244.85
-267.70
-290.35
-313.28
-336.91
-361.10
-385.06
-408.56
-431.45
-454.19
-477.86
-504.80
-535.23
-566.18
-591.05
-601.58
-591.46
-558.23
-503.82
-432.97
-352.81
-268.78
-185.05
-105.14
-33.33
25.11
66.08
88.98
109.83
141.07
188.96
248.71
308.68
357.64
389.80
405.67
409.88
407.96
402.06
393.21
379.73
361.06
338.74
316.08
296.71
282.51
272.99
264.01
250.86
227.74
191.73
143.08
84.71
20.36
-47.27
-117.42
-191.71
-259.86
-312.03
-343.11
-356.00
-357.52
-352.25
-339.87
-316.68
-279.38
-227.78
-168.21
-110.35
-63.35
-31.89
-15.02
-7.77
-4.11
0.21
6.62
12.32
15.39
15.49
14.20
13.84
15.89
20.04
24.70
27.89
27.51
22.80
14.77
5.63
-2.18
-7.12
-8.89
-8.04
-5.20
-0.68
3.63
7.61
11.85
17.05
23.47
30.65
37.64
43.35
46.85
47.59
45.78
41.86
36.31
29.39
21.15
11.58
0.73
-11.16
-23.60
-35.69
-46.61
-55.68
-62.44
-66.68
-68.41
-67.90
-65.54
-61.84
-57.34
-52.69
-48.65
-46.00
-45.48
-47.70
-52.91
-61.31
-73.03
-88.39
-107.29
-129.20
-153.20
-178.19
-203.07
-226.50
-247.33
-264.71
-278.37
-288.02
-293.25
-293.52
-288.39
-277.52
-260.21
-236.19
-205.84
-170.99
-133.21
-93.73
-53.25
-12.37
28.45
70.42
114.26
159.66
203.17
242.51
276.52
305.46
329.92
350.95
373.57
402.49
440.28
481.78
522.24
557.50
585.65
605.79
618.62
630.92
647.51
668.38
682.11
681.60
665.02
636.63
601.07
561.92
527.82
505.09
497.05
495.66
498.70
506.49
520.70
538.49
512.72
414.37
239.89
66.26
-75.18
-174.12
-247.64
-302.08
-341.06
-365.98
-370.43
-348.65
-298.79
-233.40
-162.67
-96.00
-40.50
-4.35
6.58
-4.10
-28.36
-56.89
-89.64
-124.88
-161.16
-196.22
-229.40
-260.18
-285.66
-304.12
-316.70
-332.30
-357.01
-392.16
-432.19
-467.52
-487.43
-484.05
-455.82
-407.93
-352.82
-301.82
-261.76
-236.82
-227.34
-223.75
-219.15
-213.14
-205.86
-198.24
-189.61
-178.15
-161.82
-139.37
-111.20
-80.52
-50.63
-23.19
1.68
25.34
49.79
76.61
106.61
139.50
173.30
206.33
238.24
269.25
299.73
329.62
358.35
385.24
409.49
429.48
443.35
449.24
445.37
430.86
406.63
375.49
341.62
308.85
278.98
251.64
225.09
197.51
168.11
137.59
107.38
78.61
51.21
23.69
-6.03
-39.48
-76.85
-116.25
-154.09
-185.99
-208.15
-218.85
-219.14
-212.63
-204.33
-199.02
-199.67
-206.53
-217.26
-227.92
-234.57
-234.63
-227.69
-215.37
-200.42
-185.57
-172.57
-161.73
-152.22
-142.95
-133.50
-124.53
-117.22
-112.45
-109.81
-107.65
-103.69
-96.32
-85.45
-72.80
-61.05
-52.56
-48.10
-46.56
-45.48
-42.47
-36.26
-27.33
-17.40
-8.45
-1.72
2.91
6.87
12.23
20.79
33.21
48.78
65.59
81.40
94.39
103.69
109.12
110.55
107.47
99.29
86.25
70.29
55.06
44.65
41.64
45.70
53.65
60.90
63.44
59.12
47.69
30.08
7.73
-17.32
-42.05
-62.40
-74.14
-74.70
-64.71
-48.09
-30.60
-17.42
-10.94
-10.20
-11.79
-12.03
-8.95
-3.27
2.13
3.89
0.19
-7.85
-16.43
-20.53
-16.11
-1.76
20.70
46.91
71.25
88.30
93.95
86.10
65.06
33.46
-4.12
-42.03
-74.62
-97.32
-107.23
-103.46
-87.44
-63.01
-36.44
-15.54
-7.79
-17.80
-45.22
-84.31
-125.99
-161.14
-183.67
-191.77
-186.95
-172.32
-151.20
-126.71
-101.94
-79.72
-61.27
-44.52
-23.92
7.33
53.18
111.19
172.04
222.96
253.37
259.30
244.29
216.18
181.93
143.71
98.61
41.89
-28.11
-106.83
-183.53
-245.04
-280.90
-287.34
-267.88
-230.60
-184.53
-137.08
-93.59
-58.43
-35.67
-27.98
-34.25
-48.19
-59.66
-58.56
-39.48
-4.28
38.95
79.53
108.32
120.30
114.69
93.46
59.85
17.44
-30.16
-79.55
-128.00
-173.75
-215.68
-252.85
-284.24
-308.91
-326.53
-337.53
-342.70
-342.22
-335.23
-320.24
-296.36
-264.38
-227.09
-188.34
-151.40
-117.69
-86.52
-56.09
-25.01
6.75
37.92
67.05
94.08
121.16
151.90
189.23
233.24
279.83
321.35
349.05
356.05
339.43
300.74
245.11
179.88
113.18
52.87
5.35
-25.43
-38.65
-36.38
-22.42
-0.55
26.85
59.25
97.09
140.15
186.20
230.65
267.49
291.07
298.14
288.92
267.09
238.29
208.08
179.90
154.21
129.25
102.77
73.93
44.17
16.58
-5.55
-20.32
-27.99
-30.68
-31.06
-30.87
-30.01
-26.76
-18.93
-5.60
11.78
29.52
43.06
49.10
47.03
39.10
29.05
20.14
13.53
7.98
1.02
-9.31
-23.00
-37.86
-50.69
-58.98
-62.26
-62.20
-61.47
-62.22
-64.90
-68.35
-70.78
-71.08
-69.45
-67.14
-65.52
-65.29
-66.24
-67.66
-68.75
-68.91
-67.57
-64.14
-58.23
-50.01
-40.53
-31.48
-24.52
-20.55
-19.26
-19.41
-19.60
-18.95
-17.32
-15.14
-12.93
-11.03
-9.68
-9.10
-9.62
-11.52
-14.73
-18.56
-21.72
-22.85
-21.05
-16.44
-10.21
-4.18
-0.09
0.95
-1.30
-6.38
-13.33
-20.70
-26.88
-30.33
-30.11
-26.21
-19.48
-11.17
-2.14
7.49
17.98
29.24
40.39
50.07
57.21
61.80
64.91
68.09
72.34
77.58
82.80
86.82
88.83
88.54
85.87
80.75
73.07
62.98
51.00
37.89
24.47
11.26
-1.32
-12.69
-22.02
-28.30
-30.95
-30.16
-27.01
-23.19
-20.25
-18.92
-18.79
-18.47
-16.34
-11.39
-3.64
5.96
16.26
26.59
37.01
47.96
59.55
71.10
81.29
88.86
93.28
94.91
94.68
93.31
90.99
87.43
82.26
75.34
66.62
55.73
41.52
22.13
-4.08
-37.46
-76.03
-115.39
-149.90
-174.41
-186.04
-184.83
-173.20
-154.68
-132.76
-110.37
-89.99
-74.06
-64.52
-62.11
-65.61
-71.93
-77.20
-78.40
-74.42
-66.17
-55.99
-46.39
-39.35
-36.03
-36.82
-41.33
-48.16
-54.57
-56.73
-51.38
-37.15
-15.84
7.70
27.17
37.16
35.23
22.79
7.27
-2.96
-1.12
14.64
40.16
68.09
92.09
109.13
119.31
123.78
123.13
116.21
100.94
75.55
39.35
-7.17
-62.42
-123.86
-184.95
-238.07
-275.58
-291.80
-284.87
-257.11
-214.05
-162.61
-109.34
-59.71
-18.82
8.71
19.37
12.33
-9.09
-37.36
-62.58
-75.60
-71.06
-49.15
-14.75
24.70
62.09
92.74
115.13
130.39
141.03
149.74
158.50
168.62
181.11
197.08
217.67
243.67
274.82
309.57
345.29
379.05
408.47
432.17
449.63
460.46
463.87
458.51
443.10
417.26
382.20
340.63
296.02
251.62
209.51
170.43
134.13
99.86
66.95
34.98
3.89
-25.99
-53.98
-79.19
-100.80
-118.47
-132.75
-145.05
-157.32
-171.32
-188.14
-207.90
-230.12
-254.25
-280.08
-307.67
-336.73
-365.97
-392.98
-414.81
-429.27
-435.89
-436.13
-432.63
-427.68
-422.00
-414.45
-402.95
-385.84
-363.05
-336.30
-308.14
-280.84
-255.52
-232.24
-210.79
-191.41
-175.01
-162.67
-154.63
-149.61
-144.75
-136.42
-121.50
-98.53
-68.21
-33.11
3.30
37.76
68.16
93.89
115.78
135.51
154.88
175.18
196.87
219.60
242.51
264.64
285.17
303.62
319.81
333.80
345.79
355.95
364.47
371.44
376.80
380.30
381.36
379.02
372.06
359.18
339.43
312.61
279.50
241.82
201.95
162.40
125.08
91.04
60.18
31.29
2.41
-28.93
-65.42
-109.70
-163.72
-227.57
-298.17
-368.86
-430.32
-473.16
-491.10
-483.29
-454.42
-412.59
-365.87
-319.51
-275.01
-231.30
-187.05
-142.49
-99.81
-62.14
-31.93
-9.87
5.25
15.60
23.35
29.72
34.70
37.60
37.67
34.81
29.52
22.62
14.56
4.97
-7.20
-23.08
-43.04
-66.09
-89.85
-111.13
-126.76
-134.51
-133.53
-124.41
-108.80
-88.89
-66.94
-44.95
-24.39
-6.23
9.08
21.49
31.24
38.67
44.20
48.20
51.11
53.33
55.34
57.54
60.17
63.27
66.56
69.54
71.61
72.23
71.10
68.18
63.64
57.82
51.16
44.22
37.61
32.06
28.16
26.31
26.59
28.79
32.55
37.53
43.50
50.29
57.68
65.27
72.53
78.86
83.76
86.91
88.17
87.47
84.84
80.39
74.44
67.60
60.63
54.27
49.03
45.06
42.22
40.28
39.03
38.42
38.43
38.95
39.69
40.29
40.41
39.94
38.95
37.60
35.97
33.97
31.40
28.07
24.05
19.67
15.53
12.32
10.57
10.59
12.32
15.42
19.30
23.10
25.88
26.66
24.75
19.93
12.71
4.22
-4.06
-10.71
-14.81
-16.06
-14.75
-11.54
-7.11
-2.00
3.34
8.53
13.09
16.50
18.30
18.27
16.61
13.87
10.87
8.33
6.67
5.78
5.08
3.75
1.05
-3.38
-9.28
-15.82
-21.81
-26.03
-27.58
-26.10
-21.83
-15.52
-8.11
-0.60
6.23
11.83
15.91
18.35
19.20
18.68
17.10
14.90
12.51
10.38
8.78
7.89
7.78
8.43
9.83
11.84
14.33
17.04
19.73
22.13
24.05
25.37
26.06
26.14
25.67
24.66
23.14
21.05
18.37
15.17
11.72
8.51
6.17
5.31
6.22
8.69
11.91
14.68
15.71
13.97
9.02
1.15
-8.74
-19.32
-29.14
-36.98
-42.04
-44.05
-43.19
-39.95
-34.97
-28.89
-22.31
-15.72
-9.58
-4.23
0.08
3.32
5.62
7.24
8.43
9.30
9.81
9.80
9.13
7.78
5.91
3.82
1.84
0.16
-1.16
-2.16
-2.84
-3.04
-2.41
-0.59
2.68
7.36
13.06
19.08
24.58
28.82
31.32
31.96
30.96
28.71
25.63
22.05
18.22
14.40
10.88
8.06
6.27
5.69
6.20
7.40
8.79
9.93
10.62
10.89
10.93
10.88
10.74
10.36
9.51
7.98
5.72
2.86
-0.31
-3.41
-6.08
-8.07
-9.31
-9.97
-10.36
-10.87
-11.76
-13.09
-14.61
-15.79
-16.04
-14.84
-12.00
-7.79
-2.79
2.21
6.53
9.71
11.65
12.50
12.55
12.02
11.07
9.74
8.11
6.35
4.77
3.74
3.53
4.22
5.54
7.04
8.20
8.64
8.27
7.23
5.76
4.06
2.19
0.18
-1.91
-3.92
-5.66
-7.01
-7.99
-8.77
-9.50
-10.28
-11.09
-11.91
-12.79
-13.86
-15.31
-17.17
-19.30
-21.30
-22.64
-22.88
-21.75
-19.33
-16.00
-12.32
-8.88
-6.07
-4.00
-2.46
-1.08
0.53
2.54
4.90
7.36
9.62
11.49
12.94
14.04
14.91
15.63
16.23
16.71
17.06
17.29
17.37
17.26
16.91
16.27
15.32
14.05
12.46
10.53
8.28
5.78
3.21
0.80
-1.27
-2.93
-4.25
-5.46
-6.78
-8.34
-10.09
-11.86
-13.36
-14.30
-14.42
-13.53
-11.56
-8.57
-4.78
-0.54
3.69
7.42
10.23
11.85
12.25
11.62
10.27
8.51
6.49
4.27
1.75
-1.09
-4.13
-7.14
-9.81
-11.91
-13.38
-14.28
-14.79
-15.04
-15.08
-14.94
-14.61
-14.16
-13.65
-13.18
-12.76
-12.39
-12.06
-11.75
-11.50
-11.29
-11.12
-10.96
-10.79
-10.67
-10.69
-10.88
-11.14
-11.23
-10.83
-9.66
-7.54
-4.53
-0.83
3.20
7.15
10.62
13.21
14.65
14.81
13.74
11.59
8.63
5.08
1.13
-3.14
-7.71
-12.56
-17.67
-22.98
-28.31
-33.51
-38.37
-42.76
-46.65
-50.04
-52.87
-54.97
-56.01
-55.71
-53.89
-50.70
-46.53
-41.84
-36.97
-31.99
-26.79
-21.21
-15.18
-8.84
-2.38
3.95
10.00
15.69
20.99
25.93
30.52
34.84
38.97
42.84
46.24
48.77
49.99
49.60
47.56
44.16
39.85
35.10
30.23
25.39
20.63
15.98
11.62
7.74
4.53
2.04
0.20
-1.11
-1.98
-2.33
-2.10
-1.32
-0.33
0.37
0.25
-0.90
-2.85
-5.02
-6.69
-7.36
-6.84
-5.29
-3.01
-0.20
3.03
6.73
10.98
15.83
21.34
27.60
34.77
43.00
52.40
62.94
74.49
86.75
99.33
111.77
123.53
134.02
142.61
148.73
151.92
151.99
149.10
143.82
137.01
129.65
122.55
116.05
109.79
102.72
93.24
79.67
60.71
35.94
6.04
-27.22
-61.34
-93.58
-121.46
-143.16
-157.72
-165.02
-165.74
-161.10
-152.76
-142.45
-131.75
-121.83
-113.26
-106.07
-99.86
-94.04
-88.09
-81.68
-74.80
-67.58
-60.31
-53.31
-46.84
-41.10
-36.21
-32.19
-28.97
-26.39
-24.21
-22.14
-19.93
-17.37
-14.41
-11.10
-7.57
-4.02
-0.60
2.56
5.35
7.66
9.30
10.05
9.68
8.07
5.24
1.37
-3.23
-8.23
-13.26
-18.02
-22.29
-25.86
-28.63
-30.58
-31.84
-32.61
-33.12
-33.51
-33.72
-33.46
-32.32
-29.90
-26.01
-20.79
-14.73
-8.58
-3.09
1.13
3.76
4.78
4.46
3.22
1.54
-0.18
-1.63
-2.69
-3.32
-3.55
-3.37
-2.76
-1.73
-0.39
1.03
2.23
2.99
3.24
3.05
2.58
1.91
1.02
-0.21
-1.87
-3.91
-6.20
-8.54
-10.79
-12.93
-15.09
-17.45
-20.19
-23.37
-26.89
-30.48
-33.70
-36.08
-37.28
-37.22
-36.21
-34.85
-33.89
-33.87
-35.00
-37.04
-39.45
-41.52
-42.65
-42.44
-40.82
-37.89
-33.76
-28.46
-21.68
-12.86
-1.39
13.09
30.75
51.41
74.88
101.10
130.01
161.21
193.69
225.94
256.44
284.13
308.47
328.92
344.18
351.93
349.48
335.04
308.88
273.53
232.77
190.06
147.47
105.72
65.05
26.39
-8.40
-37.06
-58.03
-71.14
-77.39
-78.02
-73.73
-64.55
-50.21
-31.01
-8.34
15.35
37.04
54.06
64.70
68.75
67.30
62.47
56.53
51.22
47.16
43.87
40.15
34.69
26.71
15.99
2.66
-13.17
-31.45
-52.01
-74.21
-96.75
-117.95
-136.17
-150.09
-158.67
-160.85
-155.42
-141.40
-119.00
-90.50
-60.34
-33.97
-15.78
-7.19
-5.95
-7.20
-5.76
1.53
14.62
30.72
45.99
57.49
64.27
67.31
68.47
69.39
70.80
72.60
74.34
75.82
77.27
79.10
81.51
84.02
85.36
83.77
77.63
66.13
49.48
28.89
5.88
-18.70
-45.13
-74.49
-107.68
-144.08
-181.10
-214.94
-242.06
-260.50
-270.16
-271.85
-265.83
-251.02
-225.43
-187.72
-138.86
-82.76
-25.29
27.51
71.16
103.30
123.33
131.48
128.19
114.19
90.91
60.41
25.12
-13.00
-53.17
-95.91
-141.99
-191.02
-240.03
-283.17
-313.25
-324.25
-313.66
-283.65
-240.29
-191.22
-142.95
-99.09
-59.89
-23.06
14.61
55.50
99.64
144.00
182.84
209.48
218.60
208.48
181.73
144.07
101.74
59.13
17.98
-21.66
-59.58
-94.46
-124.62
-149.94
-172.92
-197.84
-227.91
-262.18
-294.44
-315.24
-315.71
-291.62
-245.14
-183.61
-116.53
-52.31
3.36
47.39
78.31
95.38
98.72
89.74
71.53
48.37
24.53
3.13
-14.39
-27.92
-37.73
-43.79
-45.59
-42.51
-34.55
-22.58
-8.15
6.95
21.27
33.83
43.82
50.34
52.53
49.87
42.81
32.93
22.65
14.39
9.78
9.11
11.37
14.66
16.94
16.45
12.12
3.63
-8.67
-24.07
-41.75
-61.21
-82.44
-105.84
-131.57
-158.69
-184.60
-205.02
-215.05
-210.85
-191.29
-158.84
-118.89
-77.96
-41.25
-11.01
13.81
36.29
59.86
86.75
117.30
150.10
182.58
211.73
234.70
249.53
255.67
254.28
247.92
239.55
231.52
224.70
218.48
211.65
203.45
194.11
184.89
177.75
174.72
177.54
187.28
203.87
225.69
249.52
271.13
286.25
291.75
286.32
270.43
245.59
213.59
176.08
134.61
90.95
47.24
5.84
-31.16
-62.36
-87.22
-105.73
-118.19
-124.93
-126.27
-122.79
-115.44
-105.34
-93.45
-80.35
-66.37
-52.36
-40.33
-33.57
-35.69
-49.09
-73.75
-106.78
-142.94
-175.72
-198.62
-206.37
-196.20
-168.69
-128.22
-82.07
-38.63
-4.89
15.33
22.06
18.27
8.14
-4.52
-16.98
-27.78
-36.34
-42.70
-47.33
-50.70
-52.86
-53.25
-50.91
-45.27
-36.59
-26.00
-14.78
-3.96
5.84
13.70
17.74
15.19
3.54
-17.71
-45.87
-75.35
-99.51
-113.13
-114.18
-104.19
-86.87
-66.29
-45.39
-25.69
-7.81
7.64
19.77
27.56
30.43
28.61
23.15
15.54
7.25
-0.73
-8.00
-14.73
-21.26
-27.75
-33.83
-38.61
-40.96
-40.05
-35.81
-28.92
-20.42
-11.15
-1.62
7.71
15.99
21.80
23.78
21.32
15.29
7.79
1.30
-2.47
-3.16
-1.53
1.14
3.90
6.28
8.17
9.53
10.45
11.33
13.01
16.29
21.13
26.04
28.24
24.67
13.50
-4.84
-27.53
-50.35
-69.24
-81.67
-86.97
-85.94
-79.70
-68.82
-53.18
-32.57
-7.81
18.65
42.96
61.12
70.48
70.91
64.76
55.60
46.45
38.38
30.34
