1710437776.00
64.000000
-0.00
-0.00
-0.00
-0.00
-0.00
-0.00
-0.00
-0.00
-0.00
-0.00
0.00
0.01
0.01
-0.00
-0.03
-0.05
-0.05
0.00
0.13
0.36
0.66
1.01
1.37
1.72
2.06
2.40
2.79
3.24
3.80
4.42
5.06
5.66
6.20
6.68
7.15
7.68
8.31
9.14
10.09
11.04
11.88
12.56
13.14
13.76
14.65
15.96
17.91
20.32
22.90
25.38
27.58
29.57
31.68
34.32
37.81
42.54
48.15
54.10
59.83
64.97
69.58
74.14
79.34
85.71
93.76
103.00
112.62
121.73
129.77
136.75
143.30
150.75
157.77
166.64
177.95
191.79
206.97
220.57
228.25
225.36
208.53
176.87
132.76
80.05
23.07
-34.94
-92.44
-149.16
-205.23
-260.37
-313.74
-363.87
-409.83
-450.91
-486.50
-515.74
-537.23
-549.22
-549.96
-538.37
-514.21
-478.67
-433.88
-382.45
-327.02
-269.84
-212.63
-156.66
-102.95
-52.37
-5.90
35.58
71.43
101.35
125.50
144.38
158.69
169.15
176.37
180.75
182.57
182.07
179.51
175.23
169.65
163.18
156.15
148.81
141.30
133.69
126.02
118.33
110.69
103.16
95.80
88.68
81.83
75.25
68.95
62.95
57.25
51.86
46.78
42.03
37.59
33.45
29.61
26.07
22.81
19.83
17.11
14.67
12.48
10.54
8.83
7.35
6.07
4.97
4.05
3.27
2.62
2.09
1.65
1.30
1.01
0.79
0.61
0.47
0.37
0.29
0.23
0.19
0.16
0.15
0.15
0.16
0.17
0.19
0.22
0.25
0.29
0.33
0.38
0.42
0.47
0.51
0.56
0.61
0.67
0.73
0.79
0.85
0.93
1.01
1.10
1.20
1.31
1.43
1.57
1.73
1.90
2.09
2.31
2.55
2.81
3.10
3.42
3.77
4.16
4.58
5.03
5.52
6.05
6.62
7.23
7.88
8.58
9.32
10.11
10.94
11.82
12.74
13.71
14.74
15.84
16.99
18.22
19.47
20.75
22.00
23.13
24.07
24.69
24.87
24.50
23.49
21.76
19.33
16.22
12.50
8.34
3.92
-0.56
-4.88
-8.85
-12.30
-15.09
-17.16
-18.48
-19.07
-19.01
-18.41
-17.38
-16.03
-14.47
-12.77
-10.98
-9.15
-7.24
-5.31
-3.36
-1.40
0.61
2.66
4.79
7.03
9.41
12.00
14.70
17.44
20.18
22.91
25.63
28.37
31.23
34.31
37.82
41.56
45.48
49.53
53.68
57.93
62.32
66.94
71.96
77.60
83.55
89.61
95.64
101.54
107.24
112.80
118.34
124.10
130.40
136.78
142.84
148.17
152.25
154.57
154.54
151.37
143.71
134.63
124.85
114.58
103.69
91.95
79.22
65.67
51.77
38.18
25.67
13.95
2.58
-9.14
-21.94
-36.30
-52.19
-69.01
-85.84
-101.65
-116.34
-130.13
-143.74
-158.17
-174.58
-193.90
-216.39
-241.18
-265.99
-287.76
-303.14
-309.67
-306.84
-296.20
-280.78
-263.71
-247.12
-231.63
-216.88
-202.20
-187.44
-173.29
-161.07
-152.16
-147.40
-146.59
-148.20
-149.52
-146.95
-136.98
-117.20
-87.21
-48.93
-6.19
36.37
74.46
105.04
126.70
139.46
144.37
143.04
137.24
128.66
118.73
108.57
98.88
90.06
82.31
75.77
70.60
67.08
65.52
66.13
68.83
73.15
78.17
82.68
85.42
85.49
82.59
77.09
69.85
61.88
53.93
46.30
38.78
30.94
22.45
13.36
4.11
-4.66
-12.47
-19.25
-25.39
-31.51
-38.15
-45.47
-53.15
-60.56
-67.01
-72.13
-76.02
-79.28
-82.94
-88.24
-96.28
-107.45
-120.94
-134.29
-143.68
-144.79
-134.14
-110.54
-75.62
-33.63
9.89
49.63
81.84
104.81
118.63
124.48
123.98
118.78
110.38
100.21
89.53
79.41
70.58
63.37
57.86
53.94
51.54
50.67
51.49
54.05
58.19
63.29
68.31
72.00
73.26
71.53
66.94
60.24
52.41
44.24
36.10
27.92
19.44
10.53
1.34
-7.63
-15.82
-22.83
-28.68
-33.77
-38.84
-44.53
-51.17
-58.59
-66.13
-72.96
-78.40
-82.22
-84.69
-86.67
-89.35
-94.13
-102.10
-113.60
-127.49
-140.90
-149.59
-149.05
-136.05
-109.99
-73.35
-31.02
11.21
48.36
77.28
96.92
107.78
111.16
108.59
101.60
91.64
80.11
68.25
56.98
46.89
38.32
31.47
26.58
23.96
23.91
26.50
31.44
37.99
44.95
50.85
54.26
54.16
50.29
43.18
34.00
24.13
14.65
6.05
-1.96
-10.11
-19.17
-29.51
-40.87
-52.47
-63.28
-72.44
-79.62
-85.26
-90.45
-96.75
-105.61
-117.66
-131.96
-145.70
-154.57
-153.93
-140.41
-113.35
-75.23
-31.04
13.23
52.38
83.15
104.54
117.27
122.84
122.90
118.76
111.52
102.22
91.94
81.82
72.85
65.82
61.10
58.71
58.48
60.17
63.63
68.73
75.30
82.92
90.78
97.71
102.41
103.64
100.76
93.85
83.82
72.22
60.76
50.69
42.37
35.04
27.13
16.90
3.17
-14.14
-33.90
-54.22
-73.05
-88.88
-101.10
-110.19
-117.50
-125.00
-134.77
-148.35
-165.90
-185.49
-203.08
-213.37
-211.48
-194.79
-164.21
-124.17
-81.29
-42.34
-12.30
6.83
16.00
18.31
17.76
18.10
22.01
30.97
45.19
63.92
85.66
108.50
130.40
149.58
164.84
175.88
183.38
188.77
193.82
200.12
208.49
218.78
229.81
239.69
246.35
248.22
244.73
236.42
224.60
210.64
195.18
177.94
157.93
134.22
106.75
76.65
46.09
17.58
-6.90
-26.33
-40.80
-51.18
-58.74
-64.87
-71.02
-78.58
-88.40
-99.99
-110.69
-115.63
-108.90
-85.76
-44.94
9.96
71.15
128.93
174.86
204.15
216.40
214.71
203.56
187.04
167.72
146.75
124.46
101.14
77.31
53.60
30.60
8.48
-12.79
-33.14
-52.07
-68.50
-81.15
-89.08
-92.30
-92.00
-90.32
-89.69
-92.04
-98.33
-108.43
-121.45
-136.27
-152.16
-168.96
-187.19
-207.79
-231.80
-260.14
-293.53
-332.60
-377.70
-428.26
-482.03
-534.71
-580.54
-613.88
-631.33
-632.92
-622.21
-604.56
-584.93
-566.13
-548.42
-530.50
-510.98
-489.44
-466.53
-443.17
-419.80
-395.88
-370.39
-342.51
-312.22
-280.44
-248.81
-218.95
-191.82
-167.37
-144.54
-121.78
-97.71
-71.62
-43.88
-15.73
11.32
36.01
57.99
77.94
97.35
117.94
140.95
166.64
194.20
222.16
248.95
273.62
296.25
317.89
340.24
365.29
394.74
429.36
468.30
508.43
544.55
570.52
581.25
574.75
553.11
521.87
487.77
456.18
429.20
405.53
381.67
353.94
320.26
281.05
239.22
199.40
166.72
145.38
137.33
141.54
154.07
169.27
181.31
185.69
180.04
164.21
139.58
108.61
74.30
39.89
8.58
-16.94
-34.93
-44.78
-46.88
-42.20
-31.87
-16.86
2.08
24.17
48.41
73.48
97.86
120.19
139.47
155.23
167.44
176.15
181.34
182.81
180.31
173.84
163.91
151.63
138.57
126.39
116.38
109.09
104.17
100.45
96.25
89.90
80.13
66.42
48.92
28.30
5.29
-19.43
-45.49
-72.75
-101.20
-130.72
-160.55
-188.57
-210.76
-221.50
-214.92
-187.25
-138.95
-75.69
-7.22
55.53
103.95
134.17
147.49
148.87
144.09
137.54
131.24
125.29
119.10
112.45
105.65
99.01
92.02
82.95
69.25
48.73
20.62
-13.76
-51.31
-88.26
-121.56
-149.87
-173.63
-194.41
-213.71
-232.06
-248.62
-261.69
-269.52
-271.26
-267.45
-259.88
-250.73
-241.78
-233.66
-225.84
-217.15
-206.61
-194.07
-180.35
-166.90
-155.16
-145.92
-139.07
-133.67
-128.47
-122.34
-114.72
-105.67
-95.83
-86.07
-77.44
-70.99
-67.60
-67.53
-69.66
-71.13
-67.44
-53.51
-25.37
18.00
73.80
135.74
195.49
244.85
277.42
289.52
280.31
251.56
207.21
153.02
95.81
42.24
-2.65
-36.75
-61.22
-79.91
-97.95
-119.97
-148.65
-183.72
-221.85
-257.30
-283.36
-294.23
-287.04
-262.96
-227.11
-186.85
-149.38
-119.39
-98.18
-84.19
-74.58
-67.01
-60.69
-55.94
-53.53
-53.71
-56.08
-60.18
-66.32
-75.52
-88.73
-105.73
-124.83
-143.87
-161.87
-180.07
-201.19
-227.14
-256.59
-284.27
-302.76
-306.07
-292.81
-267.00
-235.93
-206.44
-181.74
-160.63
-139.19
-113.65
-82.59
-47.41
-11.14
23.44
55.21
85.22
115.84
149.75
188.83
233.58
282.79
333.37
380.53
418.28
440.80
444.16
427.87
395.38
353.26
309.12
269.49
238.37
216.88
204.05
197.78
195.67
195.20
193.83
189.09
179.03
162.78
140.85
115.18
88.63
64.03
43.33
27.10
14.41
3.52
-7.31
-19.00
-31.32
-43.10
-52.87
-59.67
-63.49
-65.30
-66.64
-68.96
-73.13
-79.06
-86.00
-93.02
-99.41
-105.07
-110.46
-116.21
-122.91
-131.01
-141.03
-153.50
-168.62
-185.40
-201.17
-211.74
-212.43
-199.87
-173.26
-134.46
-87.00
-34.50
20.10
74.38
125.50
169.64
202.45
220.69
223.77
214.28
197.01
177.00
157.84
140.98
126.53
114.32
104.87
99.34
98.82
103.40
111.81
121.79
130.76
136.68
138.39
135.76
129.34
119.99
108.58
95.88
82.49
68.94
55.71
43.18
31.56
20.81
10.71
0.93
-8.78
-18.38
-27.60
-36.06
-43.53
-50.04
-55.91
-61.59
-67.45
-73.74
-80.56
-87.95
-95.89
-104.25
-112.74
-121.00
-129.06
-137.62
-148.14
-161.91
-178.99
-197.09
-211.61
-216.88
-208.15
-183.39
-143.74
-92.77
-35.01
25.01
83.16
135.27
177.11
205.06
217.29
214.84
201.43
182.25
161.97
143.49
127.67
114.29
103.17
94.84
90.38
90.60
95.32
103.19
112.12
119.94
125.05
126.74
124.93
119.98
112.26
102.08
89.75
75.74
60.80
45.92
32.09
19.96
9.62
0.60
-7.88
-16.58
-25.85
-35.46
-44.68
-52.65
-58.80
-63.16
-66.39
-69.54
-73.65
-79.31
-86.54
-94.80
-103.19
-110.77
-116.96
-121.72
-125.84
-130.96
-139.08
-151.70
-168.59
-187.03
-201.94
-207.16
-197.45
-170.18
-126.18
-69.44
-6.05
57.12
113.54
157.85
186.62
198.81
195.95
181.65
160.55
136.91
113.73
92.59
74.22
59.24
48.50
42.94
43.00
48.22
57.19
67.96
78.53
87.28
93.22
95.83
94.97
90.64
82.97
72.22
58.90
43.80
27.92
12.30
-2.13
-14.81
-25.66
-35.05
-43.63
-52.14
-61.09
-70.63
-80.47
-90.02
-98.56
-105.55
-110.83
-114.70
-118.08
-122.36
-129.30
-140.39
-155.98
-174.40
-191.67
-202.11
-199.84
-180.71
-143.73
-91.66
-30.30
32.98
90.98
138.06
170.92
188.73
192.84
186.17
172.29
154.63
135.85
117.59
100.74
85.85
73.48
64.24
58.64
56.85
58.54
63.02
69.30
76.37
83.17
88.69
91.89
91.84
87.88
79.87
68.36
54.54
39.96
26.16
14.20
4.41
-3.67
-10.99
-18.53
-26.88
-35.99
-45.18
-53.52
-60.23
-65.11
-68.60
-71.58
-75.07
-79.79
-86.06
-93.69
-102.05
-110.37
-117.91
-124.25
-129.59
-134.94
-142.09
-152.93
-168.40
-187.33
-205.91
-218.39
-218.64
-202.24
-167.92
-117.94
-57.41
7.08
68.77
121.74
161.60
186.01
194.91
190.58
176.96
158.54
139.11
121.01
105.17
91.71
80.71
72.54
67.77
66.72
69.13
74.22
80.89
87.94
94.37
99.28
101.86
101.42
97.51
90.10
79.68
67.17
53.77
40.62
28.54
17.92
8.71
0.59
-6.93
-14.24
-21.58
-28.96
-36.20
-42.92
-48.68
-53.17
-56.32
-58.50
-60.48
-63.26
-67.68
-74.12
-82.36
-91.62
-100.84
-109.06
-115.77
-121.14
-126.15
-132.45
-141.93
-155.86
-173.88
-193.19
-208.82
-214.75
-205.75
-179.06
-135.31
-78.36
-14.34
49.72
107.12
152.50
182.54
196.36
195.64
184.07
166.30
146.60
127.92
111.54
97.58
85.84
76.42
69.88
66.82
67.47
71.40
77.54
84.55
91.12
96.20
99.05
99.13
96.12
89.88
80.64
68.99
55.89
42.43
29.64
18.21
8.48
0.35
-6.57
-12.83
-18.99
-25.45
-32.31
-39.35
-46.07
-51.85
-56.24
-59.10
-60.81
-62.15
-64.13
-67.66
-73.22
-80.73
-89.59
-98.89
-107.71
-115.35
-121.59
-126.79
-132.08
-139.19
-149.88
-164.96
-183.12
-200.55
-211.50
-209.95
-191.60
-155.33
-103.72
-42.23
22.18
82.52
132.96
169.54
190.50
196.40
189.79
174.46
154.45
133.05
112.37
93.47
76.97
63.53
53.99
49.08
49.02
53.29
60.69
69.67
78.59
86.07
90.97
92.44
90.03
83.70
73.91
61.62
48.00
34.22
21.11
8.99
-2.22
-12.91
-23.36
-33.64
-43.48
-52.45
-60.22
-66.73
-72.36
-77.79
-83.71
-90.52
-98.13
-105.97
-113.26
-119.40
-124.31
-128.73
-134.18
-142.63
-155.54
-172.83
-192.02
-208.35
-215.83
-209.12
-185.19
-144.31
-89.90
-27.64
35.81
93.94
141.30
174.20
191.26
193.66
184.80
169.29
151.53
134.55
119.61
106.65
95.29
85.55
78.08
73.72
72.97
75.56
80.53
86.55
92.35
97.05
100.04
100.92
99.36
95.02
87.75
77.77
65.71
52.54
39.37
27.13
16.37
7.16
-0.85
-8.21
-15.46
-22.91
-30.51
-37.92
-44.70
-50.52
-55.34
-59.46
-63.41
-67.80
-73.03
-79.29
-86.48
-94.40
-102.76
-111.27
-119.64
-127.65
-135.36
-143.43
-153.19
-166.13
-182.98
-202.46
-220.87
-232.62
-231.99
-215.08
-181.11
-132.46
-73.78
-10.68
51.26
106.84
151.53
181.90
196.44
196.23
184.84
167.29
148.40
131.36
117.31
105.97
96.78
89.62
85.06
83.84
86.22
91.67
98.89
106.29
112.36
116.12
117.06
115.05
110.13
102.52
92.52
80.63
67.61
54.38
41.85
30.71
21.25
13.25
6.22
-0.49
-7.35
-14.51
-21.80
-28.84
-35.20
-40.61
-45.13
-49.13
-53.27
-58.25
-64.63
-72.64
-82.12
-92.52
-103.10
-113.08
-121.94
-129.63
-136.85
-145.10
-156.26
-171.60
-190.68
-210.55
-226.10
-231.28
-221.19
-193.66
-149.82
-93.68
-30.93
32.20
89.84
137.01
170.14
187.65
190.35
181.31
164.94
145.68
126.77
109.78
95.03
82.54
72.60
65.95
63.33
64.94
70.18
77.73
86.00
93.44
98.98
101.89
101.71
98.17
91.19
81.07
68.47
54.47
40.27
26.87
14.80
4.01
-5.98
-15.74
-25.54
-35.19
-44.10
-51.63
-57.42
-61.68
-65.19
-68.97
-73.84
-80.12
-87.49
-95.11
-102.07
-107.73
-112.08
-115.93
-120.91
-129.04
-141.88
-159.41
-179.17
-196.31
-204.63
-198.48
-174.69
-133.61
-79.08
-17.39
44.37
99.67
143.57
173.26
188.18
189.84
181.35
166.49
148.78
130.73
113.74
98.47
85.41
75.21
68.62
66.11
67.61
72.43
79.46
87.46
95.32
101.98
106.51
107.97
105.59
99.04
88.62
75.37
60.85
46.70
34.08
23.40
14.26
5.76
-3.02
-12.61
-22.92
-33.36
-43.09
-51.44
-58.19
-63.67
-68.64
-74.01
-80.50
-88.36
-97.33
-106.70
-115.62
-123.44
-129.99
-135.84
-142.29
-151.14
-163.95
-180.99
-200.34
-217.68
-227.21
-223.37
-202.64
-164.68
-112.35
-50.85
13.61
74.78
127.22
166.69
190.81
199.51
195.12
181.76
164.15
146.17
130.10
116.61
105.50
96.55
89.92
86.09
85.44
87.88
92.77
99.04
105.48
110.92
114.40
115.18
112.81
107.13
98.36
87.10
74.27
60.91
48.01
36.23
25.81
16.55
8.08
0.13
-7.41
-14.35
-20.48
-25.74
-30.31
-34.59
-38.92
-43.47
-48.15
-52.79
-57.28
-61.73
-66.49
-71.95
-78.41
-85.96
-94.44
-103.52
-112.78
-121.76
-130.07
-137.55
-144.45
-151.70
-160.88
-173.52
-190.12
-209.03
-226.18
-235.82
-232.33
-212.14
-174.84
-123.19
-62.10
2.54
64.89
119.59
162.16
189.62
201.13
198.47
185.61
167.47
148.29
130.57
115.07
101.64
90.23
81.39
76.03
74.82
77.62
83.46
90.86
98.39
104.90
109.63
112.00
111.44
107.45
99.76
88.59
74.78
59.61
44.60
31.01
19.52
10.10
2.13
-5.28
-12.92
-21.13
-29.71
-38.00
-45.19
-50.72
-54.58
-57.32
-59.95
-63.56
-68.91
-76.11
-84.66
-93.57
-101.84
-108.74
-114.22
-118.93
-124.42
-132.63
-145.30
-162.81
-183.18
-201.89
-212.77
-209.83
-189.20
-150.45
-96.80
-34.12
30.54
90.43
140.04
175.66
195.71
200.75
193.40
177.62
157.65
137.04
117.91
101.04
86.45
74.14
64.43
57.94
55.26
56.56
61.39
68.73
77.20
85.34
91.75
95.25
94.93
90.34
81.63
69.63
55.69
41.40
28.04
16.25
5.92
-3.69
-13.42
-23.82
-34.81
-45.77
-55.74
-63.98
-70.27
-75.07
-79.33
-84.03
-89.80
-96.71
-104.20
-111.39
-117.51
-122.25
-126.13
-130.60
-137.70
-149.30
-165.94
-185.79
-204.43
-215.67
-213.35
-193.43
-155.31
-102.14
-39.88
24.22
83.24
131.69
166.09
185.15
189.69
182.19
166.24
145.61
123.50
102.11
82.75
66.26
53.37
44.68
40.53
40.78
44.70
51.21
59.13
67.30
74.70
80.24
82.76
81.16
74.70
63.38
48.17
30.78
13.22
-2.83
-16.55
-28.12
-38.50
-48.89
-60.22
-72.71
-85.78
-98.24
-108.80
-116.67
-121.92
-125.83
-130.55
-138.55
-151.47
-168.91
-187.85
-202.94
-207.92
-197.51
-169.25
-124.31
-67.29
-4.92
55.48
107.59
147.03
171.83
182.41
181.09
171.31
156.64
139.99
123.16
107.00
92.01
78.83
68.40
61.73
59.42
61.29
66.44
73.46
80.86
87.37
92.00
93.97
92.68
87.70
78.92
66.65
51.73
35.33
18.77
3.14
-10.87
-23.07
-33.72
-43.36
-52.67
-62.17
-72.23
-82.84
-93.69
-104.21
-113.69
-121.56
-127.65
-132.43
-137.15
-143.71
-154.01
-169.09
-188.01
-207.38
-221.84
-225.45
-213.61
-184.49
-139.57
-83.11
-21.02
40.33
95.05
138.44
167.55
181.65
182.44
173.50
159.27
143.67
129.12
116.43
105.44
95.97
88.36
83.41
81.86
83.87
88.82
95.48
102.38
108.18
111.90
112.89
110.80
105.52
97.22
86.29
73.35
59.18
44.55
30.14
16.43
3.71
-7.91
-18.44
-27.89
-36.38
-44.08
-51.33
-58.56
-66.21
-74.49
-83.40
-92.59
-101.49
-109.62
-116.70
-122.95
-129.31
-137.34
-148.80
-164.87
-184.95
-205.98
-222.71
-229.00
-219.74
-192.52
-148.44
-91.75
-28.65
34.05
90.12
134.69
164.83
179.93
181.71
173.67
160.09
144.73
130.02
116.96
105.65
96.12
88.72
84.11
82.75
84.62
89.02
94.85
100.84
105.77
108.70
108.84
105.70
99.09
89.21
76.73
62.57
47.82
33.38
19.81
7.26
-4.48
-15.69
-26.56
-36.98
-46.67
-55.38
-63.13
-70.28
-77.45
-85.22
-93.84
-103.12
-112.46
-121.17
-128.80
-135.44
-141.88
-149.60
-160.37
-175.59
-195.22
-217.01
-236.51
-247.96
-245.98
-227.32
-191.85
-142.69
-85.41
-26.69
26.93
69.98
98.97
112.62
112.06
100.41
81.80
60.19
38.50
18.24
-0.16
-16.49
-30.35
-41.02
-47.74
-50.08
-48.09
-41.94
-31.55
-16.43
3.95
29.33
57.94
86.54
111.13
128.28
136.08
134.37
124.17
106.81
83.45
55.09
23.04
-10.84
-44.13
-74.49
-100.15
-120.37
-135.30
-145.78
-152.89
-157.64
-160.80
-162.66
-163.25
-162.50
-160.72
-158.83
-158.24
-160.26
-165.11
-171.36
-175.94
-175.05
-165.44
-145.71
-116.87
-82.07
-45.26
-9.76
23.00
53.69
84.23
116.64
151.94
189.77
228.60
266.07
299.04
323.65
335.86
332.62
313.67
282.97
248.59
220.43
206.66
210.27
227.54
249.38
264.98
266.15
250.23
220.38
183.61
147.56
117.78
96.72
84.15
78.49
77.95
80.67
84.41
86.25
82.96
72.13
53.51
29.51
4.49
-16.91
-31.78
-39.98
-43.92
-47.03
-51.98
-59.24
-67.03
-72.20
-71.88
-65.02
-53.12
-40.02
-30.81
-30.47
-42.09
-65.40
-95.93
-125.51
-144.44
-144.62
-122.73
-81.60
-29.26
24.11
69.82
103.16
123.71
133.73
136.00
132.37
123.78
111.20
96.66
83.24
74.15
71.30
74.45
81.27
88.20
92.06
91.38
86.86
80.84
75.95
73.68
73.67
73.91
71.87
65.79
55.58
42.71
29.47
17.79
8.56
1.44
-4.65
-10.82
-17.65
-24.88
-31.84
-37.72
-42.17
-45.38
-48.00
-50.76
-54.14
-58.17
-62.67
-67.46
-72.51
-77.80
-82.91
-86.77
-87.77
-84.23
-75.11
-60.58
-41.93
-21.17
-0.35
18.92
35.53
48.70
57.70
61.98
61.71
58.30
54.58
54.30
60.86
76.04
98.98
126.18
152.45
172.46
182.54
181.80
172.28
158.04
143.49
131.75
123.74
118.33
113.48
107.52
99.86
90.92
81.80
74.08
70.04
72.74
85.39
109.68
143.90
182.20
215.78
235.96
237.50
220.20
188.23
147.52
103.04
57.29
10.82
-36.40
-83.66
-129.34
-171.68
-209.61
-243.28
-273.77
-302.39
-329.87
-356.01
-379.73
-399.42
-413.59
-421.43
-423.13
-419.79
-412.83
-403.34
-391.52
-376.76
-358.17
-335.36
-309.09
-281.28
-254.45
-230.77
-211.16
-195.02
-180.67
-166.20
-150.50
-133.75
-117.27
-102.77
-91.55
-83.98
-79.54
-77.36
-76.66
-76.96
-77.69
-77.82
-75.64
-69.06
-56.21
-36.13
-9.05
23.64
59.88
97.35
133.84
167.39
196.34
219.36
235.55
244.55
246.54
242.14
232.27
218.02
200.51
180.77
159.60
137.42
114.29
90.29
65.74
41.67
19.78
2.11
-9.62
-14.66
-13.55
-7.91
0.08
8.43
15.86
21.83
26.27
29.22
30.54
29.97
27.40
23.19
18.14
13.38
9.83
7.92
7.41
7.54
7.45
6.54
4.69
2.17
-0.56
-3.07
-5.19
-6.97
-8.60
-10.30
-12.18
-14.20
-16.23
-18.08
-19.62
-20.81
-21.74
-22.56
-23.45
-24.58
-26.07
-28.05
-30.55
-33.40
-36.31
-38.88
-40.77
-41.88
-42.48
-43.15
-44.56
-47.16
-50.89
-55.02
-58.25
-59.01
-55.95
-48.41
-36.68
-21.99
-6.15
8.88
21.58
30.99
36.89
39.54
39.59
37.84
35.08
32.00
29.00
26.26
23.71
21.26
18.85
16.54
14.42
12.67
11.40
10.69
10.59
11.09
12.09
13.37
14.54
15.20
15.01
13.80
11.67
8.93
5.94
3.07
0.56
-1.55
-3.38
-5.24
-7.48
-10.36
-13.90
-17.82
-21.61
-24.72
-26.80
-27.90
-28.40
-28.91
-30.09
-32.34
-35.82
-40.25
-44.91
-48.68
-50.21
-48.29
-42.33
-32.65
-20.49
-7.61
4.24
13.86
20.83
25.33
27.83
28.78
28.47
27.10
24.89
22.12
19.12
16.21
13.63
11.51
9.93
8.98
8.72
9.17
10.25
11.79
13.53
15.18
16.41
16.94
16.59
15.29
13.16
10.53
7.72
5.02
2.49
0.04
-2.56
-5.48
-8.75
-12.14
-15.29
-17.95
-20.01
-21.71
-23.53
-26.02
-29.56
-34.13
-39.11
-43.32
-45.28
-43.70
-37.96
-28.40
-16.28
-3.39
8.47
18.07
24.89
29.07
31.19
31.80
31.37
30.12
28.25
25.93
23.38
20.90
18.68
16.83
15.31
14.02
12.95
12.18
11.86
12.17
13.10
14.41
15.68
16.43
16.29
15.12
13.02
10.30
7.34
4.47
1.94
-0.21
-2.13
-4.12
-6.51
-9.50
-13.03
-16.74
-20.17
-22.90
-24.78
-25.99
-27.04
-28.47
-30.78
-34.18
-38.47
-43.11
-47.05
-49.02
-47.80
-42.62
-33.47
-21.28
-7.67
5.52
16.71
25.02
30.28
32.86
33.45
32.66
31.03
28.95
26.72
24.56
22.60
20.87
19.33
17.99
16.87
16.04
15.68
15.90
16.72
18.02
19.48
20.65
21.09
20.51
18.91
16.59
14.02
11.63
9.66
8.13
6.80
5.37
3.65
1.63
-0.55
-2.63
-4.46
-6.05
-7.57
-9.36
-11.66
-14.50
-17.64
-20.65
-23.13
-24.93
-26.24
-27.50
-29.30
-32.08
-36.03
-40.91
-46.01
-50.12
-51.78
-49.69
-43.15
-32.48
-19.05
-4.85
8.07
18.30
25.31
29.40
31.32
31.78
31.20
29.79
27.61
24.86
21.88
19.06
16.77
15.21
14.41
14.29
14.73
15.64
16.95
18.54
20.28
21.90
23.11
23.62
23.23
22.01
20.18
18.05
15.91
13.91
11.97
9.92
7.67
5.25
2.91
0.89
-0.70
-1.96
-3.18
-4.66
-6.53
-8.72
-10.99
-13.10
-14.94
-16.60
-18.25
-20.10
-22.33
-25.13
-28.67
-33.04
-38.07
-43.13
-47.10
-48.62
-46.52
-40.37
-30.66
-18.77
-6.44
4.79
13.93
20.62
25.00
27.39
28.16
27.64
26.18
24.13
21.87
19.68
17.73
16.10
14.82
13.83
13.18
12.92
13.08
13.73
14.83
16.18
17.49
18.34
18.40
17.47
15.61
13.05
10.16
7.29
4.73
2.57
0.78
-0.88
-2.70
-4.94
-7.69
-10.78
-13.89
-16.61
-18.70
-20.10
-21.10
-22.17
-23.91
-26.76
-30.82
-35.69
-40.38
-43.52
-43.71
-40.05
-32.45
-21.80
-9.62
2.34
12.68
20.65
26.16
29.56
31.34
31.94
31.62
30.55
28.91
26.87
24.66
22.53
20.66
19.24
18.38
18.15
18.54
19.44
20.63
21.79
22.61
22.89
22.53
21.61
20.30
18.76
17.09
15.32
13.41
11.35
9.15
6.84
4.48
2.16
-0.05
-2.09
-3.98
-5.75
-7.52
-9.45
-11.65
-14.14
-16.86
-19.59
-22.18
-24.46
-26.45
-28.37
-30.67
-33.82
-38.10
-43.26
-48.42
-52.17
-52.97
-49.78
-42.48
-31.94
-19.71
-7.49
3.40
12.26
18.94
23.61
26.53
27.97
28.23
27.73
26.84
25.90
25.07
24.27
23.40
22.40
21.36
20.55
20.27
20.73
21.92
23.63
25.51
27.14
28.20
28.52
28.11
27.12
25.73
24.08
22.23
20.22
18.09
15.98
13.99
12.23
10.65
9.08
7.30
5.17
2.70
0.07
-2.42
-4.53
-6.19
-7.57
-8.95
-10.68
-12.89
-15.54
-18.34
-20.95
-23.09
-24.70
-25.98
-27.31
-29.16
-31.93
-35.86
-40.81
-46.30
-51.35
-54.66
-54.98
-51.46
-43.96
-33.25
-20.72
-8.02
3.38
12.55
19.21
23.60
26.30
27.86
28.76
29.25
29.34
29.06
28.31
27.14
25.72
24.26
23.01
22.19
21.94
22.31
23.21
24.50
25.96
27.30
28.28
28.68
28.37
27.36
25.69
23.51
21.02
18.41
15.87
13.50
11.33
9.34
7.41
5.44
3.32
1.00
-1.48
-4.02
-6.48
-8.68
-10.59
-12.20
-13.61
-14.97
-16.40
-17.97
-19.70
-21.54
-23.48
-25.53
-27.73
-30.15
-32.87
-35.96
-39.51
-43.39
-47.22
-50.19
-51.21
-49.28
-43.83
-35.15
-24.27
-12.74
-1.92
7.31
14.70
20.44
24.76
27.74
29.35
29.61
28.77
27.26
25.60
24.10
22.87
21.83
20.85
19.94
19.18
18.79
18.93
19.65
20.81
22.14
23.25
23.75
23.36
22.05
20.00
17.55
15.14
12.99
11.14
9.41
7.54
5.35
2.82
0.13
-2.46
-4.70
-6.51
-8.00
-9.44
-11.11
-13.15
-15.55
-18.12
-20.61
-22.82
-24.73
-26.48
-28.32
-30.53
-33.38
-37.04
-41.57
-46.71
-51.78
-55.74
-57.28
-55.28
-49.29
-39.71
-27.80
-15.21
-3.44
6.56
14.51
20.57
25.04
28.14
29.97
30.69
30.62
30.13
29.60
29.19
28.81
28.20
27.15
25.65
23.97
22.55
21.80
21.93
22.85
24.21
25.57
26.49
26.67
25.97
24.44
22.29
19.77
17.20
14.80
12.69
10.80
8.97
6.97
4.72
2.22
-0.36
-2.82
-4.99
-6.77
-8.20
-9.39
-10.51
-11.75
-13.26
-15.15
-17.40
-19.87
-22.40
-24.79
-26.93
-28.82
-30.61
-32.62
-35.30
-39.08
-44.10
-49.96
-55.57
-59.40
-59.88
-56.08
-48.09
-37.00
-24.55
-12.39
-1.65
7.18
14.14
19.45
23.25
25.67
26.98
27.56
27.88
28.21
28.57
28.71
28.35
27.42
26.09
24.80
23.98
23.95
24.82
26.40
28.31
30.08
31.24
31.47
30.71
29.16
27.18
25.12
23.21
21.42
19.63
17.70
15.60
13.42
11.24
9.11
6.98
4.78
2.44
0.01
-2.34
-4.46
-6.18
-7.48
-8.49
-9.43
-10.57
-12.11
-14.18
-16.69
-19.42
-22.05
-24.28
-25.96
-27.16
-28.20
-29.50
-31.56
-34.78
-39.27
-44.73
-50.30
-54.76
-56.66
-54.86
-48.93
-39.34
-27.38
-14.76
-3.10
6.54
13.77
18.80
22.11
24.16
25.21
25.38
24.77
23.53
21.91
20.17
18.56
17.22
16.22
15.58
15.36
15.65
16.60
18.24
20.43
22.80
24.83
26.03
26.07
24.94
22.86
20.21
17.30
14.36
11.46
8.59
5.79
3.08
0.56
-1.79
-4.05
-6.34
-8.82
-11.51
-14.31
-17.02
-19.40
-21.32
-22.80
-24.07
-25.47
-27.35
-30.03
-33.73
-38.50
-44.11
-49.87
-54.62
-56.93
-55.53
-49.84
-40.35
-28.43
-15.92
-4.42
5.10
12.46
17.97
22.11
25.16
27.31
28.61
29.18
29.18
28.74
28.01
27.04
25.93
24.83
23.91
23.36
23.30
23.79
24.84
26.35
28.13
29.85
31.06
31.38
30.56
28.66
26.06
23.28
20.76
18.73
17.03
15.32
13.19
10.39
7.00
3.37
-0.05
-2.88
-4.97
-6.50
-7.91
-9.64
-12.04
-15.12
-18.69
-22.38
-25.81
-28.79
-31.25
-33.37
-35.38
-37.68
-40.66
-44.69
-49.85
-55.68
-61.12
-64.61
-64.61
-60.15
-51.36
-39.40
-26.07
-13.17
-1.92
7.25
14.53
20.26
24.66
27.77
29.59
30.35
30.51
30.55
30.77
31.13
31.38
31.30
30.89
30.47
30.43
31.03
32.26
33.76
35.08
35.80
35.78
35.06
33.84
32.26
30.44
28.34
26.00
23.47
20.90
18.50
16.45
14.72
13.16
11.52
9.48
6.96
4.04
1.00
-1.78
-4.02
-5.62
-6.72
-7.62
-8.74
-10.35
-12.57
-15.25
-18.14
-20.93
-23.46
-25.73
-27.90
-30.23
-32.93
-36.21
-40.32
-45.42
-51.38
-57.51
-62.49
-64.64
-62.55
-55.69
-44.78
-31.57
-18.17
-6.23
3.46
11.04
17.06
22.06
26.22
29.45
31.60
32.60
32.62
31.95
30.89
29.70
28.52
27.45
26.56
25.95
25.73
26.02
26.82
28.01
29.24
30.06
30.06
29.05
27.15
24.76
22.36
20.29
18.61
17.12
15.50
13.48
10.97
8.06
5.00
2.08
-0.51
-2.72
-4.72
-6.76
-9.09
-11.88
-15.04
-18.34
-21.50
-24.31
-26.76
-29.01
-31.25
-33.74
-36.67
-40.26
-44.66
-49.74
-54.94
-59.13
-60.84
-58.81
-52.44
-42.16
-29.35
-15.80
-3.11
7.68
16.33
23.03
28.13
31.82
34.12
35.00
34.50
32.92
30.73
28.50
26.69
25.52
24.91
24.59
24.27
23.84
23.50
23.57
24.37
25.92
27.84
29.47
30.16
29.51
27.54
24.61
21.20
17.70
14.25
10.76
7.04
2.96
-1.41
-5.92
-10.34
-14.47
-18.24
-21.64
-24.72
-27.55
-30.20
-32.80
-35.66
-39.11
-43.48
-48.79
-54.54
-59.67
-62.79
-62.64
-58.48
-50.47
-39.57
-27.20
-14.80
-3.45
6.29
14.21
20.34
24.79
27.74
29.41
30.12
30.17
29.75
28.96
27.82
26.37
24.82
23.48
22.71
22.85
24.03
26.11
28.69
31.23
33.23
34.31
34.38
33.58
32.13
30.25
28.04
25.54
22.75
19.73
16.54
13.29
10.07
6.91
3.85
0.88
-2.05
-4.99
-8.05
-11.29
-14.65
-17.99
-21.14
-23.99
-26.54
-28.95
-31.51
-34.63
-38.69
-43.96
-50.31
-57.06
-62.94
-66.35
-65.96
-61.12
-52.24
-40.63
-27.98
-15.81
-5.03
4.10
11.68
17.94
22.93
26.64
29.06
30.34
30.80
30.81
30.71
30.73
30.97
31.40
31.96
32.57
33.22
33.92
34.68
35.43
36.00
36.15
35.66
34.52
32.83
30.86
28.78
26.59
24.13
21.17
17.56
13.37
8.90
4.47
0.34
-3.39
-6.80
-10.02
-13.22
-16.47
-19.77
-23.02
-26.10
-28.89
-31.33
-33.49
-35.54
-37.80
-40.65
-44.42
-49.24
-54.80
-60.23
-64.23
-65.37
-62.56
-55.50
-44.85
-32.07
-18.89
-6.77
3.46
11.64
17.98
22.83
26.38
28.66
29.71
29.64
28.79
27.57
26.37
25.42
24.75
24.26
23.86
23.61
23.64
24.13
25.08
26.38
27.66
28.49
28.48
27.38
25.14
21.90
18.01
13.90
10.05
6.77
4.12
1.89
-0.32
-2.97
-6.27
-10.12
-14.17
-17.93
-21.06
-23.48
-25.50
-27.61
-30.38
-34.25
-39.33
-45.32
-51.41
-56.36
-58.80
-57.59
-52.23
-43.12
-31.38
-18.57
-6.21
4.69
13.66
20.75
26.18
30.25
33.15
35.01
35.97
36.15
35.72
34.81
33.56
32.09
30.54
29.11
27.99
27.40
27.47
28.21
29.46
30.92
32.19
32.90
32.80
31.84
30.12
27.91
25.46
23.00
20.64
18.38
16.14
13.80
11.22
8.30
5.03
1.53
-1.93
-5.07
-7.64
-9.63
-11.28
-13.00
-15.20
-18.10
-21.62
-25.47
-29.19
-32.43
-34.97
-36.86
-38.40
-39.96
-42.02
-45.05
-49.38
-54.93
-61.00
-66.28
-69.09
-67.90
-61.94
-51.59
-38.28
-23.98
-10.47
1.14
10.57
18.11
24.18
28.97
32.50
34.78
35.93
36.27
36.15
35.78
35.23
34.46
33.47
32.40
31.50
31.02
31.06
31.57
32.33
33.10
33.67
33.83
33.46
32.54
31.06
29.13
26.91
24.55
22.13
19.68
17.18
14.63
12.06
9.53
7.12
4.81
2.50
0.03
-2.65
-5.49
-8.28
-10.76
-12.74
-14.24
-15.51
-16.87
-18.65
-20.89
-23.49
-26.10
-28.48
-30.52
-32.33
-34.19
-36.33
-39.01
-42.41
-46.62
-51.41
-56.12
-59.57
-60.36
-57.32
-50.06
-39.23
-26.26
-12.91
-0.64
9.71
17.90
24.04
28.29
30.79
31.72
31.41
30.31
28.95
27.61
26.42
25.34
24.26
23.24
22.40
21.97
22.09
22.79
23.96
25.41
26.89
28.16
28.99
29.19
28.67
27.39
25.48
23.16
20.71
18.34
16.20
14.25
12.34
10.28
7.97
5.46
2.96
0.71
-1.11
-2.52
-3.70
-4.92
-6.32
-7.87
-9.37
-10.60
-11.43
-12.00
-12.56
-13.49
-15.04
-17.26
-20.02
-22.98
-25.78
-28.13
-29.95
-31.36
-32.63
-34.19
-36.44
-39.68
-43.90
-48.71
-53.21
-56.13
-56.19
-52.51
-44.95
-34.26
-21.79
-9.05
2.75
12.88
21.06
27.29
31.61
34.08
34.90
34.42
33.18
31.63
30.13
28.76
27.47
26.24
25.12
24.23
23.75
23.73
24.13
24.81
25.60
26.36
26.99
27.32
27.17
26.34
24.72
22.29
19.27
15.94
12.64
9.58
6.85
4.36
1.95
-0.60
-3.43
-6.55
-9.87
-13.14
-16.13
-18.67
-20.72
-22.35
-23.78
-25.30
-27.25
-30.07
-34.16
-39.67
-46.21
-52.72
-57.64
-59.38
-56.95
-50.50
-41.18
-30.78
-20.93
-12.63
-6.17
-1.39
1.92
3.87
4.45
3.77
2.17
0.18
-1.78
-3.46
-4.81
-5.87
-6.61
-6.89
-6.55
-5.52
-3.85
-1.60
1.20
4.61
8.64
13.09
17.59
21.58
24.52
26.18
26.64
26.36
25.97
26.11
27.17
29.17
31.71
34.14
35.70
35.80
34.27
31.40
27.93
24.68
22.38
21.30
21.35
22.20
23.80
26.85
33.04
44.82
64.61
93.64
130.87
172.48
212.53
244.40
262.89
265.74
254.20
232.15
204.60
175.89
148.57
123.42
100.08
77.65
55.29
32.34
8.58
-15.50
-38.48
-57.97
-71.34
-76.74
-74.19
-65.88
-55.51
-46.89
-42.38
-42.15
-44.44
-46.96
-48.32
-49.00
-51.21
-57.77
-70.81
-91.13
-118.22
-150.91
-187.77
-226.79
-264.66
-296.35
-315.75
-317.54
-299.37
-263.33
-215.56
-164.22
-116.73
-77.64
-48.05
-26.55
-10.74
1.34
10.64
17.34
21.33
22.74
22.03
19.92
17.27
14.82
13.14
12.61
13.39
15.29
17.78
20.00
20.92
19.53
15.22
8.09
-0.87
-10.05
-17.74
-23.07
-26.55
-30.07
-36.25
-47.11
-63.15
-82.86
-103.45
-122.06
-136.87
-147.59
-154.93
-159.80
-162.59
-162.92
-160.03
-153.14
-141.79
-125.68
-104.71
-79.05
-49.62
-18.37
11.72
37.40
55.97
66.24
68.68
65.06
57.66
48.44
38.74
29.17
19.81
10.25
-0.23
-12.52
-27.18
-43.83
-60.70
-74.75
-82.56
-81.55
-71.16
-53.32
-31.90
-11.35
4.65
14.46
18.79
20.27
22.45
28.38
39.40
54.30
69.50
80.20
82.18
73.72
56.34
34.47
13.64
-1.62
-9.28
-9.99
-6.23
-0.80
4.27
7.94
9.66
8.79
4.46
-4.09
-16.84
-32.58
-49.18
-64.31
-76.44
-85.35
-92.13
-98.65
-106.73
-117.59
-131.54
-148.10
-166.30
-185.11
-203.73
-221.65
-238.45
-253.36
-264.97
-271.35
-270.57
-261.47
-244.33
-220.93
-193.94
-166.05
-139.17
-114.21
-91.28
-70.11
-50.50
-32.19
-14.87
2.04
19.20
37.05
55.55
74.12
91.89
108.10
122.53
135.63
148.53
162.68
179.48
199.70
222.91
247.22
269.50
286.18
294.44
293.21
283.49
267.82
249.03
229.07
208.48
186.73
163.22
138.19
112.89
89.08
68.11
50.18
34.14
17.89
-1.03
-24.94
-55.47
-93.04
-136.35
-181.98
-224.69
-258.63
-279.07
-283.97
-274.60
-254.78
-229.19
-201.57
-173.82
-146.27
-118.64
-91.13
-64.67
-40.54
-19.45
-0.88
16.75
35.49
56.79
80.95
106.91
132.88
157.06
178.50
197.45
215.19
233.63
254.91
280.97
313.20
351.70
394.50
437.17
473.25
495.84
499.79
483.65
450.25
405.82
357.85
312.86
274.76
244.54
220.93
201.51
183.66
165.15
144.31
120.07
92.05
60.60
26.85
-7.39
-39.67
-67.32
-87.90
-99.68
-101.96
-95.08
-80.11
-58.56
-32.07
-2.51
27.95
56.75
81.11
98.33
106.32
104.05
91.78
70.97
43.97
13.41
-18.13
-48.43
-75.63
-98.34
-115.81
-128.16
-136.60
-143.26
-150.51
-159.87
-171.21
-182.52
-190.61
-192.38
-186.07
-171.92
-152.02
-129.52
-107.79
-89.57
-76.67
-69.63
-67.81
-69.43
-71.90
-72.43
-68.78
-59.94
-46.45
-30.30
-14.40
-1.79
5.16
5.42
-0.25
-9.40
-18.58
-24.42
-24.83
-19.69
-10.73
-0.54
8.79
16.65
24.01
32.62
43.56
56.33
68.85
78.49
83.53
84.21
82.67
82.02
84.96
92.75
104.96
119.94
135.63
150.24
162.54
171.71
177.19
178.59
175.72
168.61
157.57
143.02
125.41
105.18
82.79
58.83
33.92
8.58
-16.87
-42.35
-67.89
-93.39
-118.55
-142.97
-166.18
-187.56
-206.04
-219.78
-226.19
-222.44
-206.46
-177.71
-137.33
-87.67
-31.46
28.67
90.05
149.42
202.41
243.78
268.35
272.41
254.96
218.09
166.61
107.01
46.11
-10.12
-57.68
-95.05
-123.12
-144.37
-161.73
-177.35
-191.89
-204.60
-214.01
-218.71
-218.01
-212.11
-201.92
-188.87
-174.68
-161.40
-151.33
-146.77
-149.33
-159.10
-174.15
-190.53
-203.27
-207.84
-201.69
-185.07
-160.83
-133.41
-107.44
-86.52
-72.52
-65.37
-63.13
-62.57
-59.76
-51.11
-34.20
-8.38
25.40
65.28
109.45
156.44
204.88
252.70
296.87
333.66
359.82
373.75
376.13
369.50
357.17
341.99
325.73
309.18
292.78
277.22
263.64
253.25
246.70
243.43
241.35
237.13
226.79
206.88
175.60
133.70
84.53
33.40
-13.86
-52.57
-80.47
-98.20
-108.82
-116.49
-125.02
-136.69
-151.65
-168.03
-182.61
-191.52
-191.09
-178.54
-152.67
-114.41
-67.13
-16.20
32.33
73.62
105.79
130.49
151.81
173.88
198.51
224.01
246.04
259.71
262.05
253.22
236.06
214.53
191.96
170.20
149.75
130.61
112.99
97.43
84.39
73.74
64.45
54.99
43.90
30.49
15.27
-0.30
-14.44
-25.83
-34.23
-40.49
-46.13
-52.56
-60.49
-69.63
-78.93
-87.10
-93.20
-96.93
-98.67
-99.21
-99.31
-99.40
-99.45
-99.15
-98.20
-96.53
-94.45
-92.42
-90.89
-90.10
-90.03
-90.56
-91.51
-92.64
-93.65
-94.19
-93.99
-93.03
-91.67
-90.53
-90.22
-91.00
-92.67
-94.65
-96.33
-97.30
-97.61
-97.81
-98.84
-102.03
-108.77
-120.36
-137.60
-160.58
-188.51
-219.83
-252.32
-283.48
-310.84
-332.28
-346.42
-352.84
-352.15
-345.89
-336.23
-325.64
-316.61
-311.32
-311.37
-317.58
-329.80
-346.96
-367.23
-388.23
-407.19
-421.12
-427.20
-423.23
-408.31
-383.19
-350.17
-312.45
-273.17
-234.63
-197.99
-163.55
-131.26
-101.13
-73.29
-47.83
-24.69
-3.58
15.85
33.86
50.52
65.86
80.00
93.23
105.95
118.52
131.14
143.79
156.23
168.21
179.56
190.42
201.23
212.79
225.99
241.49
259.17
277.78
294.99
307.95
314.22
312.70
303.96
289.88
272.88
254.88
236.76
218.51
199.71
180.17
160.24
140.61
121.94
104.54
88.21
72.46
56.70
40.30
22.69
3.38
-17.59
-39.24
-59.35
-74.70
-81.95
-78.68
-64.26
-39.89
-8.14
27.92
65.30
101.41
133.94
160.94
181.01
193.64
199.42
199.84
196.70
191.56
185.38
178.59
171.43
164.29
157.80
152.68
149.48
148.29
148.73
150.02
151.18
151.31
149.77
146.28
140.90
133.98
125.98
117.36
108.44
99.39
90.15
80.53
70.35
59.60
48.48
37.40
26.80
16.90
7.63
-1.40
-10.67
-20.49
-30.83
-41.29
-51.29
-60.34
-68.29
-75.44
-82.51
-90.55
-100.65
-113.53
-129.02
-145.59
-160.22
-168.91
-167.80
-154.43
-128.71
-93.09
-51.88
-9.91
28.62
61.00
86.05
103.77
114.80
120.08
120.64
117.64
112.29
105.72
98.90
92.44
86.67
81.70
77.56
74.40
72.47
72.05
73.23
75.71
78.76
81.31
82.28
80.90
77.03
71.09
63.93
56.40
49.05
42.00
34.91
27.26
18.64
8.99
-1.34
-11.67
-21.33
-29.97
-37.70
-45.06
-52.71
-61.05
-70.00
-79.01
-87.34
-94.43
-100.20
-105.07
-109.92
-115.86
-123.96
-134.92
-148.52
-163.18
-175.86
-182.52
-179.24
-163.61
-135.76
-98.47
-56.39
-14.57
22.88
53.53
76.67
92.65
102.32
106.55
106.20
102.18
95.56
87.52
79.19
71.47
64.92
59.74
55.94
53.42
52.15
52.11
53.33
55.65
58.60
61.34
62.79
61.93
58.14
51.45
42.57
32.65
22.85
13.91
5.85
-1.90
-10.24
-19.90
-31.06
-43.31
-55.73
-67.32
-77.37
-85.69
-92.72
-99.37
-106.87
-116.41
-128.74
-143.66
-159.57
-173.43
-181.20
-178.95
-164.21
-136.94
-99.80
-57.41
-14.91
23.38
54.88
78.85
95.74
106.49
112.03
113.09
110.39
104.75
97.17
88.68
80.19
72.33
65.52
60.00
55.93
53.38
52.31
52.52
53.67
55.25
56.66
57.27
56.49
53.88
49.21
42.58
34.42
25.38
16.19
7.40
-0.80
-8.65
-16.73
-25.68
-35.95
-47.50
-59.79
-71.98
-83.15
-92.71
-100.58
-107.20
-113.49
-120.66
-129.92
-142.11
-157.13
-173.45
-187.98
-196.51
-194.88
-180.29
-152.49
-113.97
-69.35
-23.92
17.72
52.59
79.48
98.50
110.49
116.49
117.55
114.72
109.06
101.64
93.46
85.38
78.05
71.92
67.24
64.10
62.46
62.20
63.09
64.86
67.10
69.24
70.62
70.48
68.18
63.31
55.94
46.51
35.92
25.14
14.99
5.84
-2.47
-10.56
-19.14
-28.76
-39.49
-50.88
-62.14
-72.46
-81.29
-88.54
-94.67
-100.53
-107.26
-116.01
-127.57
-141.83
-157.34
-171.12
-179.20
-177.60
-163.67
-137.08
-100.12
-57.11
-13.13
27.25
60.93
86.53
104.08
114.46
118.89
118.53
114.47
107.68
99.17
90.02
81.27
73.83
68.29
64.77
63.03
62.64
63.12
64.15
65.57
67.18
68.61
69.21
68.17
64.77
58.69
50.19
40.02
29.23
18.76
9.16
0.50
-7.65
-15.96
-25.02
-35.12
-46.11
-57.39
-68.16
-77.64
-85.47
-91.78
-97.24
-102.90
-109.97
-119.55
-132.13
-147.12
-162.49
-174.87
-180.15
-174.72
-156.73
-126.89
-88.42
-46.09
-4.88
31.27
60.06
80.76
93.79
100.09
100.79
97.03
89.95
80.76
70.70
60.99
52.71
46.66
43.22
42.34
43.64
46.51
50.34
54.60
58.76
62.30
64.73
65.70
65.29
64.03
62.88
62.90
64.87
69.09
75.46
83.78
94.01
106.41
121.14
137.92
155.73
172.87
187.41
197.81
203.19
203.38
198.69
189.83
178.02
165.22
154.14
147.72
148.27
156.51
171.11
188.98
206.17
219.10
225.44
224.56
217.35
205.74
191.94
177.89
164.79
152.96
142.02
131.30
120.33
109.02
97.70
86.76
76.24
65.68
54.13
40.48
23.75
3.37
-20.88
-48.77
-79.51
-111.45
-141.94
-167.62
-185.21
-192.69
-190.23
-180.39
-167.28
-154.96
-145.81
-139.79
-135.01
-129.23
-121.63
-113.64
-108.43
-109.51
-119.18
-137.76
-163.81
-194.84
-227.99
-260.12
-287.72
-307.13
-315.23
-310.58
-293.93
-268.03
-236.40
-202.11
-167.27
-133.33
-101.88
-75.07
-55.15
-43.40
-39.30
-40.53
-43.97
-46.93
-47.99
-46.94
-44.18
-39.95
-34.20
-26.93
-18.67
-10.70
-4.66
-1.92
-3.11
-7.87
-15.19
-23.93
-33.12
-42.12
-50.55
-58.09
-64.59
-70.08
-74.91
-79.67
-84.89
-90.87
-97.35
-103.68
-109.00
-112.68
-114.59
-115.16
-115.41
-116.54
-119.70
-125.38
-133.05
-140.93
-146.18
-145.61
-136.70
-118.47
-92.01
-60.17
-26.75
4.60
31.19
51.57
65.42
73.15
75.54
73.60
68.48
61.46
53.74
46.40
40.17
35.48
32.43
30.86
30.50
31.08
32.45
34.53
37.23
40.18
42.66
43.63
42.10
37.54
30.26
21.33
12.26
4.39
-1.65
-6.15
-10.14
-14.87
-21.21
-29.27
-38.36
-47.33
-55.05
-60.94
-65.15
-68.56
-72.49
-78.24
-86.71
-97.91
-110.64
-122.47
-130.09
-130.14
-120.33
-100.30
-71.90
-38.74
-5.12
25.05
49.03
65.38
73.77
74.57
68.63
57.21
42.00
24.97
8.03
-7.38
-20.67
-32.04
-42.24
-51.99
-61.57
-70.63
-78.42
-84.25
-88.11
-90.90
-94.41
-100.74
-111.52
-126.97
-145.32
-162.80
-174.37
-175.02
-161.29
-132.40
-90.70
-41.19
9.75
55.89
92.44
116.84
128.73
129.47
121.34
106.79
87.87
66.18
43.31
21.45
3.90
-5.30
-2.46
14.27
43.72
81.71
122.16
158.93
187.48
205.68
213.50
212.14
203.14
187.91
167.90
144.86
121.11
99.18
81.29
68.77
61.62
58.66
57.76
56.71
53.90
48.95
42.75
37.07
33.72
33.69
36.63
40.85
44.10
44.39
40.80
33.71
24.43
14.61
5.56
-2.02
-7.90
-12.00
-14.28
-14.83
-14.17
-13.42
-14.06
-17.34
-23.54
-31.60
-39.49
-45.00
-46.75
-44.64
-39.72
-33.46
-26.94
-20.40
-13.44
-5.43
3.92
14.33
25.01
34.87
42.85
48.02
49.73
47.65
41.91
33.04
21.79
8.82
-5.63
-21.87
-40.62
-62.54
-87.50
-114.01
-139.03
-158.53
-168.58
-166.70
-152.81
-129.27
-100.03
-69.23
-40.00
-13.87
8.98
28.97
46.42
61.34
73.66
83.68
92.19
100.25
108.54
116.90
124.42
129.97
133.27
135.43
138.89
146.47
160.08
179.98
204.76
232.22
260.08
286.31
308.75
324.58
330.41
323.20
301.43
266.00
219.91
167.14
111.67
57.05
6.84
-34.96
-64.32
-78.64
-78.27
-67.27
-52.35
-40.55
-36.72
-42.08
-54.57
-70.30
-85.38
-97.09
-104.16
-106.48
-104.59
-99.38
-91.95
-83.46
-74.96
-67.29
-61.12
-57.00
-55.41
-56.68
-60.85
-67.52
-75.92
-85.25
-94.98
-105.03
-115.73
-127.39
-139.95
-152.87
-165.21
-176.03
-184.82
-191.67
-197.16
-202.19
-207.73
-214.66
-223.66
-234.94
-247.82
-260.44
-269.68
-271.66
-262.73
-240.59
-205.11
-158.52
-104.99
-49.59
2.73
48.12
84.31
110.64
127.73
136.85
139.50
137.07
130.77
121.83
111.58
101.48
92.89
86.76
83.44
82.61
83.50
85.07
86.27
86.19
84.19
80.06
73.95
66.31
57.51
47.58
36.10
22.35
5.91
-12.95
-32.97
-52.22
-68.85
-81.86
-91.58
-99.62
-108.29
-119.76
-135.05
-153.31
-171.60
-185.40
-189.77
-180.85
-157.19
-120.16
-73.46
-21.78
30.64
80.91
127.60
170.21
208.43
241.51
268.27
287.13
296.88
297.54
290.91
280.92
273.17
273.73
287.20
314.76
352.89
393.72
427.16
444.05
439.26
413.08
370.72
319.86
267.85
219.67
177.49
141.49
111.24
86.46
66.90
51.53
38.08
23.20
3.57
-22.59
-54.69
-89.78
-123.28
-150.75
-169.35
-178.59
-180.21
-177.05
-171.74
-165.70
-158.98
-150.84
-140.70
-128.88
-116.56
-105.31
-96.31
-89.82
-85.24
-81.46
-77.49
-72.95
-68.13
-63.73
-60.50
-58.82
-58.55
-59.11
-59.72
-59.68
-58.57
-56.33
-53.18
-49.49
-45.64
-41.89
-38.38
-35.13
-32.20
-29.76
-28.10
-27.58
-28.38
-30.44
-33.40
-36.77
-40.01
-42.73
-44.74
-45.91
-46.23
-45.70
-44.50
-43.03
-41.92
-41.90
-43.55
-47.08
-52.17
-57.96
-63.32
-67.11
-68.50
-67.12
-63.15
-57.18
-50.02
-42.52
-35.44
-29.28
-24.30
-20.51
-17.74
-15.73
-14.23
-12.96
-11.73
-10.35
-8.69
-6.68
-4.32
-1.70
0.97
3.45
5.53
7.10
8.15
8.76
9.05
9.08
8.81
8.17
7.06
5.39
3.12
0.24
-3.21
-7.16
-11.46
-15.89
-20.17
-24.02
-27.26
-29.88
-32.05
-34.05
-36.25
-38.83
-41.78
-44.66
-46.74
-47.08
-44.77
-39.27
-30.64
-19.62
-7.50
4.21
14.19
21.57
26.12
28.12
28.11
26.64
24.12
20.81
16.95
12.88
9.03
5.82
3.47
1.97
1.10
0.60
0.31
0.24
0.52
1.26
2.38
3.69
4.88
5.63
5.78
5.27
4.15
2.55
0.66
-1.33
-3.24
-5.02
-6.75
-8.60
-10.80
-13.40
-16.30
-19.22
-21.85
-24.07
-26.00
-27.89
-29.90
-31.81
-33.02
-32.64
-29.89
-24.51
-16.82
-7.66
2.02
11.48
20.21
27.57
32.50
33.57
29.53
20.12
6.44
-9.35
-25.01
-39.32
-52.52
-65.77
-79.99
-94.81
-108.33
-118.02
-122.00
-120.18
-114.27
-106.91
-100.39
-95.66
-92.25
-88.83
-84.17
-77.76
-69.97
-61.84
-54.31
-47.90
-42.45
-37.34
-31.84
-25.56
-18.73
-12.19
-7.25
-5.14
-6.70
-11.89
-19.80
-28.74
-36.63
-41.35
-41.07
-34.48
-21.01
-1.11
23.61
50.50
76.36
98.20
114.02
123.27
126.75
126.09
123.12
119.41
116.04
113.67
112.58
112.71
113.57
114.36
114.20
112.41
108.73
103.39
96.87
89.59
81.64
72.71
62.27
49.82
35.25
18.95
1.76
-15.31
-31.42
-46.09
-59.38
-71.63
-83.31
-94.73
-105.89
-116.59
-126.42
-134.99
-142.11
-147.93
-153.01
-158.26
-164.73
-173.35
-184.61
-198.55
-214.72
-232.43
-250.88
-269.34
-287.12
-303.77
-319.11
-333.29
-346.51
-358.61
-368.63
-374.72
-374.56
-366.19
-348.81
-323.10
-290.94
-254.68
-216.44
-177.80
-139.80
-103.26
-68.85
-36.84
-6.67
23.21
54.84
89.57
126.61
162.35
190.87
205.70
202.18
179.35
140.68
93.14
45.21
4.63
-23.33
-36.53
-35.72
-23.47
-3.11
22.32
50.61
80.76
112.74
147.01
183.56
221.12
256.93
287.14
307.91
316.86
313.90
301.43
283.46
264.28
247.26
234.22
225.61
220.98
219.49
220.13
221.60
222.28
220.52
215.09
205.80
193.58
180.11
167.14
155.71
145.83
136.63
127.01
116.33
104.79
93.41
83.59
76.51
72.76
72.21
74.14
77.63
81.91
86.73
92.45
99.73
109.11
120.31
132.00
141.97
147.91
148.28
142.96
133.27
121.34
109.20
97.99
87.66
77.24
65.46
51.37
34.76
16.30
-2.69
-20.54
-35.70
-47.11
-54.48
-58.27
-59.55
-59.66
-59.91
-61.33
-64.58
-70.04
-77.84
-87.95
-100.18
-114.38
-130.47
-148.33
-167.37
-185.92
-200.91
-208.10
-203.12
-182.67
-145.61
-93.49
-30.28
38.28
105.72
165.79
213.48
245.98
263.13
267.34
262.72
253.63
243.37
233.45
223.78
213.42
201.15
185.85
166.54
142.46
113.51
80.79
46.80
14.97
-11.52
-30.94
-43.96
-53.34
-62.85
-75.74
-93.56
-115.89
-140.87
-166.20
-190.03
-211.46
-230.41
-247.43
-263.38
-279.24
-295.66
-312.46
-327.96
-338.79
-340.40
-328.49
-300.65
-257.72
-203.99
-146.13
-91.27
-45.10
-10.58
12.14
25.02
30.92
32.61
32.22
31.18
30.43
30.68
32.53
36.34
42.00
48.64
54.77
58.51
58.13
52.52
41.41
25.31
5.26
-17.38
-41.08
-63.99
-83.99
-99.11
-108.39
-112.89
-116.12
-123.20
-139.01
-165.93
-202.60
-244.17
-284.01
-315.97
-336.04
-342.70
-336.40
-318.63
-291.35
-256.99
-218.52
-179.26
-142.19
-109.09
-80.06
-53.72
-27.83
-0.18
30.70
65.04
101.51
137.34
168.91
192.88
207.31
212.44
210.59
205.20
199.47
195.29
192.92
191.53
190.07
187.93
185.06
181.58
177.31
171.55
163.36
152.03
137.45
120.22
101.45
82.31
63.75
46.15
29.38
12.79
-4.59
-23.86
-45.74
-70.05
-95.12
-117.77
-133.92
-139.69
-132.76
-112.94
-82.11
-43.36
-0.03
44.80
88.38
127.95
160.72
184.25
197.08
199.37
192.81
180.13
164.26
147.71
132.32
119.34
109.51
103.09
99.76
98.74
98.95
99.37
99.30
98.38
96.45
93.24
88.26
80.95
70.85
58.02
43.04
26.97
10.92
-4.28
-18.29
-31.37
-44.21
-57.84
-73.35
-91.57
-112.54
-134.95
-155.83
-170.93
-175.70
-166.68
-142.72
-105.52
-59.18
-9.07
39.55
82.50
117.24
142.70
158.91
166.62
166.96
161.35
151.33
138.52
124.46
110.48
97.67
86.77
78.30
72.55
69.61
69.33
71.23
74.39
77.57
79.40
78.71
74.89
68.01
58.73
47.99
36.58
24.86
12.67
-0.42
-14.76
-30.33
-46.64
-62.81
-77.87
-91.18
-102.58
-112.63
-122.52
-133.86
-148.08
-165.61
-185.06
-202.94
-214.21
-213.67
-197.77
-165.97
-121.07
-68.42
-14.25
35.93
78.41
111.44
134.85
149.28
155.72
155.40
149.69
140.22
128.75
116.94
106.16
97.28
90.58
85.93
83.04
81.62
81.56
82.81
85.18
88.16
90.80
91.83
90.06
84.74
75.89
64.34
51.48
38.73
27.01
16.39
6.14
-4.84
-17.43
-31.82
-47.39
-62.87
-76.94
-88.71
-98.05
-105.66
-112.84
-121.21
-132.18
-146.41
-163.16
-179.99
-192.91
-197.25
-189.01
-166.33
-130.22
-84.43
-34.34
14.58
58.05
93.59
120.39
138.75
149.43
153.28
151.23
144.39
134.15
122.10
109.88
98.84
89.83
83.14
78.64
76.06
75.19
75.95
78.31
81.97
86.19
89.78
91.33
89.66
84.20
75.28
63.97
51.75
39.89
29.05
19.06
9.07
-1.97
-14.77
-29.26
-44.60
-59.50
-72.74
-83.67
-92.43
-99.87
-107.33
-116.28
-127.86
-142.40
-158.89
-174.77
-186.12
-188.52
-178.44
-154.41
-117.82
-72.52
-23.82
23.08
64.16
97.19
121.56
137.70
146.45
148.70
145.34
137.35
125.95
112.62
99.00
86.61
76.63
69.67
65.70
64.22
64.40
65.36
66.32
66.64
65.90
63.77
59.99
54.33
46.62
36.77
24.89
11.34
-3.28
-18.28
-33.02
-47.07
-60.22
-72.54
-84.24
-95.80
-107.87
-121.27
-136.52
-153.32
-169.90
-183.00
-188.48
-182.55
-163.26
-131.27
-89.85
-43.87
1.57
42.38
76.04
101.44
118.56
127.88
130.18
126.55
118.35
107.19
94.76
82.55
71.68
62.79
56.05
51.40
48.73
47.97
49.10
52.04
56.35
61.15
65.17
66.99
65.49
60.22
51.61
40.84
29.42
18.66
9.11
0.44
-8.38
-18.54
-30.75
-44.85
-59.86
-74.24
-86.60
-96.13
-102.93
-108.11
-113.63
-121.83
-134.66
-152.64
-174.06
-194.82
-209.44
-212.81
-202.21
-178.63
-146.59
-112.76
-83.76
-64.32
-56.29
-58.86
-69.44
-84.69
-101.38
-116.88
-129.32
-137.69
-141.68
-141.55
-137.78
-130.93
-121.61
-110.58
-98.93
-88.02
-79.13
-73.10
-69.80
-67.91
-65.14
-58.76
-46.35
-26.52
0.66
33.67
69.84
105.99
139.06
166.64
187.29
200.57
206.98
207.70
204.40
198.97
193.20
188.43
185.23
183.16
180.90
176.71
169.14
157.82
143.86
129.62
118.03
111.57
111.57
118.02
129.88
145.72
164.23
184.36
205.09
225.18
242.98
256.58
264.33
265.21
259.19
247.23
231.02
212.69
194.33
177.66
163.45
151.37
139.88
126.75
109.79
87.70
60.51
29.57
-3.17
-36.02
-68.19
-99.91
-132.05
-165.37
-200.04
-235.42
-270.37
-303.68
-334.52
-362.55
-387.87
-410.81
-431.87
-451.71
-470.91
-489.55
-506.53
-519.26
-524.00
-516.96
-495.71
-460.22
-412.79
-356.93
-295.99
-232.35
-167.74
-104.27
-45.48
3.86
39.02
57.28
59.30
49.25
33.44
18.39
8.90
7.09
12.48
22.82
35.20
46.99
56.41
62.68
65.79
66.19
64.37
60.62
55.12
47.96
39.27
29.39
18.86
8.27
-1.83
-11.13
-19.69
-27.91
-36.33
-45.45
-55.56
-66.82
-79.32
-93.00
-107.25
-120.49
-130.02
-132.45
-124.81
-105.63
-75.59
-37.32
5.92
51.54
98.50
146.96
196.93
246.79
292.64
329.09
351.02
355.64
343.62
318.82
286.80
252.96
221.10
193.02
169.03
148.60
130.95
114.91
98.76
80.13
56.57
26.59
-9.45
-48.96
-87.81
-121.75
-147.98
-166.09
-177.93
-186.50
-194.46
-203.17
-212.40
-221.04
-228.05
-233.13
-236.93
-240.72
-245.91
-253.41
-263.10
-273.55
-281.91
-284.56
-278.13
-260.69
-232.48
-195.74
-153.77
-109.47
-64.36
-18.51
28.46
76.04
122.01
162.58
193.62
212.22
217.84
212.46
199.77
183.95
168.61
156.20
148.11
145.00
146.94
153.44
163.21
174.26
184.24
191.06
193.49
191.37
185.34
176.45
165.51
152.95
138.84
123.30
106.83
90.34
75.05
61.89
51.15
42.18
33.43
22.86
8.67
-9.80
-31.24
-52.09
-67.01
-70.07
-56.64
-25.02
22.54
80.05
139.19
191.44
230.13
251.71
255.93
244.98
222.26
191.30
155.24
116.97
79.44
45.77
18.95
1.16
-6.87
-6.12
1.30
12.85
26.48
40.91
55.60
70.21
84.10
96.16
105.03
109.45
108.66
102.55
91.64
76.67
58.32
36.82
11.81
-17.34
-51.15
-89.43
-130.92
-173.45
-214.66
-252.83
-287.29
-317.93
-344.13
-363.82
-373.41
-368.97
-347.92
-310.37
-259.15
-198.71
-133.56
-67.39
-3.06
56.69
108.71
149.68
177.05
190.03
189.94
179.79
163.31
144.14
125.37
109.40
98.02
92.24
92.25
97.27
105.87
116.26
126.78
136.12
143.39
148.15
150.37
150.35
148.50
145.12
140.12
132.97
122.88
109.20
91.85
71.38
48.85
25.37
1.63
-22.38
-47.27
-73.91
-102.96
-134.29
-166.38
-196.06
-218.64
-228.80
-221.89
-195.31
-149.28
-86.83
-12.90
66.72
146.41
221.26
287.28
341.39
381.49
406.63
417.05
414.10
399.91
377.05
348.06
315.34
280.84
246.00
211.74
178.57
146.71
116.17
86.82
58.25
29.90
1.14
-28.41
-58.74
-89.51
-120.20
-150.45
-180.28
-210.01
-240.18
-271.44
-304.42
-339.55
-376.81
-415.34
-453.34
-488.32
-517.60
-539.09
-551.78
-555.74
-551.69
-540.32
-521.75
-495.57
-461.30
-419.03
-369.84
-315.63
-258.53
-199.95
-140.23
-78.79
-15.29
49.16
111.23
165.69
207.05
231.56
238.80
231.98
216.79
199.57
185.48
177.52
176.38
181.00
189.14
197.86
204.01
204.77
198.30
184.26
163.98
139.96
115.19
92.19
72.39
55.82
41.53
28.21
14.86
1.22
-12.30
-25.00
-36.50
-47.17
-58.43
-72.51
-91.79
-117.78
-149.91
-184.74
-216.28
-237.25
-241.37
-225.35
-189.87
-138.75
-77.17
-9.73
60.18
129.82
195.98
254.32
300.23
330.35
344.06
343.72
333.66
318.57
302.23
287.32
275.89
269.77
270.47
278.52
292.76
310.17
326.52
337.58
340.23
333.05
316.32
291.48
260.50
225.40
187.90
149.52
111.55
75.21
41.44
10.70
-17.35
-43.83
-70.36
-98.43
-128.69
-160.52
-192.34
-222.11
-248.31
-270.57
-289.85
-308.29
-328.75
-354.29
-387.27
-428.06
-473.71
-517.57
-550.35
-562.69
-548.49
-507.26
-444.46
-369.41
-291.83
-218.74
-153.01
-93.99
-39.41
12.74
63.21
111.36
155.70
194.19
224.54
244.36
251.53
244.74
223.73
189.70
145.09
93.40
38.59
-15.34
-64.93
-107.74
-142.77
-170.50
-192.33
-209.88
-224.03
-234.55
-240.30
-240.09
-233.60
-221.88
-207.24
-192.48
-180.09
-171.79
-168.61
-171.03
-178.94
-191.15
-204.83
-215.55
-218.14
-208.34
-184.19
-146.58
-98.51
-43.88
13.64
70.73
124.13
170.17
205.06
225.89
231.69
224.09
206.79
184.41
161.30
140.63
124.33
113.31
107.72
107.07
110.19
115.28
120.24
123.12
122.60
118.27
110.47
100.08
87.98
74.79
60.73
45.78
29.94
13.38
-3.50
-20.19
-36.13
-50.99
-64.68
-77.53
-90.37
-104.41
-120.82
-139.93
-160.39
-178.91
-190.75
-191.06
-176.38
-145.81
-101.25
-46.89
11.87
69.48
121.03
162.75
192.33
209.13
214.02
209.10
197.02
180.45
161.63
142.34
124.14
108.45
96.53
89.20
86.69
88.45
93.33
99.76
106.03
110.57
112.24
110.45
105.29
97.37
87.55
76.69
65.34
53.78
42.03
30.02
17.61
4.54
-9.71
-25.96
-45.26
-68.61
-96.53
-128.86
-164.81
-203.18
-242.56
-281.06
-316.00
-343.69
-359.91
-361.06
-345.51
-314.47
-271.64
-221.77
-168.80
-114.68
-59.63
-3.57
52.19
104.13
147.32
177.24
191.82
192.35
182.85
168.46
153.52
140.66
130.78
124.06
120.86
121.96
128.08
138.88
152.50
165.67
174.71
176.75
170.58
156.99
138.13
116.57
94.33
72.23
49.79
25.68
-1.52
-32.57
-67.06
-103.40
-139.21
-172.00
-199.76
-221.31
-236.46
-245.94
-251.14
-253.84
-255.52
-256.74
-256.60
-252.83
-242.58
-223.63
-195.27
-158.51
-115.32
-67.58
-16.46
37.15
91.62
143.75
188.87
222.13
240.38
243.45
234.24
217.46
197.88
179.01
162.66
149.40
139.39
132.82
129.99
130.93
135.06
141.11
147.40
152.26
154.38
153.05
148.19
140.27
130.01
118.27
105.83
93.23
80.74
68.29
55.65
42.39
28.19
12.91
-3.28
-19.92
-36.39
-52.05
-66.62
-80.32
-94.08
-109.48
-128.43
-152.40
-181.34
-212.91
-242.33
-263.31
-269.88
-258.20
-227.66
-180.99
-123.12
-59.95
2.71
59.72
106.85
141.10
161.13
167.56
162.77
150.19
133.28
114.75
96.39
79.43
65.02
54.37
48.54
48.04
52.43
60.40
70.09
79.46
86.76
90.83
91.23
88.16
82.34
74.61
65.66
55.74
44.76
32.47
18.76
3.92
-11.40
-26.30
-39.95
-51.83
-61.83
-70.35
-78.27
-86.88
-97.50
-110.74
-125.71
-139.44
-147.26
-144.17
-126.64
-94.28
-50.39
-1.08
46.60
86.63
115.28
131.32
135.33
128.89
113.99
92.91
68.26
42.89
19.59
0.49
-13.18
-21.28
-24.39
-23.48
-19.48
-13.10
-4.90
4.58
14.59
24.10
31.92
36.91
38.26
35.76
29.79
21.31
11.50
1.39
-8.39
-17.81
-27.27
-37.30
-48.23
-59.99
-72.09
-83.85
-94.59
-103.91
-111.81
-118.73
-125.65
-134.01
-145.23
-160.07
-177.59
-194.65
-206.34
-207.31
-193.49
-163.50
-118.96
-63.93
-3.61
56.74
112.54
160.10
196.77
221.13
233.26
234.76
228.28
216.80
202.92
188.47
174.64
162.22
151.80
143.74
138.06
134.35
131.89
129.89
127.62
124.38
119.43
111.89
100.82
85.49
65.69
41.98
15.64
-11.57
-37.91
-62.02
-83.20
-101.34
-116.70
-129.54
-139.87
-147.40
-151.65
-152.35
-149.69
-144.56
-138.61
-134.00
-132.97
-137.01
-146.02
-157.54
-166.79
-167.65
-154.61
-124.94
-80.13
-25.88
29.60
78.16
114.06
135.04
141.93
137.28
123.94
104.45
81.09
56.31
32.90
13.72
0.93
-4.59
-3.44
2.58
11.11
19.86
26.94
31.02
31.30
27.42
19.55
8.38
-4.84
-18.43
-30.72
-40.39
-46.94
-50.84
-53.31
-55.78
-59.36
-64.43
-70.61
-77.12
-83.27
-88.90
-94.58
-101.48
-110.98
-123.89
-139.68
-155.96
-168.60
-172.60
-163.56
-139.14
-100.03
-49.96
5.27
59.31
106.70
143.91
169.48
183.75
188.09
184.38
174.44
159.95
142.43
123.41
104.45
87.10
72.72
62.22
55.94
53.64
54.66
57.98
62.41
66.61
69.28
69.28
65.87
58.95
48.99
36.88
23.58
9.78
-4.26
-18.62
-33.53
-49.03
-64.80
-80.14
-94.24
-106.49
-116.85
-126.02
-135.44
-146.89
-161.58
-179.26
-197.55
-212.00
-217.29
-208.74
-183.96
-143.66
-91.53
-33.21
25.07
77.76
120.84
152.07
170.97
178.52
176.72
168.00
154.76
139.00
122.21
105.54
89.94
76.32
65.49
58.03
54.17
53.75
56.15
60.37
65.05
68.71
69.91
67.61
61.38
51.65
39.52
26.48
13.94
2.73
-7.10
-16.17
-25.43
-35.61
-46.84
-58.68
-70.30
-81.06
-90.88
-100.59
-111.83
-126.63
-146.36
-170.65
-196.63
-219.08
-231.59
-228.47
-206.73
-167.13
-114.02
-54.09
5.51
58.76
101.84
133.37
154.23
166.90
174.65
180.51
186.41
192.81
198.82
203.05
204.39
202.59
198.17
192.08
185.16
177.95
170.75
163.75
157.14
150.90
144.65
137.56
128.60
117.05
102.94
87.21
71.46
57.33
45.81
36.80
29.13
21.05
10.98
-1.78
-16.71
-32.27
-46.53
-58.03
-66.34
-72.32
-77.79
-84.86
-95.21
-109.28
-125.69
-141.05
-150.41
-148.49
-131.45
-98.63
-53.39
-2.50
45.74
84.12
108.58
118.80
117.50
108.68
96.06
82.25
68.76
56.54
46.35
38.75
33.82
30.84
28.50
25.35
20.53
14.24
7.63
2.28
-0.55
-0.49
1.77
4.85
7.22
7.76
6.02
2.19
-3.14
-9.30
-15.70
-21.95
-27.82
-33.25
-38.30
-43.16
-48.10
-53.39
-59.28
-65.86
-72.96
-80.04
-86.15
-90.09
-90.61
-86.91
-79.00
-67.95
-55.66
-44.43
-36.32
-32.59
-33.50
-38.36
-45.90
-54.80
-63.98
-72.94
-81.65
-90.43
-99.55
-108.98
-118.24
-126.47
-132.73
-136.30
-136.97
-134.91
-130.56
-124.29
-116.24
-106.23
-93.98
-79.27
-62.15
-43.11
-23.13
-3.55
14.11
28.59
39.23
46.15
50.23
52.68
54.48
55.93
56.32
53.91
46.24
30.82
6.24
-26.57
-63.47
-97.51
-120.74
-127.15
-115.22
-89.09
-57.24
-29.43
-13.22
-11.69
-23.17
-42.85
-64.91
-84.34
-97.70
-103.24
-100.70
-91.21
-77.12
-61.48
-47.03
-35.23
-25.67
-16.43
-5.11
9.81
28.05
47.40
64.45
75.84
79.41
74.81
63.39
47.64
30.33
13.85
-0.06
-10.42
-17.00
-20.26
-21.35
-21.88
-23.52
-27.49
-34.07
-42.45
-51.12
-58.56
-63.98
-67.76
-71.52
-77.53
-87.72
-102.55
-120.23
-136.78
-147.01
-146.28
-132.05
-104.59
-66.52
-21.68
26.13
73.72
118.37
157.45
188.33
208.75
217.67
215.73
205.18
189.08
170.45
151.61
134.10
118.94
106.90
98.57
94.22
93.62
95.92
99.77
103.54
105.57
104.45
99.22
89.50
75.59
58.41
39.37
20.01
1.64
-14.99
-29.75
-43.05
-55.44
-67.33
-78.76
-89.55
-99.45
-108.38
-116.53
-124.37
-132.59
-142.10
-153.81
-168.23
-184.81
-201.42
-214.37
-219.31
-212.55
-192.37
-159.50
-116.59
-67.22
-14.84
37.43
86.66
129.74
163.56
185.82
195.76
194.66
185.33
171.15
155.15
139.55
125.91
115.45
109.15
107.53
110.27
116.04
122.81
128.33
130.75
128.86
122.08
110.39
94.12
74.02
51.22
27.15
3.32
-18.93
-38.69
-55.64
-70.03
-82.48
-93.90
-105.15
-116.92
-129.79
-144.26
-160.79
-179.53
-199.69
-219.01
-233.85
-239.94
-233.74
-213.87
-181.48
-139.64
-91.89
-40.90
11.80
65.09
117.14
164.78
204.16
232.13
247.72
252.53
250.06
244.12
237.57
231.71
226.63
221.97
217.61
213.77
210.79
208.65
206.79
204.16
199.54
191.90
180.66
165.91
148.31
128.84
108.53
88.06
67.51
46.40
23.89
-0.74
-27.64
-56.16
-84.90
-112.06
-136.07
-156.06
-172.12
-185.28
-197.25
-209.96
-225.00
-242.86
-262.28
-280.07
-291.56
-291.83
-277.26
-246.73
-201.98
-147.06
-87.14
-27.33
28.08
75.92
114.19
142.01
159.57
168.06
169.33
165.50
158.60
150.38
142.39
135.97
132.10
131.26
133.32
137.60
143.23
149.48
155.96
162.54
169.12
175.34
180.33
182.82
181.35
174.74
162.60
145.62
125.51
104.47
84.46
66.52
50.53
35.49
20.21
4.03
-12.85
-29.53
-44.90
-58.25
-69.70
-80.16
-91.22
-104.88
-123.24
-147.83
-178.65
-213.12
-245.85
-269.38
-276.31
-261.93
-226.11
-173.50
-112.04
-50.25
5.16
50.48
84.73
108.44
122.53
127.83
125.32
116.50
103.53
88.93
74.95
63.10
53.96
47.29
42.51
39.05
36.72
35.74
36.53
39.36
43.90
49.02
52.95
53.89
50.66
43.22
32.73
21.04
9.89
0.19
-8.28
-16.61
-26.19
-38.03
-52.29
-68.30
-84.75
-100.19
-113.47
-124.02
-132.08
-138.64
-145.31
-154.00
-166.24
-182.23
-200.05
-215.46
-222.69
-216.15
-192.46
-151.87
-98.39
-38.56
20.53
73.19
116.02
147.92
169.24
180.86
183.75
178.85
167.29
150.64
130.82
109.95
90.08
72.92
59.64
50.74
46.07
44.92
46.26
48.97
52.00
54.43
55.54
54.70
51.44
45.35
36.19
23.98
9.02
-7.98
-26.06
-44.14
-61.28
-76.92
-91.02
-104.08
-116.96
-130.85
-147.03
-166.44
-189.10
-213.29
-235.14
-249.11
-249.40
-232.01
-196.47
-146.35
-88.30
-29.99
22.10
63.99
94.33
113.62
123.22
124.71
119.80
110.44
98.79
86.93
76.45
68.18
62.18
58.09
55.58
54.64
55.55
58.60
63.80
70.49
77.38
82.80
85.20
83.63
78.09
69.41
58.94
47.87
36.86
25.77
13.91
0.56
-14.64
-31.34
-48.58
-65.18
-80.26
-93.58
-105.67
-117.79
-131.59
-148.71
-170.03
-194.91
-220.47
-241.71
-252.48
-247.37
-223.66
-182.53
-128.95
-70.05
-13.02
36.79
76.65
106.18
126.27
138.18
143.04
141.82
135.62
125.81
113.99
101.75
90.43
80.93
73.67
68.74
66.07
65.51
66.90
70.03
74.43
79.33
83.68
86.33
86.28
82.92
76.25
66.75
55.31
42.98
30.67
18.98
8.05
-2.43
-13.08
-24.59
-37.46
-51.66
-66.62
-81.33
-94.64
-105.74
-114.40
-121.18
-127.33
-134.54
-144.58
-158.70
-176.84
-197.01
-215.14
-225.73
-223.38
-204.59
-169.17
-120.48
-64.47
-7.92
43.47
86.08
118.60
141.39
155.69
162.93
164.42
161.44
155.25
147.20
138.60
130.60
124.09
119.61
117.47
117.79
120.43
125.01
130.70
136.29
140.28
141.21
138.04
130.40
118.72
104.00
87.66
71.09
55.46
41.47
29.30
18.69
9.18
0.28
-8.39
-17.21
-26.73
-37.84
-51.55
-68.66
-89.14
-111.85
-134.63
-154.90
-170.49
-180.34
-184.94
-186.18
-186.89
-189.96
-197.33
-208.92
-222.16
-232.30
-233.53
-220.81
-191.62
-146.93
-91.02
-30.25
28.70
80.31
121.19
150.19
167.96
176.38
177.80
174.54
168.54
161.23
153.65
146.66
141.11
137.85
137.54
140.53
146.73
155.68
166.70
179.06
192.03
204.82
216.56
226.32
233.17
236.39
235.51
230.38
221.01
207.50
189.92
168.27
142.66
113.30
80.64
45.32
8.15
-29.88
-67.68
-104.14
-138.29
-169.63
-198.27
-224.78
-249.95
-274.27
-297.69
-319.88
-340.60
-359.98
-378.17
-394.56
-407.02
-411.93
-405.26
-384.21
-348.62
-301.05
-245.62
-186.01
-124.36
-61.35
2.21
63.85
118.91
161.71
187.74
195.68
187.99
169.88
147.30
124.97
105.55
89.82
77.73
69.27
64.71
64.36
67.82
73.73
79.88
83.85
83.75
78.82
69.64
57.74
44.86
32.31
20.48
8.80
-3.81
-18.30
-34.95
-53.09
-71.28
-87.85
-101.51
-111.88
-119.61
-126.22
-133.68
-143.87
-157.93
-175.59
-194.66
-211.12
-219.81
-215.83
-196.01
-159.95
-110.28
-51.92
9.12
67.12
117.52
157.42
185.55
202.09
208.34
206.25
198.09
186.10
172.29
158.40
145.97
136.21
129.92
127.36
128.27
132.12
138.26
146.01
154.56
162.82
169.32
172.42
170.70
163.51
151.35
135.65
118.34
100.99
84.20
67.34
48.92
27.28
1.35
-28.80
-61.97
-96.24
-129.52
-160.10
-186.96
-209.92
-229.63
-247.60
-265.86
-286.10
-308.60
-331.31
-349.70
-357.93
-350.72
-325.30
-282.22
-225.11
-159.37
-90.81
-24.79
33.96
81.47
114.81
132.78
136.45
129.03
115.01
98.71
83.27
70.25
60.10
52.83
48.43
47.02
48.58
52.73
58.72
65.64
72.54
78.59
83.04
85.20
84.42
80.29
72.82
62.53
50.46
37.86
25.79
14.81
4.78
-5.01
-15.46
-27.25
-40.48
-54.57
-68.45
-80.91
-91.09
-98.80
-104.72
-110.38
-117.82
-128.95
-144.51
-163.27
-181.61
-194.23
-195.54
-181.52
-151.10
-106.50
-52.55
4.80
59.91
108.49
147.89
177.01
195.90
205.49
207.21
202.80
193.97
182.41
169.68
157.29
146.59
138.57
133.62
131.52
131.54
132.76
134.35
135.70
136.36
135.94
133.95
129.80
122.97
113.15
100.47
85.60
69.60
53.67
38.67
24.83
11.65
-1.79
-16.31
-32.12
-48.66
-64.77
-79.22
-91.21
-100.74
-108.50
-115.64
-123.47
-133.29
-146.26
-163.02
-183.04
-204.00
-221.50
-229.74
-223.16
-198.44
-156.05
-100.47
-38.97
20.62
72.05
111.82
139.19
155.18
161.51
159.76
151.25
137.27
119.34
99.36
79.42
61.53
47.28
37.66
33.00
33.04
37.04
43.86
52.07
60.04
66.10
68.73
66.95
60.58
50.39
37.84
24.62
12.04
0.62
-9.94
-20.51
-31.88
-44.34
-57.49
-70.38
-82.01
-91.77
-99.81
-107.03
-114.94
-125.04
-138.17
-153.73
-169.21
-180.46
-182.58
-171.25
-144.04
-101.20
-45.55
18.11
84.13
146.96
201.91
245.53
275.74
291.68
293.25
280.89
255.57
219.11
174.78
127.50
83.26
47.80
25.07
16.21
19.80
32.90
52.45
76.23
102.89
131.44
160.66
188.86
214.18
234.93
249.93
258.31
259.50
253.18
239.60
219.67
194.96
167.23
137.83
107.33
75.70
42.75
8.77
-25.37
-58.45
-89.49
-118.36
-145.90
-173.68
-203.66
-237.78
-277.60
-323.47
-373.52
-422.96
-464.46
-490.03
-493.86
-474.77
-436.97
-388.51
-338.19
-292.40
-253.55
-220.53
-190.61
-161.38
-131.76
-101.72
-71.62
-41.67
-12.21
15.90
40.95
60.80
73.35
77.23
72.11
58.72
38.52
13.64
-13.35
-39.49
-61.79
-77.78
-86.02
-86.58
-80.88
-71.28
-60.30
-49.95
-41.39
-34.93
-30.39
-27.49
-26.18
-26.66
-29.32
-34.61
-42.90
-54.28
-68.14
-82.75
-94.96
-100.65
-95.77
-77.90
-47.38
-7.61
35.75
76.51
109.51
131.61
141.77
140.46
128.91
108.70
81.74
50.33
17.25
-14.53
-42.19
-63.48
-76.92
-81.80
-78.11
-66.34
-47.42
-22.65
6.26
37.35
68.60
98.25
125.20
149.08
170.11
188.72
205.18
219.27
230.43
238.01
241.71
241.84
239.29
235.30
231.02
227.20
223.94
220.69
216.36
209.83
200.63
189.70
179.93
175.81
182.21
202.45
236.58
280.40
326.21
364.78
388.00
391.19
374.02
339.97
294.60
243.65
191.55
140.92
92.84
47.36
4.18
-36.98
-76.08
-112.63
-145.61
-173.63
-195.36
-210.08
-218.23
-221.52
-222.42
-223.48
-226.51
-232.32
-240.84
-251.53
-263.64
-276.28
-288.22
-297.94
-303.97
-305.63
-303.54
-299.68
-296.76
-297.19
-302.12
-311.23
-323.02
-335.48
-346.51
-353.77
-354.56
-345.86
-324.96
-290.43
-242.85
-184.64
-118.97
-48.63
24.52
98.80
171.47
237.81
291.63
327.21
341.68
336.56
317.43
291.93
267.09
247.36
234.09
226.34
222.24
220.00
218.07
214.79
208.08
195.58
175.51
147.43
112.61
73.67
33.45
-6.05
-44.38
-82.27
-120.86
-160.55
-200.58
-239.11
-273.97
-303.56
-327.39
-346.19
-361.56
-375.52
-389.92
-405.79
-422.66
-438.18
-448.38
-448.69
-435.51
-407.58
-366.49
-316.01
-260.56
-203.56
-146.47
-88.98
-30.24
29.56
88.17
141.42
184.40
213.41
227.43
228.72
222.06
213.01
206.07
203.43
205.00
209.30
214.62
219.84
224.38
227.70
228.78
226.15
218.40
204.90
186.21
163.88
139.84
115.52
91.36
66.86
41.04
13.29
-16.27
-46.53
-75.73
-101.99
-123.79
-140.47
-152.45
-161.34
-169.43
-178.80
-190.14
-201.82
-210.01
-209.83
-197.19
-170.40
-130.68
-81.19
-25.47
33.79
94.66
154.95
211.07
257.98
290.61
305.86
304.02
288.70
265.06
237.61
208.82
179.10
148.09
116.24
85.53
59.09
39.72
28.44
23.83
22.33
19.60
11.88
-2.98
-25.31
-54.19
-88.27
-126.34
-167.33
-210.01
-252.47
-291.94
-325.00
-347.94
-357.36
-350.78
-327.34
-288.32
-237.55
-181.13
-126.41
-80.53
-48.73
-33.10
-32.08
-40.82
-52.47
-59.81
-57.06
-41.12
-12.11
27.06
71.76
116.83
157.43
189.44
209.44
214.81
204.19
178.23
140.17
95.63
51.56
14.58
-10.69
-22.53
-22.06
-12.26
3.20
21.08
38.83
54.53
66.41
72.75
72.23
64.65
51.54
36.12
22.65
15.07
15.68
24.24
38.15
53.42
66.08
73.47
74.84
71.07
63.81
54.53
43.87
31.56
16.93
-0.58
-21.10
-44.41
-69.99
-96.85
-123.21
-145.99
-161.15
-164.58
-153.57
-127.91
-89.94
-43.44
8.22
63.21
121.08
181.22
241.21
296.08
339.41
365.59
372.11
360.53
335.63
303.58
270.08
239.51
214.99
199.01
193.72
200.53
219.45
248.49
283.49
318.77
348.11
365.90
368.32
354.19
325.19
285.41
240.05
193.97
150.26
109.83
71.76
34.37
-3.80
-43.50
-84.74
-127.06
-169.58
-211.01
-249.55
-283.13
-310.05
-329.73
-343.19
-352.58
-359.99
-365.84
-368.13
-362.66
-344.80
-311.60
-263.41
-204.25
-140.61
-79.52
-26.68
14.53
43.07
59.53
65.25
61.83
50.99
34.71
15.29
-4.76
-23.05
-37.67
-47.52
-52.43
-52.94
-50.03
-44.76
-37.99
-30.34
-22.31
-14.45
-7.46
-2.31
0.01
-1.29
-6.56
-15.59
-27.52
-41.17
-55.19
-68.45
-80.23
-90.32
-99.02
-107.06
-115.54
-125.68
-138.50
-154.04
-170.75
-185.23
-192.69
-188.25
-168.43
-132.49
-82.94
-24.96
34.89
90.22
136.05
169.52
189.84
197.84
195.24
184.07
166.24
143.54
117.90
91.55
67.05
46.82
32.47
24.28
21.18
21.22
22.37
23.15
22.91
21.54
19.04
15.12
9.16
0.57
-10.91
-24.84
-40.26
-55.94
-70.80
-84.23
-96.17
-106.97
-117.28
-128.03
-140.42
-155.54
-173.79
-194.03
-213.13
-226.37
-228.73
-216.51
-188.57
-146.54
-94.16
-36.12
22.81
78.12
125.72
162.17
185.23
194.44
191.42
179.36
161.98
142.46
122.96
104.68
88.41
74.85
64.65
58.15
55.11
54.61
55.37
56.02
55.39
52.59
47.01
38.27
26.29
11.37
-5.72
-23.76
-41.35
-57.16
-70.37
-80.98
-89.87
-98.80
-110.05
-125.87
-147.68
-175.18
-205.66
-234.20
-254.70
-261.63
-251.79
-225.18
-184.81
-135.50
-82.44
-30.22
17.59
58.25
89.69
110.63
120.76
120.93
112.94
99.10
81.75
63.04
44.91
29.18
17.39
10.53
8.82
11.60
17.60
25.29
33.20
40.28
46.20
51.48
57.49
65.97
78.27
94.49
113.00
130.77
144.27
150.55
147.96
136.20
115.89
88.18
54.69
17.95
-18.38
-49.85
-72.38
-83.71
-84.46
-77.99
-69.14
-62.40
-60.23
-62.48
-66.80
-69.89
-68.86
-62.13
-49.78
-33.26
-14.93
2.57
16.84
26.24
30.18
29.38
25.65
21.56
19.78
22.35
30.05
42.04
55.99
68.65
76.66
77.53
70.29
55.77
36.23
14.70
-5.90
-23.54
-37.47
-48.25
-57.48
-67.36
-79.93
-96.17
-115.20
-133.91
-147.37
-150.25
-138.64
-111.65
-72.09
-25.73
20.48
60.52
90.77
110.41
120.65
123.62
121.19
114.52
104.24
90.87
75.24
58.47
41.79
26.12
11.90
-0.71
-11.46
-19.72
-24.40
-24.34
-18.92
-8.66
4.58
17.98
28.48
33.87
33.56
28.81
22.34
17.32
16.20
19.80
27.12
35.68
42.38
44.44
40.19
29.70
15.13
0.50
-9.02
-8.50
5.13
31.91
68.62
109.73
149.24
182.45
207.04
223.10
232.17
236.17
236.53
233.98
228.80
221.22
211.67
200.80
189.27
177.49
165.50
153.10
140.15
126.85
113.72
101.36
89.90
78.68
66.28
51.05
31.86
8.85
-16.49
-41.58
-63.51
-79.71
-88.37
-88.53
-79.97
-63.11
-39.13
-9.89
22.17
54.42
84.50
110.74
132.30
149.13
161.63
170.45
176.19
179.34
180.19
178.84
175.23
169.20
160.58
149.30
135.42
119.16
100.84
80.92
60.03
38.95
18.50
-0.60
-17.93
-33.42
-47.29
-59.83
-71.21
-81.30
-89.86
-96.77
-102.28
-107.05
-111.92
-117.51
-123.80
-130.01
-134.94
-137.44
-137.10
-134.47
-131.01
-128.48
-128.32
-131.09
-136.38
-143.10
-150.12
-156.71
-162.80
-168.91
-175.77
-183.99
-193.60
-203.88
-212.91
-217.53
-213.63
-197.28
-166.29
-121.65
-68.02
-12.71
36.43
73.49
96.03
105.24
104.78
99.05
91.81
85.54
81.51
80.00
80.59
82.24
83.45
82.70
79.02
72.42
63.94
55.42
48.82
45.66
46.46
50.59
56.44
61.83
64.81
64.24
60.23
54.11
47.79
43.11
41.13
41.86
44.30
46.91
48.08
46.57
41.70
33.51
22.73
10.68
-1.02
-10.79
-17.63
-21.31
-22.46
-22.35
-22.50
-24.32
-28.83
-36.59
-47.63
-61.45
-77.03
-92.91
-107.39
-118.95
-126.60
-130.21
-130.48
-128.55
-125.48
-121.89
-117.74
-112.62
-106.20
-98.64
-90.73
-83.74
-78.95
-77.20
-78.59
-82.47
-87.71
-93.08
-97.63
-100.98
-103.24
-105.00
-107.13
-110.66
-116.62
-125.97
-139.42
-157.01
-177.71
-199.09
-217.61
-229.50
-232.02
-224.55
-208.98
-189.02
-168.72
-151.07
-137.13
-126.28
-117.42
-110.17
-105.41
-104.63
-108.52
-115.52
-121.53
-120.93
-108.59
-81.66
-40.47
11.91
70.79
131.04
187.78
236.62
273.83
296.86
304.97
299.63
284.23
262.95
239.45
215.84
192.68
169.70
146.66
124.02
102.96
84.95
71.17
62.08
57.27
55.59
55.36
54.84
52.53
47.54
39.67
29.37
17.43
4.69
-8.25
-21.12
-33.84
-46.39
-58.61
-70.22
-80.95
-90.70
-99.65
-108.38
-117.85
-129.29
-143.71
-161.15
-179.92
-196.28
-205.05
-200.94
-180.25
-142.16
-89.07
-26.10
40.20
103.15
157.02
197.77
223.42
234.12
231.90
220.00
202.01
180.90
158.64
136.17
113.96
92.46
72.33
54.40
39.45
28.01
20.37
16.53
16.18
18.62
22.68
26.83
29.49
29.38
25.87
19.12
9.95
-0.52
-11.30
-21.80
-31.97
-42.22
-53.05
-64.84
-77.59
-90.85
-103.94
-116.13
-126.95
-136.38
-144.97
-153.94
-164.79
-178.60
-195.11
-211.93
-224.55
-227.48
-215.93
-187.43
-142.57
-84.65
-18.74
49.49
114.39
170.70
213.96
241.19
251.74
247.56
232.70
211.87
188.96
166.15
144.00
122.35
101.19
81.12
63.23
48.63
38.01
31.48
28.66
28.80
30.94
34.07
37.15
39.20
39.35
36.95
31.67
23.67
13.54
2.24
-9.23
-20.24
-30.68
-41.01
-51.92
-63.89
-76.89
-90.34
-103.37
-115.09
-124.97
-132.97
-139.74
-146.54
-155.04
-166.55
-181.07
-196.46
-208.32
-211.06
-199.66
-171.32
-126.50
-68.49
-2.48
65.78
130.76
187.53
232.00
261.31
274.46
272.64
258.95
237.41
211.73
184.46
156.91
129.68
103.41
79.09
57.93
40.97
28.71
20.99
17.23
16.55
18.04
20.74
23.58
25.41
25.14
21.97
15.74
6.96
-3.27
-13.75
-23.63
-32.74
-41.62
-51.16
-62.06
-74.38
-87.49
-100.22
-111.36
-120.18
-126.70
-131.86
-137.28
-144.95
-156.48
-172.14
-190.05
-205.95
-214.02
-208.41
-185.05
-143.05
-85.23
-17.44
52.72
117.48
170.33
207.05
226.20
229.02
218.86
199.99
176.37
150.82
124.77
98.76
73.25
49.17
27.90
10.98
-0.50
-6.20
-6.62
-2.95
3.24
10.31
16.85
21.90
25.03
26.29
25.91
24.00
20.36
14.55
6.32
-4.11
-15.83
-27.40
-37.41
-45.04
-50.45
-54.75
-59.72
-67.33
-79.07
-95.25
-114.26
-132.26
-143.48
-141.51
-121.37
-81.56
-25.17
40.44
105.50
160.39
197.91
214.55
210.48
188.52
152.84
107.85
57.54
5.41
-45.28
-91.30
-129.40
-156.92
-172.49
-176.66
-171.82
-161.44
-148.82
-135.90
-122.86
-108.58
-91.70
-71.43
-47.94
-22.10
4.87
31.60
56.39
77.12
91.45
97.73
95.87
87.78
76.73
65.81
56.26
46.77
34.06
14.56
-14.00
-51.95
-97.89
-149.40
-203.21
-255.06
-299.45
-330.25
-342.21
-332.92
-304.01
-260.68
-209.60
-156.27
-103.54
-51.88
-1.20
47.13
89.60
121.56
139.17
141.00
128.35
104.29
72.13
34.34
-7.43
-51.54
-95.58
-136.25
-170.21
-195.22
-211.05
-219.30
-222.51
-223.03
-222.16
-220.13
-216.44
-210.54
-202.37
-192.35
-181.12
-169.11
-156.23
-141.78
-124.86
-104.87
-82.06
-57.92
-35.05
-16.60
-5.14
-1.45
-3.87
-8.53
-10.64
-6.17
6.60
26.64
50.86
75.69
98.47
118.26
135.67
152.07
168.79
186.94
207.55
231.53
259.20
289.41
318.95
343.09
356.99
357.74
345.72
324.68
300.09
277.02
258.34
244.16
232.78
222.03
210.59
198.12
184.91
171.03
155.90
138.55
118.14
94.60
68.81
42.43
17.19
-5.83
-26.54
-45.82
-64.95
-85.00
-106.45
-129.29
-153.33
-178.33
-203.66
-227.66
-247.29
-258.54
-257.61
-242.43
-213.53
-173.79
-127.00
-76.37
-23.88
29.18
80.98
128.24
166.67
192.43
203.77
201.86
190.30
173.49
155.20
137.73
122.10
108.80
98.43
91.72
89.12
90.31
94.00
98.34
101.43
101.89
99.01
92.75
83.49
71.71
57.94
42.71
26.50
9.77
-7.06
-23.63
-39.69
-55.10
-70.09
-85.45
-102.51
-122.49
-145.59
-169.94
-191.41
-204.44
-203.90
-186.90
-153.77
-107.68
-53.47
3.80
59.71
110.56
153.29
185.54
206.09
215.23
214.77
207.38
195.65
181.36
165.46
148.55
131.52
115.69
102.69
93.74
89.25
88.62
90.45
92.98
94.58
94.06
90.87
84.96
76.61
66.12
53.65
39.29
23.08
5.28
-13.57
-32.77
-51.61
-69.58
-86.46
-102.22
-117.02
-131.23
-145.61
-161.43
-179.98
-201.62
-224.75
-245.41
-258.00
-257.03
-239.14
-204.16
-154.98
-96.29
-33.15
29.86
88.67
139.48
178.90
204.59
216.22
215.78
206.94
193.75
179.22
164.74
150.47
136.19
122.09
109.06
98.31
90.84
86.97
86.28
87.74
89.96
91.53
91.20
88.13
81.89
72.55
60.60
46.80
31.98
16.87
1.91
-12.77
-27.32
-42.00
-57.04
-72.48
-88.15
-103.67
-118.57
-132.43
-144.99
-156.41
-167.50
-179.79
-194.96
-213.85
-235.29
-255.54
-268.86
-269.28
-252.75
-218.50
-169.04
-109.02
-43.67
22.16
84.12
138.17
180.63
208.83
222.10
222.21
212.82
198.18
181.58
164.75
148.18
132.07
117.14
104.73
96.34
92.75
93.56
97.34
102.13
106.11
108.06
107.50
104.50
99.30
92.08
82.92
71.89
59.19
45.34
31.02
16.94
3.54
-9.17
-21.55
-34.18
-47.51
-61.66
-76.35
-91.01
-105.16
-118.54
-131.23
-143.51
-155.63
-167.79
-180.33
-193.90
-209.48
-227.65
-247.62
-266.58
-279.77
-281.79
-268.46
-238.31
-192.90
-135.95
-71.96
-5.30
59.91
119.41
168.73
203.88
222.62
225.52
215.94
198.74
178.52
158.21
139.04
121.30
105.46
92.71
84.59
82.15
85.25
92.41
101.31
109.62
115.53
118.13
117.22
112.97
105.61
95.38
82.45
67.21
50.27
32.51
14.89
-1.75
-17.06
-31.10
-44.42
-57.65
-71.26
-85.30
-99.46
-113.18
-125.93
-137.34
-147.30
-156.05
-164.30
-173.34
-184.82
-199.97
-218.46
-237.56
-252.28
-256.58
-245.45
-216.57
-170.93
-112.18
-45.34
24.24
91.23
150.39
196.76
226.54
238.22
233.35
215.97
191.29
163.89
136.68
111.05
87.71
67.65
52.32
43.16
40.84
44.74
53.10
63.55
73.87
82.34
87.99
90.36
89.28
84.69
76.69
65.55
51.95
36.84
21.30
6.27
-7.77
-20.82
-33.37
-46.06
-59.47
-73.79
-88.85
-104.07
-118.68
-131.95
-143.37
-152.93
-161.32
-170.03
-180.95
-195.45
-213.30
-231.79
-245.97
-249.89
-238.64
-209.90
-164.58
-106.11
-39.36
30.41
97.85
157.60
204.52
234.57
246.10
240.52
221.95
195.84
167.11
139.00
112.99
89.68
69.67
54.05
44.08
40.48
42.95
50.07
59.80
69.97
78.73
84.79
87.37
86.06
80.77
71.72
59.44
44.80
28.90
12.80
-2.71
-17.30
-31.20
-45.00
-59.30
-74.45
-90.31
-106.23
-121.26
-134.49
-145.43
-154.30
-162.27
-171.24
-183.29
-199.54
-219.09
-238.48
-252.18
-254.14
-239.78
-207.34
-158.32
-96.86
-28.70
39.82
102.40
153.38
188.39
205.28
204.67
189.82
165.57
136.72
106.86
77.84
50.49
25.44
3.85
-12.67
-22.67
-25.66
-22.47
-15.13
-6.37
1.08
5.12
4.58
-0.84
-10.75
-24.36
-40.75
-59.02
-78.50
-98.91
-120.45
-143.67
-169.03
-196.16
-223.28
-247.20
-263.93
-270.07
-264.07
-247.02
-222.49
-195.62
-171.60
-154.25
-144.89
-141.88
-141.07
-136.93
-124.03
-98.60
-59.53
-8.70
49.54
109.48
165.45
213.08
250.13
276.81
295.27
308.63
319.61
329.50
337.68
341.96
339.59
328.33
307.24
276.87
239.11
196.72
152.95
110.95
73.39
41.88
16.78
-2.75
-18.45
-32.18
-45.54
-59.40
-74.07
-89.45
-105.31
-121.40
-137.36
-152.67
-166.63
-178.58
-188.19
-195.74
-202.09
-208.35
-215.49
-224.10
-234.29
-245.72
-257.60
-268.44
-275.91
-277.09
-269.11
-250.16
-220.30
-181.54
-137.04
-89.78
-41.54
7.29
56.78
106.25
153.39
194.55
225.89
244.86
251.13
246.58
234.37
217.91
200.02
182.77
167.60
155.64
147.62
143.63
142.93
143.91
144.58
143.13
138.51
130.58
119.88
107.22
93.10
77.57
60.32
41.03
19.79
-2.78
-25.66
-47.80
-68.48
-87.54
-105.38
-122.86
-141.02
-160.66
-181.78
-202.93
-221.08
-231.99
-231.49
-216.78
-187.44
-145.43
-94.34
-38.31
18.74
73.23
121.90
161.82
190.89
208.45
215.61
214.88
209.19
201.00
191.78
182.28
172.92
164.16
156.41
149.75
143.71
137.45
130.11
121.22
110.78
99.00
86.06
71.98
56.81
40.94
25.28
11.02
-0.79
-9.74
-16.26
-21.35
-26.07
-31.05
-36.27
-41.16
-44.63
-45.13
-40.53
-28.29
-5.88
28.31
74.09
128.92
188.12
245.76
295.96
334.01
357.06
364.17
355.94
334.12
301.26
260.43
214.99
168.08
122.03
77.80
34.71
-9.25
-56.23
-107.03
-159.89
-210.13
-251.04
-275.57
-278.21
-256.40
-211.09
-146.53
-69.42
12.20
90.48
159.09
214.34
255.57
284.57
304.22
317.08
324.39
326.09
321.59
310.79
294.56
274.60
252.71
230.19
207.58
184.90
162.13
139.58
117.79
97.30
78.26
60.22
42.28
23.55
3.44
-18.04
-40.41
-62.93
-85.02
-106.39
-127.04
-147.08
-166.37
-184.38
-200.14
-212.51
-220.53
-223.87
-222.89
-218.59
-212.20
-204.78
-197.10
-189.56
-182.42
-175.84
-169.94
-164.64
-159.58
-154.29
-148.39
-141.93
-135.53
-130.09
-126.52
-125.21
-125.90
-127.73
-129.56
-130.22
-128.79
-124.64
-117.53
-107.62
-95.53
-82.27
-69.11
-57.22
-47.44
-40.07
-34.95
-31.69
-29.89
-29.21
-29.39
-30.15
-31.18
-32.16
-32.97
-33.74
-34.76
-36.31
-38.46
-41.03
-43.64
-45.86
-47.48
-48.48
-49.03
-49.39
-49.82
-50.42
-51.17
-51.92
-52.49
-52.80
-52.91
-53.02
-53.36
-54.10
-55.22
-56.57
-57.87
-58.78
-58.90
-57.79
-55.01
-50.31
-43.81
-36.02
-27.78
-20.06
-13.57
-8.70
-5.45
-3.58
-2.82
-2.93
-3.72
-5.00
-6.49
-7.89
-8.96
-9.56
-9.79
-9.83
-9.89
-10.09
-10.47
-11.01
-11.66
-12.42
-13.32
-14.42
-15.74
-17.23
-18.83
-20.44
-21.95
-23.25
-24.22
-24.83
-25.17
-25.48
-26.10
-27.26
-28.97
-30.87
-32.38
-32.82
-31.65
-28.64
-23.94
-18.00
-11.45
-4.99
0.76
5.32
8.45
10.17
10.69
10.34
9.46
8.29
7.00
5.69
4.50
3.59
3.12
3.16
3.65
4.30
4.73
4.59
3.65
1.99
-0.10
-2.20
-3.96
-5.21
-6.05
-6.76
-7.67
-9.02
-10.90
-13.24
-15.84
-18.47
-20.86
-22.81
-24.17
-24.98
-25.38
-25.63
-25.98
-26.56
-27.29
-27.87
-27.78
-26.43
-23.32
-18.25
-11.40
-3.29
5.33
13.73
21.31
27.56
32.09
34.54
34.66
32.50
28.43
23.21
17.75
12.84
8.93
6.12
4.23
3.01
2.27
1.86
1.66
1.54
1.33
0.92
0.26
-0.66
-1.80
-3.14
-4.64
-6.25
-7.83
-9.27
-10.50
-11.53
-12.52
-13.61
-14.90
-16.35
-17.82
-19.07
-19.99
-20.60
-21.13
-21.89
-23.11
-24.69
-26.18
-26.86
-25.97
-23.02
-17.99
-11.31
-3.68
4.09
11.30
17.41
22.00
24.85
25.88
25.25
23.29
20.47
17.23
13.98
10.98
8.36
6.15
4.26
2.61
1.11
-0.29
-1.53
-2.50
-3.13
-3.42
-3.52
-3.64
-3.97
-4.67
-5.79
-7.30
-9.11
-11.06
-12.97
-14.67
-16.08
-17.21
-18.19
-19.18
-20.36
-21.87
-23.73
-25.82
-27.78
-29.00
-28.72
-26.23
-21.19
-13.77
-4.72
4.85
13.76
21.05
26.25
29.30
30.52
30.33
29.12
27.19
24.72
21.78
18.51
15.06
11.74
8.82
6.52
4.92
3.92
3.33
2.95
2.62
2.24
1.72
1.04
0.16
-0.86
-1.94
-2.99
-4.00
-5.06
-6.31
-7.94
-9.97
-12.33
-14.80
-17.13
-19.11
-20.66
-21.83
-22.84
-23.96
-25.46
-27.52
-29.90
-32.02
-32.94
-31.60
-27.23
-19.63
-9.30
2.62
14.65
25.35
33.62
38.95
41.37
41.38
39.65
36.86
33.48
29.81
25.98
22.08
18.18
14.46
11.06
8.13
5.78
4.12
3.18
2.93
3.21
3.73
4.18
4.27
3.86
2.92
1.57
-0.05
-1.75
-3.38
-4.84
-6.08
-7.11
-8.02
-8.93
-9.94
-11.06
-12.21
-13.27
-14.20
-15.12
-16.33
-18.13
-20.60
-23.40
-25.72
-26.49
-24.73
-19.93
-12.30
-2.70
7.60
17.32
25.49
31.56
35.40
37.10
36.92
35.17
32.25
28.62
24.69
20.85
17.33
14.21
11.51
9.22
7.34
5.85
4.71
3.79
2.94
2.02
0.94
-0.28
-1.54
-2.72
-3.70
-4.44
-5.07
-5.76
-6.76
-8.19
-9.98
-11.87
-13.52
-14.65
-15.11
-15.04
-14.68
-14.39
-14.53
-15.33
-16.87
-18.88
-20.76
-21.57
-20.37
-16.57
-10.21
-2.08
6.56
14.41
20.53
24.58
26.71
27.31
26.75
25.22
22.79
19.62
15.94
12.16
8.69
5.86
3.80
2.40
1.48
0.85
0.38
-0.01
-0.35
-0.64
-0.96
-1.33
-1.76
-2.29
-2.93
-3.72
-4.74
-6.04
-7.62
-9.39
-11.17
-12.76
-14.00
-14.87
-15.49
-16.12
-17.06
-18.56
-20.65
-23.01
-24.98
-25.65
-24.12
-19.86
-12.90
-3.91
6.00
15.54
23.67
29.76
33.66
35.56
35.76
34.56
32.21
28.96
25.11
21.05
17.16
13.73
10.93
8.78
7.19
6.03
5.21
4.70
4.51
4.61
4.87
5.01
4.74
3.78
2.05
-0.25
-2.77
-5.12
-7.08
-8.63
-9.93
-11.19
-12.51
-13.87
-15.18
-16.27
-17.03
-17.41
-17.46
-17.41
-17.62
-18.52
-20.39
-23.19
-26.36
-28.91
-29.64
-27.52
-22.07
-13.54
-2.88
8.59
19.45
28.58
35.29
39.35
40.90
40.37
38.24
35.01
31.13
26.94
22.69
18.62
14.89
11.71
9.26
7.63
6.79
6.56
6.71
7.04
7.41
7.78
8.15
8.44
8.53
8.19
7.26
5.70
3.71
1.60
-0.32
-1.86
-3.06
-4.09
-5.25
-6.73
-8.61
-10.78
-12.96
-14.87
-16.26
-17.07
-17.41
-17.63
-18.14
-19.33
-21.31
-23.81
-26.15
-27.36
-26.44
-22.67
-15.86
-6.45
4.47
15.48
25.18
32.52
37.01
38.74
38.24
36.16
33.05
29.30
25.15
20.86
16.72
13.08
10.26
8.36
7.24
6.62
6.17
5.66
5.05
4.42
3.86
3.43
3.05
2.58
1.91
0.95
-0.26
-1.64
-2.97
-4.04
-4.69
-4.89
-4.86
-4.95
-5.51
-6.76
-8.59
-10.66
-12.57
-13.97
-14.77
-15.11
-15.27
-15.55
-16.20
-17.43
-19.24
-21.43
-23.47
-24.56
-23.80
-20.53
-14.60
-6.57
2.49
11.30
18.80
24.35
27.80
29.31
29.16
27.58
24.82
21.19
17.16
13.31
10.19
8.14
7.19
7.11
7.47
7.88
8.07
7.93
7.46
6.76
5.88
4.83
3.60
2.10
0.33
-1.66
-3.72
-5.66
-7.26
-8.49
-9.46
-10.45
-11.70
-13.36
-15.29
-17.17
-18.71
-19.73
-20.33
-20.85
-21.68
-23.11
-25.12
-27.38
-29.22
-29.82
-28.35
-24.22
-17.25
-7.80
3.18
14.41
24.50
32.37
37.44
39.76
39.82
38.27
35.72
32.52
28.86
24.84
20.66
16.69
13.36
11.01
9.75
9.38
9.51
9.70
9.66
9.33
8.82
8.31
7.91
7.55
7.04
6.13
4.68
2.72
0.45
-1.80
-3.77
-5.25
-6.26
-6.94
-7.60
-8.54
-9.99
-12.04
-14.57
-17.29
-19.83
-21.87
-23.30
-24.16
-24.74
-25.36
-26.45
-28.27
-30.93
-34.18
-37.31
-39.16
-38.37
-33.87
-25.26
-13.22
0.77
14.70
26.70
35.59
40.98
43.23
43.07
41.29
38.43
34.88
30.86
26.62
22.52
18.97
16.33
14.77
14.20
14.39
15.05
15.96
17.00
18.14
19.25
20.13
20.48
20.08
18.85
16.92
14.53
11.93
9.34
6.79
4.30
1.89
-0.38
-2.42
-4.17
-5.63
-6.90
-8.13
-9.49
-11.10
-12.97
-15.00
-17.03
-18.81
-20.19
-21.16
-21.81
-22.41
-23.23
-24.54
-26.50
-28.94
-31.36
-32.92
-32.52
-29.22
-22.61
-12.96
-1.31
10.82
21.89
30.72
36.69
39.76
40.29
38.82
35.88
31.97
27.53
22.97
18.68
14.96
12.00
9.79
8.21
7.07
6.24
5.67
5.39
5.41
5.65
5.93
6.04
5.76
4.98
3.72
2.01
-0.04
-2.33
-4.65
-6.82
-8.61
-9.89
-10.73
-11.32
-11.96
-12.88
-14.13
-15.52
-16.79
-17.68
-18.10
-18.17
-18.12
-18.25
-18.80
-19.92
-21.65
-23.80
-25.91
-27.23
-26.87
-24.08
-18.48
-10.35
-0.57
9.59
18.90
26.43
31.71
34.72
35.67
34.86
32.58
29.17
25.05
20.68
16.54
13.01
10.30
8.42
7.25
6.56
6.12
5.71
5.19
4.55
3.86
3.25
2.84
2.61
2.40
1.96
1.01
-0.51
-2.53
-4.75
-6.82
-8.50
-9.78
-10.84
-11.99
-13.50
-15.41
-17.57
-19.59
-21.09
-21.85
-21.95
-21.78
-21.89
-22.84
-24.95
-28.12
-31.81
-35.06
-36.70
-35.60
-31.08
-23.04
-12.12
0.45
13.14
24.50
33.48
39.49
42.54
43.00
41.50
38.68
35.19
31.49
27.94
24.74
21.95
19.59
17.61
15.99
14.73
13.85
13.39
13.30
13.48
13.75
13.89
13.72
13.08
11.92
10.21
8.01
5.47
2.77
0.15
-2.26
-4.42
-6.41
-8.33
-10.23
-12.09
-13.84
-15.40
-16.80
-18.15
-19.55
-20.98
-22.34
-23.44
-24.20
-24.74
-25.46
-26.82
-29.20
-32.47
-35.96
-38.40
-38.29
-34.39
-26.21
-14.19
0.30
15.39
29.23
40.37
48.05
52.22
53.26
51.85
48.65
44.24
39.16
33.88
28.78
24.20
20.37
17.35
15.09
13.47
12.36
11.70
11.40
11.38
11.48
11.53
11.32
10.74
9.73
8.29
6.49
4.38
2.04
-0.43
-2.91
-5.31
-7.49
-9.37
-10.90
-12.09
-13.02
-13.81
-14.63
-15.58
-16.68
-17.83
-18.88
-19.66
-20.09
-20.17
-20.05
-19.97
-20.22
-21.05
-22.59
-24.70
-26.93
-28.46
-28.37
-25.89
-20.67
-13.03
-3.85
5.65
14.24
21.01
25.48
27.65
27.87
26.68
24.63
22.14
19.47
16.70
13.84
10.97
8.24
5.90
4.24
3.40
3.41
4.20
5.56
7.28
9.08
10.61
11.53
11.63
10.84
9.37
7.61
5.97
4.77
4.08
3.74
3.50
3.05
2.21
0.87
-0.94
-3.04
-5.19
-7.09
-8.47
-9.27
-9.62
-9.86
-10.36
-11.37
-12.93
-14.81
-16.74
-18.43
-19.79
-20.81
-21.54
-22.04
-22.40
-22.75
-23.33
-24.43
-26.18
-28.41
-30.52
-31.54
-30.40
-26.31
-19.08
-9.27
1.92
13.05
22.82
30.39
35.47
38.21
38.98
38.16
36.05
32.93
29.07
24.83
20.61
16.81
13.70
11.42
9.93
9.10
8.73
8.70
8.91
9.32
9.89
10.44
10.77
10.57
9.66
8.01
5.81
3.31
0.80
-1.52
-3.63
-5.54
-7.29
-8.88
-10.26
-11.40
-12.28
-12.96
-13.51
-13.96
-14.40
-14.87
-15.49
-16.41
-17.71
-19.38
-21.27
-23.13
-24.73
-26.07
-27.34
-28.99
-31.48
-35.13
-39.92
-45.45
-50.89
-55.06
-56.73
-54.90
-49.14
-39.83
-28.20
-16.11
-5.54
1.88
5.31
4.69
0.72
-5.62
-13.42
-22.08
-31.38
-41.37
-52.13
-63.66
-75.78
-88.15
-100.40
-112.24
-123.57
-134.51
-145.38
-156.83
-169.76
-185.24
-204.25
-227.17
-253.30
-280.72
-306.62
-328.04
-342.68
-349.45
-348.44
-340.62
-327.25
-309.61
-288.89
-266.42
-243.54
-221.55
-201.37
-183.27
-167.03
-152.07
-137.93
-124.41
-111.63
-99.84
-89.26
-79.90
-71.63
-64.16
-57.24
-50.68
-44.42
-38.53
-33.16
-28.47
-24.53
-21.36
-18.88
-16.95
-15.47
-14.31
-13.37
-12.57
-11.79
-10.91
-9.81
-8.36
-6.48
-4.15
-1.38
1.80
5.34
9.24
13.47
17.99
22.73
27.57
32.37
36.98
41.31
45.30
48.98
52.37
55.54
58.52
61.30
63.85
66.13
68.14
69.90
71.50
73.02
74.52
75.94
77.19
78.07
78.50
78.49
78.24
78.12
78.55
79.86
82.08
84.97
88.04
90.84
93.14
95.08
97.17
100.07
104.28
109.89
116.48
123.33
129.71
135.32
140.48
146.11
153.33
163.10
175.74
190.91
207.85
225.72
244.07
263.02
283.29
306.16
333.44
367.17
408.82
458.00
511.30
562.11
601.93
622.85
620.29
594.42
549.74
492.93
430.39
366.55
303.84
243.67
187.60
137.68
95.78
62.58
36.92
16.11
-3.21
-23.89
-47.83
-75.89
-108.23
-144.56
-183.81
-223.68
-260.15
-288.13
-302.59
-300.28
-280.93
-247.24
-203.70
-154.75
-103.45
-51.27
1.00
52.03
99.25
139.29
169.08
187.01
193.49
190.50
180.74
166.84
150.98
134.94
120.41
109.08
102.30
100.68
103.67
109.65
116.30
121.31
122.94
120.43
113.96
104.35
92.65
79.76
66.20
52.20
37.79
22.87
7.42
-8.59
-25.11
-42.04
-59.18
-76.19
-92.68
-108.22
-122.43
-135.08
-146.23
-156.50
-167.18
-180.07
-196.77
-217.57
-240.48
-260.99
-273.09
-271.07
-251.48
-214.19
-162.37
-101.42
-37.53
23.39
76.35
117.67
145.27
158.94
160.43
152.94
140.19
125.34
110.40
96.25
83.21
71.65
62.20
55.61
52.38
52.38
54.90
58.78
62.69
65.36
65.78
63.22
57.31
48.09
35.94
21.61
6.14
-9.25
-23.34
-35.15
-44.20
-50.58
-55.03
-58.69
-62.88
-68.87
-77.75
-90.52
-108.00
-130.59
-157.65
-186.82
-213.74
-232.71
-238.01
-225.66
-194.59
-147.13
-88.40
-25.06
36.12
89.42
130.98
159.05
173.99
177.76
173.20
163.16
149.94
135.11
119.70
104.59
90.82
79.40
71.04
65.95
63.75
63.79
65.31
67.63
70.01
71.61
71.41
68.36
61.71
51.33
37.87
22.51
6.68
-8.48
-22.46
-35.44
-48.06
-61.02
-74.76
-89.25
-104.07
-118.50
-131.84
-143.54
-153.48
-162.10
-170.58
-180.71
-194.17
-211.57
-231.37
-249.63
-260.77
-259.27
-241.57
-207.13
-158.39
-99.84
-36.79
25.53
82.39
129.77
164.80
186.28
195.09
193.98
186.60
176.25
165.02
153.68
142.34
131.21
121.02
112.90
107.86
106.29
107.78
111.31
115.62
119.47
121.89
122.15
119.79
114.63
106.75
96.48
84.34
70.96
56.92
42.71
28.63
14.87
1.51
-11.39
-23.89
-36.05
-48.11
-60.27
-72.74
-85.55
-98.57
-111.47
-123.84
-135.31
-145.72
-155.35
-165.09
-176.48
-191.24
-210.36
-232.98
-255.67
-272.85
-278.24
-266.83
-236.54
-188.74
-127.76
-59.65
8.99
71.88
123.63
160.41
180.58
185.17
177.62
162.72
145.09
128.03
113.02
100.34
89.85
81.62
76.11
73.73
74.49
77.87
82.91
88.52
93.67
97.54
99.45
98.87
95.50
89.15
79.94
68.13
54.23
38.92
22.97
7.14
-7.86
-21.62
-34.10
-45.65
-56.86
-68.32
-80.33
-92.77
-105.12
-116.67
-126.84
-135.44
-142.67
-149.26
-156.38
-165.53
-178.07
-194.53
-213.60
-231.70
-243.54
-243.45
-227.20
-193.45
-144.06
-83.40
-17.20
48.68
108.95
159.31
196.79
220.06
229.65
227.67
217.07
200.76
181.00
159.39
137.34
116.58
99.09
86.73
80.55
80.35
84.80
91.86
99.38
105.62
109.47
110.47
108.63
104.26
97.77
89.49
79.66
68.35
55.60
41.42
26.04
9.90
-6.38
-22.13
-36.88
-50.50
-63.25
-75.66
-88.30
-101.50
-115.28
-129.31
-143.22
-156.62
-169.37
-181.43
-192.90
-204.08
-215.67
-228.77
-244.43
-262.70
-281.70
-297.36
-304.20
-297.15
-273.35
-233.17
-179.67
-117.28
-50.42
16.93
80.83
136.83
180.18
207.08
216.16
209.34
191.15
166.99
141.26
116.32
92.88
71.00
51.06
34.09
21.16
12.73
8.17
5.96
4.32
1.81
-2.43
-8.61
-16.79
-27.42
-41.55
-60.50
-85.13
-114.78
-146.64
-175.93
-197.06
-205.25
-198.01
-175.67
-140.99
-98.12
-51.62
-5.69
36.02
70.63
96.18
111.88
118.30
116.96
109.89
98.89
85.30
70.00
53.74
37.20
20.92
4.93
-11.41
-29.16
-48.95
-70.04
-89.71
-103.44
-106.10
-93.67
-64.82
-21.82
29.91
83.22
131.22
168.97
194.22
207.20
209.65
203.85
191.80
175.05
154.93
132.76
110.05
88.41
69.27
53.57
41.74
33.68
29.03
27.43
28.60
32.25
37.87
44.50
50.71
54.88
55.63
52.34
45.44
36.24
26.44
17.51
10.27
4.58
-0.38
-5.63
-11.92
-19.33
-27.26
-34.71
-40.73
-44.82
-47.17
-48.57
-50.14
-52.90
-57.58
-64.38
-73.09
-83.24
-94.30
-105.89
-117.94
-130.84
-145.38
-162.33
-181.81
-202.54
-221.58
-234.77
-237.86
-227.92
-204.33
-169.03
-125.79
-79.08
-32.98
9.44
46.12
75.86
98.02
112.46
119.53
120.06
115.23
106.39
94.90
82.02
68.83
56.23
44.91
35.41
28.06
23.11
20.65
20.56
22.43
25.53
28.88
31.39
32.09
30.38
26.24
20.32
13.82
8.17
4.48
3.02
3.03
2.85
0.54
-5.30
-14.95
-27.41
-40.78
-53.04
-62.79
-69.67
-74.31
-78.08
-82.79
-90.32
-102.39
-119.92
-142.26
-166.50
-187.56
-199.20
-196.07
-175.63
-139.40
-92.54
-42.23
4.71
43.52
72.20
91.06
101.57
105.52
104.45
99.73
92.69
84.66
76.74
69.64
63.56
58.46
54.31
51.43
50.51
52.31
57.31
65.32
75.38
85.99
95.45
102.47
106.43
107.54
106.57
104.55
102.31
100.25
98.24
95.75
92.09
86.62
78.93
68.81
56.25
41.30
24.09
4.84
-16.09
-38.17
-60.82
-83.51
-105.91
-127.89
-149.51
-170.88
-192.18
-213.74
-235.94
-258.92
-281.97
-302.95
-318.38
-324.20
-317.18
-296.14
-262.49
-219.44
-170.65
-118.82
-65.44
-11.60
40.94
89.02
128.66
156.50
171.31
174.55
169.77
161.01
151.37
142.38
134.28
126.94
120.70
116.43
115.14
117.31
122.36
128.83
134.85
138.77
139.60
137.30
132.49
126.04
118.74
110.99
102.76
93.76
83.64
72.30
59.99
47.24
34.74
22.98
12.14
2.02
-7.81
-17.79
-28.16
-38.93
-49.93
-60.90
-71.70
-82.31
-92.85
-103.54
-114.72
-126.92
-140.90
-157.56
-177.41
-199.90
-222.82
-242.22
-253.32
-251.81
-235.26
-203.86
-160.16
-108.22
-52.66
2.09
52.01
93.68
124.56
143.49
150.97
149.09
140.87
129.32
116.76
104.64
93.75
84.69
78.01
74.21
73.54
75.76
80.19
85.82
91.52
96.22
99.02
99.27
96.57
90.81
82.19
71.15
58.39
44.68
30.71
16.86
3.19
-10.57
-24.77
-39.58
-54.87
-70.18
-84.83
-98.14
-109.64
-119.20
-127.26
-134.85
-143.47
-154.64
-169.09
-185.90
-202.12
-213.26
-214.59
-202.71
-176.58
-137.74
-89.50
-35.88
19.09
71.62
118.11
155.30
180.72
193.45
194.46
186.35
172.46
155.89
138.93
123.08
109.47
99.16
93.07
91.67
94.62
100.74
108.35
115.77
121.80
125.78
127.50
126.87
123.76
117.98
109.51
98.64
86.18
73.24
60.91
49.85
40.02
30.72
20.91
9.59
-3.74
-18.93
-35.20
-51.49
-66.77
-80.44
-92.59
-104.03
-116.31
-131.31
-150.54
-174.23
-200.52
-225.25
-242.76
-247.37
-235.09
-204.94
-159.29
-103.19
-43.17
14.30
63.88
102.08
127.50
140.76
143.99
140.19
132.39
123.05
113.77
105.42
98.37
92.94
89.40
87.91
88.42
90.68
94.34
98.97
104.18
109.52
114.35
117.89
119.20
117.54
112.57
104.50
94.15
82.69
71.29
60.75
51.29
42.58
33.94
24.67
14.39
3.24
-8.18
-19.00
-28.49
-36.39
-43.04
-49.32
-56.32
-64.92
-75.41
-87.42
-100.00
-112.03
-122.56
-131.21
-138.34
-145.06
-153.03
-163.99
-178.92
-197.19
-215.94
-230.42
-235.05
-225.06
-198.05
-154.80
-99.17
-37.11
24.70
80.13
124.63
155.77
173.32
178.97
175.63
166.56
154.60
141.73
129.11
117.48
107.45
99.68
94.64
92.47
92.88
95.25
98.86
103.01
107.07
110.40
112.33
112.22
109.62
104.43
96.99
87.98
78.20
68.37
58.97
50.19
42.02
34.36
27.09
20.17
13.53
7.08
0.68
-5.70
-12.02
-18.03
-23.51
-28.33
-32.67
-36.98
-41.94
-48.11
-55.76
-64.76
-74.65
-84.86
-95.03
-105.06
-115.12
-125.55
-136.83
-149.66
-165.04
-183.94
-206.54
-231.43
-255.02
-271.99
-276.74
-265.26
-236.47
-192.35
-137.00
-75.22
-11.54
49.99
105.51
151.36
184.56
203.80
210.04
206.28
196.49
184.24
171.87
160.48
150.57
142.65
137.44
135.40
136.21
138.55
140.56
140.57
137.82
132.66
126.24
119.71
113.49
106.93
98.52
86.56
69.98
49.01
25.48
2.71
-15.03
-23.75
-21.17
-8.16
10.82
28.63
37.82
33.43
14.93
-13.70
-45.84
-75.11
-97.78
-113.70
-125.58
-137.38
-152.62
-173.23
-198.99
-227.46
-254.27
-273.82
-280.66
-271.06
-244.35
-203.34
-153.52
-101.52
-53.43
-13.70
15.24
32.84
40.03
38.89
32.18
22.82
13.17
4.43
-3.47
-11.39
-20.08
-29.26
-37.23
-41.20
-38.27
-26.53
-5.84
22.01
53.85
85.93
114.80
137.93
153.96
162.62
164.58
160.99
153.23
142.57
130.03
116.46
102.56
89.08
76.82
66.31
57.64
50.14
42.52
33.21
21.05
5.81
-11.66
-29.57
-45.90
-59.10
-68.65
-75.29
-80.86
-87.75
-98.20
-113.27
-132.06
-151.27
-165.58
-169.08
-157.02
-127.61
-82.78
-27.75
30.57
85.40
131.61
166.26
188.40
198.43
197.56
187.56
170.62
149.26
125.96
102.86
81.49
62.68
46.79
33.92
24.09
17.25
13.20
11.42
11.16
11.47
11.52
10.66
8.59
5.21
0.56
-5.36
-12.60
-21.27
-31.51
-43.30
-56.20
-69.07
-79.91
-86.00
-84.58
-73.80
-53.72
-26.92
1.87
26.85
42.77
46.37
37.12
17.03
-10.22
-40.41
-69.79
-95.76
-117.03
-133.80
-147.63
-161.11
-177.11
-197.55
-222.02
-247.13
-266.89
-274.40
-264.18
-234.07
-186.06
-125.66
-60.23
3.00
58.33
102.34
133.81
153.29
162.53
163.88
159.76
152.23
142.71
132.04
120.69
109.03
97.49
86.54
76.64
68.17
61.40
56.54
53.57
52.25
51.95
51.69
50.30
46.66
40.12
30.57
18.57
5.23
-8.18
-20.59
-31.44
-40.90
-49.76
-59.03
-69.49
-81.24
-93.67
-105.61
-115.89
-123.81
-129.44
-133.65
-137.92
-143.99
-153.25
-166.15
-181.53
-196.31
-205.85
-204.94
-189.41
-157.55
-111.01
-54.54
5.17
61.22
108.11
142.68
164.23
173.99
174.28
167.72
156.63
142.90
128.00
113.15
99.42
87.69
78.55
72.25
68.70
67.61
68.61
71.27
75.04
79.23
82.97
85.30
85.47
83.06
78.20
71.36
63.19
54.28
44.97
35.28
25.07
14.23
2.83
-8.83
-20.26
-31.05
-41.09
-50.62
-60.20
-70.38
-81.51
-93.41
-105.50
-116.98
-127.13
-135.75
-143.39
-151.30
-161.22
-174.62
-191.83
-211.18
-228.83
-239.36
-237.24
-218.57
-182.41
-131.41
-71.14
-8.72
48.93
96.51
131.10
152.21
161.27
160.86
153.98
143.44
131.51
119.88
109.64
101.42
95.41
91.47
89.16
88.02
87.68
88.01
89.03
90.83
93.23
95.63
97.09
96.49
92.95
86.20
76.72
65.55
53.97
43.00
33.13
24.16
15.49
6.38
-3.59
-14.42
-25.57
-36.25
-45.73
-53.63
-60.15
-66.02
-72.23
-79.65
-88.61
-98.80
-109.35
-119.23
-127.68
-134.51
-140.31
-146.41
-154.48
-166.04
-181.61
-199.83
-217.26
-228.83
-229.15
-214.05
-182.05
-134.89
-77.23
-15.54
43.36
93.67
131.53
155.54
166.57
167.22
160.78
150.33
138.08
125.33
112.76
101.04
90.99
83.58
79.51
78.93
81.33
85.78
91.19
96.50
100.88
103.71
104.51
102.97
98.93
92.41
83.57
72.73
60.32
46.94
33.26
20.01
7.81
-3.03
-12.57
-21.33
-30.10
-39.61
-50.26
-61.91
-73.97
-85.58
-95.98
-104.82
-112.36
-119.49
-127.55
-138.09
-152.33
-170.48
-190.97
-210.19
-222.96
-223.72
-208.31
-175.39
-127.20
-69.04
-7.91
49.25
97.09
132.63
155.30
166.41
168.44
164.30
156.69
147.74
138.84
130.63
123.28
116.72
110.95
106.05
102.30
100.04
99.49
100.65
103.18
106.36
109.23
110.68
109.81
106.15
99.87
91.65
82.47
73.18
64.20
55.42
46.40
36.81
26.69
16.62
7.43
-0.29
-6.49
-11.84
-17.47
-24.42
-33.06
-42.90
-52.63
-60.73
-66.21
-69.23
-71.33
-75.05
-82.98
-96.61
-115.32
-135.98
-153.56
-162.37
-157.49
-136.06
-98.05
-46.70
11.61
68.07
113.04
138.21
138.79
114.78
70.53
12.73
-52.15
-119.72
-187.57
-253.75
-314.80
-365.07
-397.85
-408.05
-394.41
-360.18
-311.63
-255.42
-196.47
-137.29
-78.85
-22.30
29.96
74.48
108.02
129.00
138.15
138.11
132.22
123.29
112.95
101.79
89.93
77.64
65.59
54.73
45.91
39.55
35.36
32.48
29.72
25.99
20.72
13.96
6.35
-1.23
-8.10
-14.17
-20.15
-27.52
-38.23
-54.02
-75.54
-101.48
-128.25
-150.52
-162.59
-160.08
-141.27
-107.46
-62.40
-11.22
40.74
88.68
128.72
158.27
176.18
182.93
180.44
171.46
158.73
144.36
129.72
115.74
103.39
93.84
88.17
86.99
89.95
95.82
102.81
109.10
113.24
114.49
112.73
108.34
101.90
93.98
84.88
74.64
63.07
50.01
35.48
19.82
3.75
-11.88
-26.35
-39.31
-51.03
-62.38
-74.73
-89.52
-107.64
-128.67
-150.30
-168.38
-177.66
-173.31
-152.56
-115.91
-67.23
-12.81
40.41
86.64
122.37
146.61
160.30
165.44
164.26
158.81
150.68
141.09
130.99
121.15
112.20
104.68
98.96
95.20
93.36
93.18
94.28
96.32
98.96
101.76
104.04
104.81
102.93
97.55
88.45
76.37
62.77
49.40
37.58
27.77
19.31
10.76
0.56
-12.35
-27.96
-45.26
-62.57
-78.22
-91.14
-101.30
-109.65
-117.85
-127.86
-141.38
-159.27
-180.78
-203.14
-221.56
-230.16
-223.63
-199.16
-157.81
-104.49
-46.59
8.24
54.23
88.61
111.52
124.94
131.41
133.18
131.87
128.56
124.09
119.16
114.33
110.04
106.51
103.89
102.25
101.70
102.31
104.11
106.99
110.68
114.64
118.11
120.25
120.42
118.43
114.80
110.59
107.08
105.28
105.55
107.55
110.52
113.57
115.88
116.53
114.20
107.03
92.98
70.66
40.32
4.36
-33.04
-67.17
-94.49
-113.88
-126.82
-136.67
-147.14
-161.04
-179.49
-201.70
-225.15
-245.84
-258.70
-258.49
-241.13
-205.20
-153.00
-90.45
-25.66
33.38
80.90
114.38
134.38
143.37
144.38
140.11
132.54
123.13
112.85
102.42
92.27
82.60
73.58
65.52
58.96
54.62
53.07
54.47
58.26
63.23
67.72
70.13
69.44
65.41
58.58
49.91
40.26
30.11
19.41
7.87
-4.67
-17.97
-31.38
-44.08
-55.45
-65.34
-74.13
-82.49
-91.10
-100.29
-109.87
-119.28
-127.72
-134.58
-139.68
-143.37
-146.64
-150.99
-158.09
-169.27
-184.62
-202.28
-218.16
-226.60
-221.94
-200.53
-162.25
-110.84
-52.93
4.00
53.60
91.95
117.83
132.00
136.35
133.08
124.29
111.93
97.73
83.21
69.56
57.62
47.83
40.30
34.94
31.60
30.24
30.89
33.55
37.95
43.28
48.18
50.89
49.81
43.98
33.53
19.71
4.49
-10.16
-22.90
-33.49
-42.76
-52.08
-62.70
-75.05
-88.56
-101.90
-113.56
-122.54
-128.80
-133.31
-137.75
-144.11
-153.97
-167.81
-184.29
-199.88
-209.30
-206.78
-187.98
-151.66
-100.58
-40.91
19.55
73.57
116.15
145.25
161.28
166.25
162.78
153.44
140.56
126.05
111.38
97.52
84.95
73.90
64.48
56.91
51.53
48.69
48.52
50.73
54.60
59.01
62.69
64.48
63.55
59.57
52.72
43.54
32.71
20.89
8.54
-4.04
-16.60
-28.89
-40.56
-51.32
-61.02
-69.77
-77.95
-86.10
-94.63
-103.73
-113.21
-122.59
-131.23
-138.58
-144.35
-148.77
-152.75
-157.93
-166.23
-178.96
-195.67
-213.36
-226.65
-229.08
-215.15
-182.39
-132.35
-70.35
-3.95
59.05
112.36
152.09
176.90
187.66
186.72
177.34
162.95
146.57
130.36
115.51
102.43
91.12
81.54
73.77
68.09
64.80
64.06
65.76
69.41
74.16
78.83
82.13
82.91
80.43
74.55
65.69
54.71
42.57
30.04
17.57
5.27
-6.88
-18.86
-30.50
-41.55
-51.88
-61.55
-70.85
-80.11
-89.46
-98.75
-107.58
-115.46
-122.07
-127.37
-131.70
-135.78
-140.80
-148.29
-159.60
-175.03
-192.87
-209.05
-217.79
-213.15
-191.05
-150.73
-95.26
-30.71
35.42
95.90
145.14
179.92
199.44
205.09
199.74
186.97
170.19
152.01
134.06
117.09
101.60
88.04
77.05
69.25
65.04
64.40
66.82
71.40
77.01
82.52
86.86
89.14
88.74
85.29
78.80
69.49
57.83
44.40
29.84
14.78
-0.20
-14.59
-28.04
-40.35
-51.63
-62.14
-72.32
-82.50
-92.81
-103.08
-112.87
-121.63
-128.91
-134.58
-139.09
-143.51
-149.53
-158.93
-172.80
-190.45
-208.82
-222.69
-226.00
-213.60
-183.09
-135.69
-76.00
-10.83
52.48
107.57
150.02
177.77
190.96
191.59
182.75
167.82
149.81
130.84
112.19
94.63
78.79
65.42
55.22
48.78
46.26
47.44
51.67
57.92
64.95
71.31
75.53
76.30
72.77
64.76
52.87
38.28
22.44
6.61
-8.46
-22.61
-36.17
-49.70
-63.71
-78.35
-93.33
-107.91
-121.17
-132.42
-141.64
-149.88
-159.05
-171.15
-187.00
-205.05
-221.12
-229.42
-224.39
-202.72
-164.43
-112.63
-52.42
10.50
70.80
123.82
165.82
194.24
208.24
209.00
199.48
183.47
164.42
144.61
125.16
106.65
89.83
75.84
65.94
60.92
60.66
64.17
69.96
76.55
82.73
87.65
90.60
90.84
87.67
80.61
69.71
55.65
39.69
23.22
7.44
-7.02
-20.20
-32.61
-44.96
-57.79
-71.26
-85.12
-98.84
-111.76
-123.34
-133.30
-141.68
-149.00
-156.40
-165.48
-177.75
-193.66
-211.67
-227.93
-237.00
-233.59
-214.30
-178.73
-129.37
-70.59
-7.49
54.84
111.58
158.28
191.40
209.11
212.15
203.70
188.34
170.42
152.80
136.47
121.33
107.25
94.83
85.33
80.06
79.54
83.18
89.49
96.61
102.83
107.03
108.64
107.46
103.44
96.59
86.97
74.84
60.75
45.46
29.85
14.67
0.43
-12.76
-25.08
-36.93
-48.73
-60.76
-73.09
-85.49
-97.57
-108.83
-118.78
-127.18
-134.09
-140.04
-146.15
-154.02
-165.23
-180.52
-198.79
-216.62
-228.77
-229.62
-214.92
-183.15
-135.99
-77.64
-13.84
49.39
106.39
152.55
184.76
201.91
205.16
197.62
183.30
165.99
148.25
131.27
115.46
101.22
89.34
80.88
76.66
76.72
80.21
85.68
91.63
96.83
100.62
102.57
102.36
99.55
93.64
84.34
71.77
56.62
40.08
23.52
8.02
-5.87
-18.31
-30.04
-42.02
-54.98
-69.07
-83.78
-98.08
-110.82
-121.15
-128.88
-134.59
-139.70
-146.14
-155.85
-169.90
-187.58
-205.88
-219.80
-223.55
-212.25
-183.54
-138.45
-81.20
-18.17
43.64
98.00
140.50
168.94
183.40
185.69
178.70
165.56
148.97
130.96
112.91
95.97
81.22
69.70
62.16
58.80
59.25
62.72
68.25
74.87
81.58
87.27
90.74
90.71
86.28
77.25
64.33
48.99
32.97
17.72
3.86
-8.87
-21.38
-34.68
-49.29
-65.06
-81.10
-96.13
-108.98
-119.06
-126.71
-133.30
-140.98
-151.92
-167.23
-185.84
-204.10
-216.37
-216.57
-200.14
-165.68
-115.50
-55.12
8.24
67.38
116.58
152.45
174.09
182.80
181.27
172.77
160.28
145.96
131.11
116.44
102.56
90.30
80.59
74.28
71.70
72.65
76.36
81.80
87.85
93.48
97.76
99.87
99.17
95.26
88.04
77.84
65.23
51.02
36.07
21.13
6.77
-6.64
-18.99
-30.37
-41.09
-51.58
-62.25
-73.35
-84.81
-96.25
-107.08
-116.72
-124.82
-131.41
-137.01
-142.67
-149.87
-160.21
-174.69
-192.75
-211.65
-226.55
-231.59
-221.61
-193.90
-149.14
-91.37
-26.92
37.11
94.19
139.44
170.18
186.08
188.96
182.13
169.53
154.64
139.82
126.18
113.98
103.27
94.34
87.66
83.74
82.78
84.54
88.40
93.54
99.02
103.84
106.99
107.49
104.65
98.27
88.76
77.07
64.36
51.58
39.23
27.23
15.24
2.96
-9.58
-21.92
-33.45
-43.67
-52.62
-60.80
-69.02
-78.00
-87.96
-98.54
-108.88
-118.06
-125.48
-131.24
-136.21
-141.99
-150.51
-163.29
-180.44
-199.87
-217.18
-226.46
-221.92
-199.74
-159.50
-104.47
-40.93
23.50
81.59
127.91
159.66
176.63
180.70
174.96
162.82
147.27
130.50
113.95
98.62
85.38
74.99
67.89
64.12
63.20
64.42
67.09
70.71
74.93
79.35
83.13
85.06
83.74
78.06
67.75
53.54
37.06
20.30
4.94
-8.21
-19.41
-29.72
-40.44
-52.49
-65.92
-79.84
-92.82
-103.43
-110.86
-115.29
-117.90
-120.65
-125.82
-135.35
-149.94
-168.28
-186.67
-199.52
-200.65
-185.31
-151.93
-102.93
-44.29
16.20
71.12
115.17
145.96
163.71
170.30
168.23
159.84
147.07
131.56
114.80
98.28
83.44
71.45
63.00
58.16
56.55
57.51
60.37
64.64
69.90
75.63
80.96
84.62
85.12
81.26
72.53
59.45
43.54
26.82
11.19
-2.26
-13.62
-23.94
-34.73
-47.21
-61.73
-77.59
-93.33
-107.31
-118.36
-126.22
-131.76
-136.76
-143.52
-154.07
-169.19
-187.57
-205.45
-217.22
-216.87
-199.87
-164.80
-114.10
-53.49
9.53
67.55
114.93
148.61
168.17
175.21
172.56
163.31
150.21
135.34
120.10
105.47
92.28
81.28
73.11
68.13
66.26
67.11
70.08
74.47
79.58
84.65
88.83
91.26
91.09
87.74
80.97
70.93
58.18
43.63
28.35
13.49
-0.10
-12.03
-22.52
-32.34
-42.43
-53.55
-65.95
-79.24
-92.61
-105.07
-115.82
-124.48
-131.19
-136.70
-142.36
-149.94
-161.09
-176.53
-195.06
-213.13
-225.31
-225.64
-209.54
-175.35
-125.04
-63.78
1.34
63.04
115.23
154.00
177.88
187.73
186.09
176.40
162.02
145.67
129.06
113.20
98.79
86.54
77.23
71.47
69.51
71.05
75.34
81.28
87.61
93.20
97.09
98.63
97.43
93.36
86.43
76.80
64.79
50.92
35.93
20.70
6.06
-7.43
-19.60
-30.70
-41.29
-51.97
-63.21
-75.09
-87.32
-99.23
-109.99
-118.92
-125.74
-130.83
-135.31
-140.95
-149.72
-163.03
-180.80
-200.70
-218.16
-227.22
-222.20
-199.52
-159.03
-104.28
-41.65
21.28
77.49
121.94
152.16
168.19
171.91
166.23
154.19
138.46
121.10
103.70
87.63
74.18
64.50
59.24
58.42
61.30
66.76
73.55
80.63
87.29
92.96
96.98
98.53
96.70
90.81
80.72
67.03
50.99
34.19
18.10
3.65
-8.98
-20.29
-31.23
-42.75
-55.44
-69.29
-83.67
-97.55
-109.87
-119.87
-127.36
-132.86
-137.63
-143.46
-152.31
-165.51
-182.76
-201.52
-217.01
-223.32
-215.12
-189.46
-146.74
-90.82
-27.92
34.85
91.00
135.74
166.52
183.10
187.20
181.86
170.46
155.98
140.52
125.24
110.85
97.97
87.36
79.73
75.56
74.86
77.25
82.08
88.53
95.64
102.28
107.14
109.00
106.99
100.95
91.44
79.64
66.83
54.04
41.73
29.78
17.79
5.40
-7.42
-20.36
-32.87
-44.42
-54.76
-64.00
-72.62
-81.18
-90.15
-99.64
-109.41
-118.94
-127.65
-135.18
-141.71
-148.16
-156.19
-167.57
-183.29
-202.49
-221.84
-236.01
-239.06
-226.32
-195.87
-149.10
-90.23
-25.18
39.60
98.09
145.37
178.24
195.73
199.19
191.90
178.05
161.41
144.55
128.65
114.09
101.20
90.64
83.25
79.69
79.99
83.54
89.33
96.19
103.06
108.95
112.97
114.27
112.16
106.30
96.91
84.82
71.24
57.47
44.46
32.51
21.28
10.05
-1.77
-14.36
-27.29
-39.73
-50.89
-60.38
-68.45
-75.81
-83.31
-91.55
-100.68
-110.40
-120.05
-128.97
-136.72
-143.32
-149.45
-156.54
-166.36
-180.32
-198.33
-217.91
-234.25
-241.27
-233.54
-208.02
-165.06
-108.24
-43.32
23.12
84.82
136.55
174.68
197.51
205.57
201.48
189.10
172.52
154.87
137.88
122.13
107.79
95.26
85.39
79.24
77.50
80.12
86.19
94.18
102.28
108.84
112.66
113.08
110.04
103.89
95.27
84.92
73.52
61.56
49.28
36.75
24.08
11.55
-0.31
-10.92
-19.84
-27.11
-33.34
-39.45
-46.28
-54.17
-62.72
-70.82
-77.20
-80.86
-81.62
-80.37
-79.09
-80.43
-86.79
-98.98
-115.03
-129.90
-136.20
-126.12
-93.83
-37.85
37.83
123.96
208.06
277.48
322.56
338.84
327.61
294.52
247.14
192.51
135.69
79.61
25.97
-24.02
-69.71
-111.77
-152.79
-196.26
-244.33
-295.20
-341.94
-374.19
-381.73
-358.30
-303.91
-224.48
-129.68
-30.53
62.33
139.46
193.29
219.33
217.58
193.14
154.94
112.88
74.38
42.46
16.27
-6.43
-26.83
-44.07
-56.04
-61.71
-62.70
-63.47
-69.93
-87.53
-119.77
-167.19
-227.19
-294.07
-359.53
-413.89
-448.30
-457.22
-440.11
-401.58
-349.53
-292.30
-236.12
-183.97
-135.89
-90.27
-45.19
0.53
46.71
91.67
132.33
164.84
185.72
193.14
187.75
172.36
151.14
128.29
107.05
89.33
75.65
65.14
55.79
44.94
30.23
10.87
-11.50
-33.08
-49.37
-57.18
-55.95
-48.07
-37.62
-28.60
-23.45
-22.69
-25.63
-31.50
-40.21
-52.48
-69.19
-90.49
-115.08
-139.96
-161.02
-174.06
-176.12
-166.38
-146.24
-118.45
-85.69
-49.29
-8.84
36.91
88.27
143.18
196.84
243.19
277.26
297.41
306.03
308.38
310.17
315.23
324.24
334.80
342.70
343.24
332.72
309.67
276.07
237.87
204.22
184.81
186.19
208.59
245.20
284.59
315.12
329.30
325.58
307.39
280.09
248.02
213.14
175.54
134.78
90.88
44.70
-2.21
-47.48
-87.70
-118.61
-135.82
-136.47
-120.47
-91.10
-54.07
-15.74
18.83
47.24
70.15
90.66
112.73
139.17
170.02
201.81
228.38
243.08
241.31
222.34
189.37
147.71
102.47
56.89
12.01
-32.40
-76.62
-120.39
-162.94
-203.46
-241.32
-275.89
-306.12
-330.40
-346.77
-353.72
-350.97
-340.06
-324.21
-307.34
-292.62
-281.16
-271.42
-259.88
-242.59
-217.13
-183.73
-145.23
-105.87
-69.79
-40.04
-18.43
-5.77
-2.14
-6.57
-16.58
-28.21
-36.85
-38.96
-33.59
-23.00
-11.69
-4.45
-4.28
-11.43
-23.60
-37.40
-49.98
-60.17
-68.60
-77.08
-87.67
-101.97
-120.72
-143.79
-170.20
-198.25
-225.67
-249.88
-268.54
-279.98
-283.57
-279.57
-268.78
-252.00
-229.71
-202.24
-170.05
-134.11
-95.86
-56.90
-18.64
18.04
52.63
84.66
113.45
138.02
157.26
170.34
176.89
176.88
170.39
157.56
138.89
115.84
91.35
69.57
54.90
50.49
57.12
72.86
93.99
116.38
136.84
153.78
166.88
176.40
182.44
184.72
182.78
176.41
166.03
152.72
138.01
123.44
110.23
98.96
89.70
82.32
76.89
73.97
74.48
79.38
89.04
102.80
118.89
134.65
147.26
154.53
155.57
151.08
143.20
134.68
128.25
125.89
128.62
136.48
148.38
161.92
173.32
178.12
172.58
155.29
128.08
95.29
61.84
30.98
3.17
-22.99
-48.60
-72.42
-90.45
-97.68
-90.82
-70.44
-41.06
-9.34
18.60
39.15
51.57
57.08
57.35
53.56
46.22
35.57
22.22
7.29
-7.71
-21.30
-32.47
-40.83
-46.63
-50.51
-53.05
-54.51
-54.65
-52.92
-48.94
-42.99
-36.21
-30.44
-27.48
-28.40
-33.07
-40.22
-48.11
-55.23
-60.93
-65.51
-69.99
-75.44
-82.48
-90.99
-100.10
-108.55
-115.09
-118.98
-120.15
-119.25
-117.57
-116.76
-118.51
-123.94
-132.95
-143.69
-152.61
-155.19
-147.42
-127.32
-95.86
-56.91
-16.00
21.40
51.32
71.97
83.54
87.38
85.25
78.82
69.49
58.51
46.98
35.80
25.67
16.98
9.92
4.49
0.62
-1.69
-2.44
-1.59
0.85
4.67
9.33
14.09
18.05
20.46
20.91
19.40
16.25
11.97
7.08
2.00
-2.89
-7.39
-11.51
-15.52
-19.97
-25.41
-32.09
-39.68
-47.40
-54.21
-59.31
-62.52
-64.35
-65.89
-68.46
-73.24
-80.80
-90.65
-100.96
-108.64
-110.03
-102.00
-83.21
-54.86
-20.52
14.91
46.61
71.20
87.20
94.88
95.53
90.81
82.35
71.62
59.99
48.72
38.72
30.52
24.12
19.14
15.18
12.00
9.73
8.79
9.63
12.42
16.78
21.76
26.06
28.36
27.81
24.25
18.30
11.09
3.85
-2.47
-7.61
-12.00
-16.50
-22.04
-29.08
-37.37
-46.04
-53.91
-60.04
-64.09
-66.51
-68.50
-71.63
-77.34
-86.23
-97.43
-108.41
-115.24
-113.79
-101.03
-76.41
-42.31
-3.41
34.68
67.06
90.68
104.67
109.87
108.07
101.24
91.08
79.01
66.16
53.46
41.69
31.41
23.01
16.61
12.19
9.60
8.63
9.06
10.63
13.03
15.92
18.84
21.31
22.80
22.81
20.94
17.04
11.28
4.17
-3.50
-10.91
-17.44
-22.86
-27.44
-31.79
-36.63
-42.43
-49.16
-56.25
-62.86
-68.13
-71.60
-73.34
-73.97
-74.46
-76.02
-79.75
-86.30
-95.38
-105.23
-112.56
-113.23
-103.50
-81.56
-48.51
-8.32
33.30
70.63
99.54
118.19
126.89
127.26
121.39
111.18
98.28
84.09
69.87
56.70
45.39
36.34
29.58
24.89
21.95
20.50
20.42
21.55
23.68
26.46
29.34
31.70
32.90
32.42
29.94
25.39
19.06
11.50
3.51
-4.11
-10.71
-16.08
-20.47
-24.58
-29.25
-35.09
-42.26
-50.28
-58.28
-65.25
-70.46
-73.72
-75.47
-76.62
-78.41
-82.10
-88.61
-97.98
-108.82
-118.15
-121.85
-115.75
-97.14
-66.01
-25.39
19.33
62.00
97.39
122.36
136.13
139.79
135.43
125.32
111.51
95.67
79.16
63.09
48.35
35.66
25.54
18.23
13.76
11.95
12.42
14.66
18.11
22.15
26.19
29.60
31.83
32.39
31.01
27.62
22.42
15.80
8.23
0.23
-7.71
-15.20
-21.94
-27.90
-33.22
-38.32
-43.66
-49.56
-55.97
-62.46
-68.27
-72.67
-75.26
-76.17
-76.04
-76.00
-77.39
-81.43
-88.76
-98.83
-109.48
-117.07
-117.29
-106.53
-83.34
-49.32
-8.76
32.47
68.73
96.08
112.84
119.40
117.37
108.77
95.50
79.23
61.52
43.88
27.70
14.12
3.72
-3.44
-7.77
-9.84
-10.08
-8.55
-5.00
0.87
9.00
18.71
28.65
37.10
42.50
43.98
41.62
36.38
29.72
22.99
16.96
11.63
6.35
0.25
-7.24
-16.12
-25.71
-34.87
-42.46
-47.83
-51.00
-52.79
-54.50
-57.65
-63.50
-72.46
-83.65
-94.66
-101.81
-101.01
-89.08
-65.02
-30.80
9.03
48.60
82.39
106.77
120.54
124.66
121.23
112.53
100.38
86.11
70.73
55.28
40.82
28.27
18.32
11.19
6.76
4.69
4.55
5.92
8.34
11.27
14.19
16.57
17.92
17.81
15.82
11.63
5.09
-3.60
-13.75
-24.34
-34.27
-42.79
-49.81
-55.91
-62.16
-69.58
-78.72
-89.35
-100.57
-111.09
-119.78
-126.04
-130.09
-132.80
-135.57
-139.93
-147.13
-157.67
-170.78
-184.14
-194.01
-196.15
-187.16
-165.94
-134.44
-97.38
-60.71
-29.60
-6.70
8.50
19.05
28.91
41.24
57.20
75.78
94.51
110.69
122.43
129.21
131.71
131.18
128.72
124.82
119.25
111.42
100.81
87.22
70.83
52.03
31.21
8.63
-15.63
-41.48
-68.72
-96.98
-125.50
-153.07
-177.74
-196.88
-207.46
-206.46
-191.61
-162.04
-118.81
-65.27
-6.81
49.87
98.14
132.88
151.68
155.36
147.44
132.84
116.23
100.78
87.52
75.61
63.32
49.23
33.21
16.94
3.66
-2.69
1.38
17.78
46.18
84.13
127.62
171.97
212.70
246.13
269.77
282.48
284.57
277.82
265.26
250.67
237.80
229.31
226.19
227.51
230.99
234.01
234.62
232.08
226.74
219.42
210.85
201.25
190.56
178.72
166.01
153.06
140.50
128.71
117.57
106.53
94.79
81.60
66.51
49.67
31.67
13.30
-4.92
-23.08
-41.89
-62.14
-84.12
-107.37
-131.07
-154.81
-179.28
-206.04
-236.27
-269.08
-300.59
-324.57
-334.86
-328.15
-305.83
-273.69
-239.78
-211.41
-193.19
-186.52
-190.68
-204.06
-224.70
-250.02
-276.16
-298.16
-311.10
-311.83
-300.23
-279.22
-253.44
-227.38
-203.87
-183.71
-166.36
-151.08
-138.07
-128.95
-126.35
-132.92
-149.99
-176.37
-207.91
-238.25
-260.53
-269.38
-262.50
-240.97
-208.57
-170.57
-132.47
-99.16
-74.45
-60.66
-58.42
-66.53
-82.17
-101.58
-120.73
-136.15
-145.39
-147.21
-141.73
-130.22
-114.82
-97.87
-81.20
-65.55
-50.63
-35.52
-19.45
-2.20
15.91
34.34
52.83
71.50
90.78
111.06
132.57
155.15
178.45
202.08
225.76
249.43
273.29
297.87
323.95
352.39
383.63
417.24
451.52
483.68
510.55
529.55
539.64
541.45
536.86
528.04
516.49
502.87
487.19
469.63
450.89
432.05
413.78
395.63
375.80
351.70
321.11
283.15
238.65
189.60
138.31
86.72
36.47
-10.72
-52.53
-86.22
-109.38
-120.90
-121.60
-113.99
-101.38
-86.66
-71.74
-57.54
-44.59
-33.96
-27.70
-28.68
-39.65
-61.92
-94.14
-132.05
-169.25
-198.88
-215.72
-217.62
-205.70
-183.47
-155.31
-125.19
-95.97
-69.62
-47.52
-30.85
-20.33
-15.93
-16.52
-20.12
-24.42
-27.71
-29.37
-30.08
-31.41
-34.94
-41.49
-50.70
-61.09
-70.72
-77.93
-81.99
-83.37
-83.59
-84.70
-88.61
-96.40
-107.62
-120.03
-129.86
-132.70
-124.93
-105.04
-74.37
-36.84
2.29
37.98
66.75
87.14
99.46
104.88
104.76
100.13
91.78
80.55
67.50
54.06
41.68
31.62
24.54
20.44
18.82
18.91
20.06
21.79
23.88
26.17
28.38
30.03
30.49
29.10
25.43
19.38
11.27
1.82
-8.04
-17.41
-25.67
-32.65
-38.69
-44.46
-50.63
-57.53
-64.98
-72.31
-78.66
-83.32
-86.07
-87.25
-87.67
-88.43
-90.79
-95.82
-104.07
-114.97
-126.48
-135.06
-136.52
-127.32
-105.95
-73.77
-34.70
5.92
42.95
72.69
93.46
105.28
109.22
106.74
99.29
88.28
75.10
61.15
47.78
36.12
26.96
20.63
17.07
15.92
16.71
18.94
22.15
25.81
29.26
31.68
32.22
30.27
25.72
18.97
10.83
2.19
-6.31
-14.46
-22.42
-30.52
-38.95
-47.51
-55.71
-62.89
-68.56
-72.67
-75.70
-78.70
-82.97
-89.61
-98.84
-109.41
-118.54
-122.43
-117.40
-101.31
-74.46
-39.72
-1.72
34.59
65.26
88.09
102.62
109.54
110.09
105.52
97.04
85.81
73.07
60.08
48.00
37.74
29.85
24.44
21.32
20.09
20.31
21.60
23.71
26.38
29.30
31.97
33.70
33.76
31.52
26.72
19.56
10.74
1.26
-7.83
-15.80
-22.43
-28.05
-33.38
-39.14
-45.79
-53.27
-60.99
-68.08
-73.69
-77.35
-79.14
-79.74
-80.27
-82.10
-86.56
-94.55
-105.92
-119.04
-130.69
-136.56
-132.46
-115.78
-86.58
-47.82
-4.56
37.49
73.58
100.77
118.20
126.54
127.25
122.08
112.70
100.72
87.58
74.53
62.51
52.14
43.71
37.31
32.90
30.48
30.02
31.42
34.37
38.25
42.18
45.15
46.24
44.86
40.91
34.80
27.30
19.24
11.27
3.62
-3.78
-11.25
-18.96
-26.76
-34.17
-40.59
-45.65
-49.38
-52.29
-55.13
-58.50
-62.61
-67.15
-71.52
-75.08
-77.45
-78.72
-79.46
-80.70
-83.74
-89.77
-99.26
-111.28
-123.10
-130.50
-128.86
-114.79
-87.58
-49.66
-6.04
37.28
75.05
104.05
123.21
133.11
135.21
131.11
122.34
110.42
96.86
83.08
70.28
59.25
50.39
43.84
39.59
37.56
37.62
39.54
42.93
47.21
51.53
54.90
56.30
54.96
50.71
44.00
35.86
27.34
19.20
11.55
3.98
-4.06
-12.80
-21.89
-30.51
-37.79
-43.28
-47.18
-50.25
-53.47
-57.58
-62.74
-68.53
-74.15
-78.77
-81.89
-83.49
-84.16
-84.96
-87.32
-92.68
-101.80
-114.07
-126.96
-136.25
-137.04
-125.44
-100.14
-63.18
-19.40
25.01
64.42
95.09
115.55
126.22
128.50
124.07
114.44
101.06
85.31
68.68
52.66
38.62
27.64
20.26
16.47
15.73
17.27
20.36
24.51
29.46
35.03
40.78
45.84
48.96
48.92
44.99
37.29
26.84
15.24
4.14
-5.32
-12.83
-18.89
-24.52
-30.75
-38.18
-46.81
-55.98
-64.71
-72.00
-77.25
-80.42
-82.11
-83.38
-85.65
-90.30
-98.31
-109.60
-122.50
-133.62
-138.39
-132.43
-113.14
-80.89
-39.22
6.19
49.32
85.46
112.09
128.84
136.68
137.12
131.65
121.70
108.69
94.04
79.10
64.94
52.33
41.71
33.38
27.61
24.61
24.44
26.84
31.18
36.48
41.53
45.20
46.64
45.42
41.63
35.72
28.32
20.01
11.19
2.08
-7.20
-16.50
-25.56
-34.00
-41.44
-47.67
-52.81
-57.34
-61.88
-66.94
-72.64
-78.61
-84.13
-88.41
-91.04
-92.22
-92.77
-94.03
-97.56
-104.73
-115.96
-130.04
-143.78
-152.32
-150.47
-134.47
-103.60
-60.77
-11.66
37.06
79.66
112.68
135.08
147.56
151.62
148.91
141.00
129.45
115.86
101.75
88.28
76.22
65.89
57.45
51.01
46.76
44.89
45.44
48.12
52.26
56.82
60.61
62.52
61.86
58.47
52.78
45.54
37.50
29.15
20.56
11.59
2.09
-7.78
-17.53
-26.45
-34.01
-40.15
-45.33
-50.36
-55.99
-62.47
-69.42
-76.04
-81.44
-85.16
-87.35
-88.73
-90.46
-93.91
-100.33
-110.38
-123.46
-137.12
-147.15
-148.44
-136.68
-110.09
-70.41
-22.50
27.10
72.23
108.61
134.41
149.75
155.88
154.40
146.91
134.99
120.33
104.57
89.17
75.29
63.62
54.47
47.89
43.81
42.17
42.91
45.89
50.64
56.28
61.54
65.03
65.61
62.72
56.60
48.15
38.53
28.77
19.40
10.42
1.49
-7.75
-17.37
-26.99
-35.97
-43.70
-50.00
-55.23
-60.17
-65.65
-72.02
-79.05
-85.93
-91.68
-95.66
-97.85
-98.99
-100.35
-103.56
-110.13
-120.86
-135.10
-150.17
-161.45
-163.51
-151.82
-124.58
-83.72
-34.43
16.41
62.41
99.23
125.09
140.29
146.14
144.26
136.14
123.27
107.37
90.24
73.65
58.97
47.06
38.22
32.35
29.18
28.49
30.19
34.23
40.32
47.66
54.80
59.86
61.09
57.47
49.20
37.66
24.92
12.91
2.69
-5.84
-13.71
-22.24
-32.33
-43.98
-56.30
-67.89
-77.46
-84.38
-88.91
-92.12
-95.67
-101.35
-110.47
-123.14
-137.62
-150.19
-155.85
-149.75
-129.06
-94.29
-49.38
-0.54
45.73
84.47
113.16
131.55
140.80
142.54
138.30
129.46
117.39
103.51
89.13
75.38
63.06
52.72
44.71
39.27
36.61
36.82
39.73
44.90
51.42
58.04
63.33
65.98
65.27
61.22
54.53
46.27
37.39
28.37
19.26
9.77
-0.25
-10.58
-20.68
-29.86
-37.72
-44.34
-50.27
-56.27
-62.91
-70.25
-77.78
-84.70
-90.26
-94.11
-96.48
-98.21
-100.51
-104.94
-112.90
-125.16
-140.91
-157.24
-169.23
-171.07
-158.07
-128.54
-84.82
-32.72
20.32
67.50
104.44
129.63
143.81
148.80
146.61
139.05
127.75
114.34
100.34
87.09
75.50
66.01
58.67
53.40
50.10
48.78
49.44
51.95
55.89
60.46
64.58
67.07
67.05
64.09
58.36
50.51
41.36
31.60
21.60
11.48
1.22
-9.04
-18.89
-27.77
-35.26
-41.34
-46.52
-51.65
-57.51
-64.37
-71.83
-78.99
-84.88
-88.89
-91.12
-92.31
-93.81
-97.25
-104.20
-115.47
-130.29
-145.82
-157.21
-158.85
-146.22
-117.78
-75.85
-25.98
24.84
70.33
106.49
131.87
146.95
153.10
151.85
144.71
133.29
119.40
104.91
91.39
79.79
70.37
62.94
57.19
52.97
50.39
49.67
50.94
53.95
58.02
62.05
64.77
65.06
62.33
56.65
48.77
39.73
30.57
21.87
13.61
5.31
-3.59
-13.33
-23.59
-33.56
-42.28
-49.09
-54.03
-57.78
-61.45
-65.95
-71.60
-77.92
-83.92
-88.52
-91.17
-92.10
-92.38
-93.65
-97.74
-106.15
-119.26
-135.71
-151.97
-162.73
-162.28
-146.45
-114.35
-69.12
-17.09
34.23
78.43
111.70
133.16
143.93
145.99
141.28
131.37
117.64
101.58
84.76
68.70
54.63
43.33
35.14
29.95
27.47
27.35
29.24
32.87
37.94
43.95
50.02
54.91
57.17
55.58
49.61
39.68
27.16
13.96
1.92
-7.84
-15.29
-21.40
-27.69
-35.47
-45.19
-56.23
-67.14
-76.28
-82.57
-85.90
-87.17
-87.95
-89.99
-94.86
-103.52
-115.91
-130.43
-143.70
-151.04
-147.58
-130.10
-98.34
-55.47
-7.28
39.69
80.03
110.60
130.69
141.27
143.99
140.58
132.55
121.27
108.13
94.39
81.16
69.28
59.27
51.43
45.91
42.77
41.99
43.43
46.74
51.31
56.17
60.18
62.20
61.43
57.60
51.08
42.67
33.26
23.51
13.65
3.61
-6.71
-17.17
-27.32
-36.51
-44.30
-50.72
-56.32
-61.97
-68.40
-75.83
-83.82
-91.44
-97.67
-101.94
-104.36
-105.87
-108.03
-112.72
-121.45
-134.54
-150.31
-164.81
-172.46
-167.55
-146.29
-108.44
-57.79
-1.01
54.30
101.88
138.16
162.38
175.83
180.74
179.41
173.83
165.58
155.86
145.44
134.59
123.21
111.09
98.13
84.66
71.46
59.53
49.87
43.15
39.47
38.29
38.52
38.69
37.42
33.76
27.51
19.26
10.13
1.31
-6.44
-13.03
-19.03
-25.28
-32.41
-40.52
-49.02
-56.90
-63.25
-67.66
-70.43
-72.42
-74.62
-77.64
-81.47
-85.52
-88.90
-90.93
-91.48
-91.07
-90.80
-92.04
-95.99
-103.40
-114.12
-126.82
-138.94
-146.96
-147.24
-137.16
-116.22
-86.55
-52.51
-19.59
7.15
24.29
30.54
26.40
13.47
-6.36
-31.21
-59.30
-88.83
-118.02
-145.39
-170.12
-192.14
-212.09
-230.95
-249.64
-268.68
-287.94
-306.36
-322.00
-332.33
-334.91
-328.23
-312.32
-288.90
-260.81
-231.11
-202.20
-175.29
-150.64
-127.86
-106.45
-86.02
-66.26
-46.82
-27.25
-7.00
14.67
38.55
65.07
93.67
122.35
147.97
167.31
178.78
183.39
184.83
188.00
197.09
214.06
238.79
270.32
308.05
351.76
400.15
449.06
490.99
516.89
519.49
496.32
450.59
389.49
321.12
251.80
185.34
123.95
70.07
27.32
0.02
-8.53
2.24
29.37
67.01
108.01
145.64
174.96
193.41
200.53
197.25
185.19
166.13
141.78
113.85
84.03
53.92
24.63
-3.38
-30.39
-57.18
-84.67
-113.62
-144.20
-175.85
-207.17
-236.10
-260.45
-278.52
-289.54
-293.89
-292.84
-288.22
-282.09
-276.48
-273.15
-273.20
-276.56
-281.70
-285.76
-285.33
-277.62
-261.45
-237.65
-208.64
-177.43
-146.60
-117.62
-90.78
-65.52
-40.94
-16.34
8.58
33.69
58.51
82.47
105.14
126.38
146.49
166.36
187.50
211.67
240.28
273.39
309.08
343.50
371.83
389.97
396.16
391.66
380.25
366.72
355.02
346.99
342.06
337.92
331.70
321.18
305.79
287.06
268.56
255.17
251.78
261.72
285.46
320.43
361.67
403.22
439.43
465.67
478.61
476.09
457.33
423.33
377.28
324.34
270.58
221.44
180.11
146.83
119.43
94.69
69.90
43.91
17.15
-9.13
-34.04
-57.94
-82.60
-110.62
-144.34
-184.80
-231.09
-280.53
-329.54
-374.51
-412.89
-443.57
-466.86
-484.18
-497.78
-510.31
-524.15
-540.10
-555.87
-565.57
-560.73
-533.31
-479.27
-401.05
-307.61
-211.79
-126.20
-59.64
-15.73
6.13
8.72
-4.88
-31.74
-68.37
-109.86
-149.93
-182.17
-201.93
-207.72
-201.29
-186.56
-167.51
-146.47
-123.23
-95.56
-60.53
-15.86
39.13
102.88
171.32
237.91
294.44
332.79
347.21
336.42
304.16
257.67
204.80
150.90
97.19
41.23
-20.62
-89.98
-164.06
-235.40
-293.90
-330.36
-339.97
-323.83
-288.23
-241.76
-191.81
-142.16
-92.86
-41.84
13.00
72.23
134.59
197.34
256.76
308.51
347.91
370.85
375.08
361.50
334.13
299.18
262.99
230.12
202.63
180.53
162.95
149.11
138.43
129.83
121.29
109.83
92.54
67.82
36.32
0.86
-34.70
-67.14
-95.18
-119.55
-142.14
-164.52
-186.87
-207.83
-225.48
-238.71
-248.14
-256.03
-265.08
-276.95
-290.90
-303.84
-311.36
-309.56
-296.51
-272.92
-241.70
-206.69
-171.53
-138.75
-109.42
-83.26
-58.91
-34.44
-7.96
21.72
54.53
89.04
122.92
153.72
179.39
198.59
210.47
214.29
209.41
195.64
173.71
145.56
114.01
82.05
51.88
24.63
0.57
-20.10
-36.50
-46.95
-49.63
-43.66
-30.21
-12.77
3.63
13.88
14.42
4.31
-14.87
-39.96
-67.48
-94.58
-119.31
-140.40
-156.90
-168.10
-173.69
-173.79
-168.79
-158.80
-143.20
-120.59
-89.50
-49.36
-1.46
50.84
102.81
149.59
187.56
215.10
232.60
241.81
244.87
243.52
238.82
231.38
221.75
210.74
199.55
189.42
181.36
175.75
172.15
169.26
165.18
157.96
146.21
129.68
109.36
87.14
64.99
44.20
24.87
6.26
-12.42
-31.15
-48.79
-63.48
-73.69
-79.07
-80.80
-81.33
-83.53
-89.93
-102.19
-120.91
-145.48
-173.85
-202.32
-225.70
-238.14
-234.74
-213.28
-175.30
-125.92
-72.36
-21.80
20.55
52.28
73.56
86.05
91.79
92.49
89.46
83.82
76.62
68.80
60.87
52.72
43.61
32.52
18.80
2.78
-13.94
-28.53
-37.71
-38.77
-30.45
-13.59
9.01
33.21
54.76
70.55
79.54
82.99
83.78
85.00
88.35
93.07
96.01
92.78
79.57
54.72
19.44
-22.48
-65.54
-103.65
-131.02
-143.16
-137.79
-115.60
-80.50
-38.91
1.77
35.03
56.55
64.78
60.55
46.33
25.55
2.12
-20.02
-37.60
-48.77
-53.68
-54.34
-53.80
-54.84
-58.80
-65.07
-71.35
-74.59
-72.08
-62.38
-45.70
-23.81
0.41
23.73
43.22
56.83
63.55
63.55
57.79
47.76
35.07
21.22
7.39
-5.57
-17.18
-27.34
-36.23
-44.30
-52.04
-59.75
-67.32
-73.98
-78.52
-79.52
-75.99
-67.73
-55.62
-41.35
-26.92
-14.16
-4.23
2.40
5.81
6.44
4.77
1.32
-3.38
-8.76
-14.26
-19.40
-23.84
-27.49
-30.41
-32.81
-34.97
-37.06
-39.18
-41.26
-43.10
-44.47
-45.28
-45.61
-45.73
-46.02
-46.74
-47.99
-49.57
-51.07
-52.09
-52.43
-52.36
-52.59
-54.13
-57.81
-63.68
-70.60
-76.23
-77.58
-72.02
-58.33
-37.33
-11.82
14.11
36.13
50.64
55.53
50.52
37.10
18.14
-2.92
-22.98
-40.13
-54.06
-65.83
-77.08
-89.30
-103.19
-118.85
-136.14
-155.08
-175.91
-198.85
-223.78
-250.15
-277.09
-303.49
-328.02
-348.89
-363.83
-370.47
-367.03
-353.15
-330.24
-301.23
-269.70
-238.87
-210.87
-186.56
-165.86
-148.15
-132.72
-118.87
-106.06
-93.84
-81.94
-70.24
-58.69
-47.30
-35.93
-24.34
-12.20
0.75
14.63
29.44
45.14
61.89
80.05
100.17
122.72
147.92
175.54
205.04
235.74
267.00
298.34
329.37
359.70
389.23
418.52
449.09
482.85
520.67
560.58
596.91
621.04
624.11
600.34
549.59
477.62
393.91
308.27
227.85
155.76
91.64
33.33
-21.60
-75.40
-130.09
-187.42
-247.93
-309.39
-365.83
-408.19
-427.13
-416.92
-378.74
-321.32
-258.29
-203.47
-166.02
-147.78
-143.84
-145.66
-144.87
-136.13
-117.72
-90.47
-55.94
-15.39
30.13
78.79
127.08
169.88
202.00
220.23
224.87
219.76
210.57
202.10
196.21
191.29
183.44
168.76
145.31
113.87
77.46
39.91
4.41
-27.30
-55.20
-80.66
-105.93
-133.31
-164.23
-198.34
-232.97
-263.40
-284.03
-290.16
-279.44
-252.54
-212.95
-166.05
-118.06
-74.79
-40.58
-17.18
-3.25
5.60
15.67
33.19
62.29
103.68
154.29
208.32
258.82
299.35
325.25
334.45
327.67
308.08
280.44
249.66
219.54
191.95
166.76
142.46
116.95
88.21
54.63
15.30
-29.62
-78.37
-127.54
-172.33
-207.74
-229.80
-236.63
-228.75
-208.44
-178.64
-141.80
-99.58
-53.29
-4.70
43.48
87.88
125.36
154.04
173.77
185.88
192.42
195.27
195.75
194.58
192.22
189.09
185.40
180.82
174.26
164.33
150.06
131.79
111.43
92.12
77.11
68.88
68.22
74.14
84.24
95.21
103.62
106.84
104.00
96.62
88.41
84.02
86.83
97.13
111.40
123.46
126.94
117.70
95.21
61.93
21.61
-22.54
-68.55
-115.16
-160.75
-202.56
-237.11
-261.42
-274.29
-276.89
-272.31
-264.45
-256.69
-251.19
-248.90
-249.95
-254.10
-260.65
-268.04
-273.63
-273.95
-265.69
-246.92
-217.89
-181.08
-140.09
-98.27
-57.67
-18.69
19.54
58.39
98.97
141.42
184.29
224.22
256.30
275.33
277.83
263.69
236.53
202.33
167.00
134.24
105.10
79.11
56.31
38.45
28.42
28.48
38.25
53.99
69.71
79.42
79.38
69.08
50.82
28.13
3.85
-20.85
-46.73
-75.65
-109.32
-148.45
-192.45
-239.80
-288.73
-337.21
-382.77
-422.01
-450.67
-464.53
-460.82
-439.40
-402.90
-355.74
-302.69
-247.81
-194.46
-145.89
-105.86
-78.37
-66.42
-70.50
-87.62
-111.68
-135.13
-151.17
-155.56
-147.35
-128.42
-102.23
-72.38
-41.62
-11.62
16.87
43.64
68.72
92.46
115.77
140.16
167.21
197.56
230.05
261.43
287.17
303.13
307.38
301.29
289.18
276.78
269.00
268.16
273.52
281.96
289.70
293.71
292.49
285.83
274.12
257.68
236.52
210.59
180.09
145.78
109.11
72.18
37.58
8.11
-13.62
-25.83
-28.03
-21.22
-7.57
10.24
29.76
49.18
67.34
83.41
96.64
106.32
112.06
114.06
113.21
110.82
108.17
106.04
104.52
103.09
101.06
98.02
94.23
90.86
89.78
93.19
102.85
119.30
141.25
165.49
187.49
202.45
206.61
198.21
177.79
147.82
111.82
73.46
35.89
1.61
-27.37
-49.31
-62.71
-66.54
-60.74
-46.54
-26.57
-4.40
16.26
32.44
42.46
45.93
43.32
35.26
22.17
4.30
-17.89
-43.04
-68.42
-90.09
-103.73
-106.00
-95.92
-75.25
-48.04
-19.03
8.02
31.26
50.67
66.82
79.50
87.05
86.66
75.60
52.51
18.04
-25.31
-74.06
-124.63
-173.76
-218.64
-256.80
-286.32
-306.40
-317.92
-323.42
-326.16
-328.44
-330.18
-328.49
-318.82
-296.89
-260.51
-210.34
-149.47
-82.32
-13.74
51.46
108.58
153.38
182.76
195.68
193.67
180.38
160.43
138.09
116.38
97.00
80.78
68.22
59.69
55.32
54.73
56.98
60.63
64.11
65.90
64.85
60.32
52.22
40.98
27.29
11.92
-4.45
-21.26
-38.07
-54.54
-70.56
-86.56
-103.45
-122.18
-142.70
-163.06
-179.18
-185.59
