1722015813.00
64.000000
-0.00
-0.00
-0.00
-0.00
-0.00
-0.00
-0.00
-0.00
-0.00
-0.00
0.00
0.01
0.01
-0.00
-0.03
-0.05
-0.05
0.00
0.13
0.36
0.66
1.01
1.37
1.72
2.06
2.40
2.79
3.24
3.80
4.42
5.06
5.66
6.20
6.68
7.15
7.68
8.31
9.14
10.09
11.04
11.88
12.56
13.14
13.76
14.65
15.96
17.92
20.32
22.91
25.38
27.58
29.57
31.67
34.31
37.82
42.56
48.19
54.16
59.86
64.93
69.41
73.81
78.84
85.07
93.04
102.24
111.86
120.96
128.94
135.82
142.22
149.52
156.45
165.29
176.62
190.50
205.65
219.10
226.49
223.23
206.04
174.13
129.95
77.31
20.40
-37.71
-95.64
-153.16
-210.28
-266.46
-320.60
-371.06
-416.99
-457.94
-493.73
-523.81
-546.87
-560.93
-563.75
-553.74
-530.35
-494.86
-449.86
-398.65
-344.40
-289.55
-235.45
-182.68
-131.51
-82.36
-36.22
5.55
41.63
71.01
93.22
108.33
117.06
120.97
122.64
125.36
132.29
145.34
164.15
186.04
206.90
222.84
231.55
232.88
228.25
219.67
208.68
196.05
182.14
167.38
152.64
138.97
127.12
117.16
108.47
100.06
91.07
81.17
70.70
60.43
51.17
43.51
37.43
32.49
28.15
23.97
19.78
15.63
11.73
8.32
5.55
3.43
1.87
0.67
-0.36
-1.39
-2.52
-3.74
-4.94
-5.98
-6.71
-7.08
-7.09
-6.90
-6.70
-6.66
-6.82
-7.10
-7.33
-7.43
-7.43
-7.39
-7.29
-6.93
-6.07
-4.62
-2.81
-1.16
-0.25
-0.40
-1.44
-2.86
-4.02
-4.56
-4.49
-4.12
-3.84
-3.85
-4.08
-4.29
-4.23
-3.81
-3.08
-2.20
-1.37
-0.77
-0.45
-0.37
-0.41
-0.47
-0.52
-0.58
-0.69
-0.89
-1.15
-1.37
-1.48
-1.43
-1.22
-0.90
-0.52
-0.12
0.29
0.69
1.09
1.46
1.82
2.15
2.43
2.66
2.85
3.04
3.32
3.76
4.36
5.06
5.74
6.26
6.54
6.55
6.35
5.98
5.49
4.86
4.10
3.11
1.87
0.36
-1.37
-3.20
-5.00
-6.61
-7.88
-8.76
-9.27
-9.45
-9.39
-9.14
-8.72
-8.14
-7.40
-6.57
-5.69
-4.86
-4.16
-3.62
-3.26
-3.05
-2.93
-2.85
-2.78
-2.71
-2.65
-2.59
-2.48
-2.26
-1.90
-1.42
-0.91
-0.51
-0.35
-0.44
-0.66
-0.84
-0.80
-0.51
-0.05
0.40
0.67
0.69
0.51
0.23
0.01
-0.07
0.00
0.16
0.31
0.40
0.40
0.35
0.28
0.23
0.19
0.11
-0.01
-0.19
-0.41
-0.62
-0.76
-0.81
-0.81
-0.83
-0.95
-1.18
-1.55
-2.03
-2.62
-3.27
-3.92
-4.50
-4.85
-4.86
-4.41
-3.52
-2.25
-0.79
0.63
1.77
2.48
2.70
2.50
2.04
1.50
1.04
0.77
0.69
0.78
0.98
1.25
1.57
1.90
2.22
2.49
2.69
2.82
2.92
3.01
3.11
3.21
3.26
3.21
3.06
2.82
2.52
2.22
1.93
1.66
1.38
1.11
0.89
0.77
0.78
0.90
1.03
1.04
0.85
0.46
-0.07
-0.62
-1.09
-1.44
-1.72
-1.98
-2.26
-2.57
-2.86
-3.11
-3.34
-3.62
-4.04
-4.59
-5.21
-5.71
-5.90
-5.68
-5.05
-4.14
-3.15
-2.27
-1.60
-1.13
-0.78
-0.49
-0.24
-0.04
0.09
0.17
0.27
0.50
0.89
1.40
1.95
2.42
2.74
2.91
2.97
3.00
3.05
3.10
3.13
3.08
2.98
2.87
2.84
2.93
3.14
3.40
3.65
3.78
3.75
3.53
3.15
2.64
2.11
1.65
1.34
1.21
1.22
1.29
1.31
1.19
0.91
0.51
0.05
-0.45
-0.95
-1.43
-1.86
-2.17
-2.30
-2.25
-2.13
-2.10
-2.27
-2.69
-3.30
-3.98
-4.60
-5.09
-5.44
-5.68
-5.81
-5.77
-5.44
-4.77
-3.78
-2.60
-1.47
-0.57
-0.05
0.09
-0.03
-0.29
-0.58
-0.82
-1.01
-1.16
-1.21
-1.12
-0.84
-0.40
0.10
0.53
0.81
0.96
1.06
1.20
1.41
1.68
1.92
2.07
2.12
2.10
2.07
2.05
2.06
2.13
2.26
2.43
2.60
2.70
2.62
2.32
1.83
1.26
0.72
0.28
-0.06
-0.37
-0.71
-1.08
-1.42
-1.63
-1.67
-1.57
-1.44
-1.39
-1.52
-1.80
-2.16
-2.55
-2.91
-3.28
-3.72
-4.25
-4.83
-5.37
-5.72
-5.75
-5.40
-4.71
-3.77
-2.72
-1.67
-0.74
0.03
0.64
1.11
1.48
1.78
2.03
2.21
2.30
2.28
2.16
1.98
1.85
1.87
2.09
2.48
2.96
3.38
3.66
3.79
3.86
3.95
4.10
4.27
4.37
4.33
4.16
3.96
3.82
3.81
3.90
3.97
3.94
3.74
3.42
3.06
2.74
2.49
2.32
2.17
1.98
1.73
1.36
0.89
0.32
-0.30
-0.86
-1.30
-1.56
-1.65
-1.69
-1.82
-2.13
-2.65
-3.30
-3.98
-4.64
-5.26
-5.87
-6.46
-6.91
-7.08
-6.85
-6.21
-5.29
-4.25
-3.27
-2.41
-1.68
-1.02
-0.44
0.05
0.40
0.60
0.68
0.73
0.81
0.94
1.10
1.27
1.47
1.70
1.99
2.31
2.61
2.80
2.87
2.85
2.84
2.94
3.15
3.43
3.63
3.66
3.47
3.14
2.79
2.52
2.39
2.39
2.46
2.56
2.65
2.72
2.73
2.66
2.49
2.23
1.89
1.50
1.10
0.71
0.36
0.05
-0.25
-0.62
-1.07
-1.59
-2.14
-2.61
-2.92
-3.07
-3.11
-3.17
-3.36
-3.73
-4.30
-5.01
-5.82
-6.60
-7.17
-7.34
-6.97
-6.04
-4.74
-3.36
-2.20
-1.43
-1.02
-0.81
-0.63
-0.38
-0.08
0.16
0.24
0.17
-0.00
-0.17
-0.26
-0.25
-0.14
0.06
0.35
0.74
1.24
1.81
2.37
2.81
3.06
3.13
3.09
3.09
3.23
3.55
3.94
4.23
4.26
3.95
3.36
2.66
2.03
1.61
1.37
1.23
1.09
0.92
0.75
0.67
0.67
0.69
0.59
0.30
-0.17
-0.65
-0.96
-0.97
-0.71
-0.32
-0.04
-0.03
-0.34
-0.86
-1.40
-1.82
-2.05
-2.18
-2.39
-2.86
-3.67
-4.73
-5.83
-6.70
-7.10
-6.92
-6.22
-5.17
-3.95
-2.76
-1.75
-0.99
-0.54
-0.41
-0.57
-0.93
-1.32
-1.60
-1.62
-1.38
-0.97
-0.52
-0.16
0.06
0.21
0.40
0.71
1.14
1.59
1.92
2.06
2.01
1.83
1.64
1.53
1.52
1.62
1.76
1.92
2.03
2.07
2.04
1.94
1.81
1.67
1.53
1.36
1.13
0.82
0.40
-0.08
-0.59
-1.09
-1.53
-1.91
-2.19
-2.37
-2.47
-2.51
-2.52
-2.55
-2.61
-2.73
-2.91
-3.18
-3.53
-3.95
-4.40
-4.78
-4.99
-4.91
-4.49
-3.76
-2.82
-1.84
-0.99
-0.36
0.03
0.28
0.49
0.75
1.04
1.29
1.39
1.33
1.19
1.12
1.27
1.69
2.28
2.84
3.20
3.27
3.11
2.89
2.77
2.86
3.14
3.52
3.91
4.26
4.56
4.83
5.05
5.16
5.08
4.74
4.19
3.54
2.96
2.54
2.26
2.01
1.63
1.04
0.31
-0.38
-0.84
-0.99
-0.93
-0.88
-1.07
-1.59
-2.42
-3.38
-4.33
-5.15
-5.83
-6.39
-6.81
-7.04
-6.95
-6.46
-5.54
-4.32
-3.04
-1.94
-1.18
-0.79
-0.64
-0.53
-0.35
-0.10
0.08
0.06
-0.25
-0.77
-1.30
-1.62
-1.61
-1.29
-0.82
-0.41
-0.20
-0.21
-0.33
-0.42
-0.41
-0.30
-0.19
-0.19
-0.34
-0.59
-0.78
-0.82
-0.66
-0.40
-0.17
-0.14
-0.41
-1.03
-2.03
-3.39
-5.03
-6.75
-8.23
-9.08
-8.99
-7.88
-6.00
-3.84
-1.95
-0.78
-0.49
-1.03
-2.17
-3.66
-5.25
-6.72
-7.85
-8.46
-8.48
-7.97
-7.19
-6.39
-5.73
-5.21
-4.62
-3.73
-2.37
-0.56
1.55
3.76
5.92
7.96
9.88
11.71
13.45
15.10
16.58
17.80
18.61
18.87
18.50
17.53
16.13
14.55
13.06
11.85
10.99
10.46
10.17
10.06
10.04
9.99
9.78
9.20
8.13
6.51
4.40
1.97
-0.58
-3.04
-5.30
-7.32
-9.09
-10.63
-11.88
-12.76
-13.17
-13.08
-12.60
-11.94
-11.35
-10.97
-10.76
-10.56
-10.14
-9.32
-8.03
-6.23
-3.96
-1.27
1.70
4.70
7.38
9.40
10.61
11.16
11.45
11.98
13.05
14.62
16.26
17.41
17.58
16.57
14.55
11.92
9.12
6.45
4.03
1.91
0.10
-1.28
-2.12
-2.41
-2.23
-1.81
-1.41
-1.21
-1.28
-1.64
-2.26
-3.18
-4.46
-6.13
-8.12
-10.19
-12.03
-13.34
-14.00
-14.07
-13.84
-13.60
-13.53
-13.63
-13.70
-13.54
-13.08
-12.48
-12.06
-12.10
-12.63
-13.40
-13.92
-13.73
-12.57
-10.50
-7.83
-4.95
-2.19
0.33
2.63
4.80
6.86
8.70
10.15
11.01
11.20
10.85
10.29
9.94
10.13
10.85
11.72
12.12
11.40
9.22
5.77
1.63
-2.34
-5.43
-7.17
-7.36
-5.85
-2.47
2.65
8.69
13.87
15.56
10.90
-2.36
-24.76
-54.40
-86.95
-116.61
-137.74
-146.46
-141.46
-123.95
-96.97
-64.80
-32.57
-6.06
9.23
9.57
-5.00
-29.51
-54.82
-70.37
-68.09
-45.68
-7.26
38.68
83.00
119.24
144.88
160.76
169.14
172.08
170.65
165.28
156.41
144.99
132.21
119.00
105.60
91.49
75.96
58.92
41.34
25.30
13.23
7.07
7.47
13.38
22.36
31.30
37.42
39.15
36.57
31.10
24.75
19.20
15.22
12.49
10.04
6.92
2.74
-2.21
-7.13
-11.24
-14.11
-15.75
-16.50
-16.77
-16.82
-16.76
-16.64
-16.55
-16.66
-17.15
-18.11
-19.50
-21.13
-22.81
-24.39
-25.81
-27.08
-28.17
-29.04
-29.59
-29.80
-29.69
-29.36
-28.92
-28.43
-27.90
-27.26
-26.46
-25.48
-24.34
-23.13
-21.97
-21.00
-20.26
-19.68
-19.06
-18.15
-16.75
-14.85
-12.65
-10.46
-8.65
-7.41
-6.77
-6.58
-6.68
-6.89
-7.11
-7.24
-7.16
-6.75
-5.92
-4.67
-3.11
-1.42
0.20
1.61
2.72
3.51
4.02
4.33
4.60
4.98
5.59
6.43
7.40
8.27
8.80
8.80
8.25
7.26
6.08
4.97
4.14
3.65
3.43
3.25
2.86
2.06
0.80
-0.75
-2.36
-3.80
-4.96
-5.95
-6.96
-8.16
-9.65
-11.36
-13.13
-14.78
-16.24
-17.48
-18.54
-19.42
-20.04
-20.32
-20.17
-19.59
-18.63
-17.35
-15.79
-13.93
-11.77
-9.39
-6.96
-4.72
-2.87
-1.45
-0.27
0.96
2.52
4.51
6.75
8.82
10.29
10.91
10.74
10.19
9.85
10.16
11.30
13.09
15.14
16.83
17.43
16.03
11.58
2.97
-10.66
-29.51
-52.89
-79.10
-105.63
-129.46
-147.40
-156.29
-153.39
-136.96
-107.14
-66.67
-20.99
22.79
57.70
79.09
86.04
81.37
70.23
57.93
48.04
41.70
38.21
36.38
35.63
36.39
39.57
45.58
53.75
62.45
69.74
74.22
75.46
73.82
69.98
64.49
57.67
49.84
41.56
33.67
27.09
22.37
19.53
18.11
17.47
17.07
16.54
15.45
12.99
7.86
-1.42
-15.90
-35.42
-58.02
-80.11
-97.28
-105.90
-104.50
-94.54
-79.84
-65.07
-53.71
-46.79
-42.84
-39.11
-33.35
-25.01
-15.30
-6.26
0.48
4.49
6.43
7.31
7.85
8.26
8.63
9.36
11.31
15.56
22.87
33.14
45.35
57.75
68.36
75.49
78.09
76.04
70.28
62.60
55.28
50.49
49.64
53.07
59.95
68.65
77.32
84.39
89.06
91.31
91.80
91.36
90.66
89.97
89.20
88.11
86.50
84.08
80.25
73.76
62.79
45.35
20.12
-12.74
-51.21
-91.55
-129.15
-159.75
-180.45
-190.32
-190.32
-182.66
-169.92
-154.38
-137.63
-120.67
-104.12
-88.54
-74.46
-62.28
-52.14
-43.84
-36.93
-30.96
-25.61
-20.82
-16.73
-13.61
-11.73
-11.20
-11.84
-13.21
-14.73
-15.89
-16.47
-16.53
-16.41
-16.43
-16.68
-16.97
-16.83
-15.66
-12.99
-8.61
-2.72
4.03
10.63
15.88
18.84
19.21
17.62
15.54
14.81
16.88
22.12
29.52
36.95
41.93
42.67
38.77
31.44
22.98
15.86
11.74
10.85
12.07
13.57
13.74
11.93
8.70
5.39
3.42
3.47
5.20
7.45
8.86
8.54
6.48
3.41
0.42
-1.61
-2.35
-2.08
-1.49
-1.33
-2.10
-3.86
-6.32
-9.01
-11.56
-13.81
-15.82
-17.70
-19.45
-20.85
-21.51
-21.09
-19.50
-16.98
-14.00
-11.09
-8.64
-6.86
-5.80
-5.51
-6.01
-7.30
-9.23
-11.46
-13.45
-14.58
-14.36
-12.61
-9.52
-5.70
-1.95
0.95
2.48
2.48
1.17
-0.97
-3.39
-5.61
-7.32
-8.42
-8.97
-9.16
-9.26
-9.53
-10.17
-11.22
-12.58
-13.97
-15.02
-15.41
-14.98
-13.78
-12.00
-9.95
-7.85
-5.87
-4.04
-2.34
-0.78
0.60
1.74
2.56
2.95
2.77
1.92
0.43
-1.43
-3.13
-3.99
-3.46
-1.46
1.48
4.30
5.90
5.64
3.65
0.78
-1.81
-3.22
-3.16
-1.95
-0.17
1.73
3.71
5.98
8.75
11.90
14.94
17.21
18.33
18.40
18.02
17.91
18.45
19.42
20.05
19.45
17.17
13.50
9.45
6.25
4.79
5.22
6.93
8.90
10.29
10.74
10.50
10.08
9.84
9.75
9.46
8.57
7.02
5.24
3.99
3.94
5.28
7.61
10.13
11.96
12.59
11.98
10.48
8.58
6.69
5.05
3.78
2.96
2.66
2.86
3.31
3.56
3.04
1.35
-1.54
-5.19
-8.91
-11.99
-14.08
-15.27
-15.87
-16.15
-16.06
-15.18
-12.97
-9.19
-4.11
1.47
6.46
9.92
11.35
10.85
9.00
6.61
4.40
2.80
1.90
1.57
1.62
1.98
2.79
4.26
6.45
9.13
11.68
13.35
13.55
12.16
9.63
6.72
4.22
2.60
1.96
2.06
2.58
3.24
3.93
4.58
5.07
5.20
4.71
3.45
1.48
-0.82
-2.89
-4.17
-4.32
-3.39
-1.79
-0.14
1.03
1.46
1.24
0.69
0.13
-0.24
-0.45
-0.67
-1.14
-2.04
-3.36
-4.86
-6.12
-6.68
-6.28
-4.98
-3.18
-1.42
-0.07
0.85
1.68
2.79
4.27
5.81
6.75
6.54
5.00
2.57
0.07
-1.64
-2.04
-1.09
0.82
3.13
5.31
6.98
7.96
8.16
7.60
6.41
4.85
3.29
2.18
1.87
2.49
3.81
5.31
6.39
6.52
5.55
3.69
1.51
-0.32
-1.33
-1.37
-0.70
0.25
1.07
1.49
1.47
1.04
0.29
-0.70
-1.77
-2.66
-3.06
-2.75
-1.79
-0.61
0.21
0.14
-0.99
-2.93
-5.14
-7.13
-8.67
-9.78
-10.59
-11.12
-11.12
-10.27
-8.38
-5.63
-2.59
0.00
1.60
2.14
2.05
2.02
2.56
3.74
5.09
5.87
5.53
3.99
1.79
-0.22
-1.27
-1.02
0.26
1.89
3.15
3.60
3.27
2.56
1.97
1.85
2.24
2.87
3.35
3.37
2.83
1.88
0.79
-0.15
-0.75
-1.03
-1.13
-1.31
-1.73
-2.44
-3.37
-4.36
-5.29
-6.13
-6.90
-7.62
-8.30
-8.89
-9.40
-9.91
-10.55
-11.46
-12.67
-14.04
-15.34
-16.31
-16.81
-16.81
-16.35
-15.47
-14.12
-12.20
-9.63
-6.39
-2.59
1.53
5.62
9.36
12.47
14.81
16.39
17.37
17.89
18.09
18.03
17.74
17.27
16.70
16.15
15.70
15.38
15.10
14.77
14.32
13.73
13.00
12.15
11.19
10.13
8.98
7.82
6.70
5.71
4.92
4.34
3.96
3.70
3.45
3.08
2.46
1.54
0.35
-0.98
-2.27
-3.32
-3.99
-4.23
-4.09
-3.77
-3.51
-3.54
-3.94
-4.68
-5.55
-6.36
-7.02
-7.56
-8.11
-8.76
-9.52
-10.22
-10.61
-10.44
-9.56
-7.96
-5.79
-3.29
-0.82
1.32
2.86
3.69
3.84
3.47
2.82
2.14
1.65
1.51
1.79
2.43
3.25
3.99
4.35
4.15
3.39
2.27
1.08
0.09
-0.58
-0.96
-1.17
-1.33
-1.49
-1.65
-1.85
-2.21
-2.94
-4.14
-5.80
-7.71
-9.53
-11.01
-12.13
-13.12
-14.41
-16.38
-19.19
-22.61
-26.17
-29.30
-31.67
-33.36
-34.80
-36.60
-39.27
-42.96
-47.46
-52.28
-56.87
-60.84
-64.09
-66.82
-69.32
-71.83
-74.21
-75.87
-75.79
-72.77
-65.78
-54.42
-39.06
-20.87
-1.55
17.11
33.51
46.53
55.62
60.74
62.33
61.18
58.26
54.60
51.04
48.22
46.45
45.78
45.99
46.68
47.38
47.71
47.47
46.74
45.76
44.85
44.20
43.73
43.15
42.13
40.42
38.00
35.06
31.91
28.83
26.04
23.60
21.52
19.72
18.06
16.41
14.62
12.62
10.39
7.98
5.42
2.72
-0.15
-3.23
-6.48
-9.77
-12.93
-15.75
-18.15
-20.13
-21.76
-23.11
-24.16
-24.83
-25.02
-24.68
-23.81
-22.44
-20.60
-18.26
-15.39
-12.01
-8.20
-4.22
-0.40
2.95
5.62
7.54
8.84
9.74
10.45
11.11
11.76
12.36
12.88
13.32
13.75
14.22
14.70
15.04
15.05
14.59
13.68
12.50
11.34
10.46
9.97
9.78
9.73
9.64
9.44
9.19
8.95
8.75
8.54
8.20
7.62
6.78
5.77
4.73
3.78
2.97
2.28
1.62
0.94
0.23
-0.48
-1.15
-1.74
-2.27
-2.81
-3.45
-4.27
-5.37
-6.73
-8.30
-9.90
-11.32
-12.31
-12.68
-12.37
-11.41
-9.98
-8.28
-6.47
-4.64
-2.84
-1.08
0.57
1.98
2.97
3.44
3.41
3.06
2.63
2.35
2.35
2.57
2.81
2.91
2.79
2.52
2.28
2.24
2.52
3.09
3.80
4.45
4.88
4.99
4.80
4.44
4.07
3.87
3.93
4.23
4.67
5.06
5.21
5.01
4.45
3.62
2.69
1.85
1.22
0.81
0.53
0.22
-0.24
-0.93
-1.81
-2.79
-3.76
-4.69
-5.59
-6.48
-7.36
-8.21
-9.01
-9.83
-10.70
-11.63
-12.51
-13.08
-13.08
-12.33
-10.83
-8.74
-6.33
-3.86
-1.52
0.54
2.20
3.38
4.07
4.39
4.58
4.86
5.37
6.07
6.78
7.29
7.47
7.35
7.10
6.87
6.76
6.77
6.79
6.74
6.56
6.30
6.05
5.91
5.91
6.01
6.11
6.09
5.86
5.38
4.70
3.88
3.02
2.20
1.49
0.96
0.64
0.50
0.41
0.21
-0.25
-1.00
-1.93
-2.85
-3.57
-4.00
-4.22
-4.45
-4.93
-5.84
-7.20
-8.89
-10.68
-12.30
-13.56
-14.36
-14.73
-14.74
-14.48
-13.98
-13.20
-12.09
-10.63
-8.92
-7.17
-5.62
-4.46
-3.77
-3.49
-3.46
-3.47
-3.41
-3.23
-3.02
-2.91
-3.06
-3.58
-4.49
-5.72
-7.02
-8.09
-8.57
-8.22
-6.98
-5.03
-2.77
-0.71
0.77
1.48
1.53
1.25
1.09
1.44
2.52
4.33
6.65
9.13
11.43
13.31
14.70
15.67
16.40
17.01
17.54
17.91
17.94
17.35
15.81
13.03
8.85
3.42
-2.67
-8.51
-13.15
-16.00
-17.12
-17.20
-17.18
-17.79
-19.09
-20.53
-21.19
-20.23
-17.37
-12.88
-7.53
-2.23
2.32
5.86
8.64
11.27
14.44
18.50
23.30
28.09
31.85
33.75
33.56
31.79
29.50
27.86
27.67
29.00
31.22
33.23
33.82
32.10
27.84
21.74
15.43
11.02
10.50
14.91
23.84
35.47
46.86
54.62
55.66
48.17
32.43
11.33
-10.21
-26.78
-34.49
-32.57
-23.61
-12.18
-2.77
1.99
1.85
-1.85
-7.45
-13.77
-20.20
-26.35
-31.84
-36.55
-41.08
-46.81
-55.33
-67.46
-82.55
-98.65
-113.30
-124.62
-132.00
-136.13
-138.51
-140.76
-144.12
-149.19
-155.68
-162.35
-166.96
-166.42
-157.33
-136.95
-104.37
-61.32
-12.13
37.16
80.29
112.24
130.37
134.82
128.22
114.73
98.83
84.15
73.09
66.40
63.60
63.46
64.66
66.04
66.72
66.09
63.87
60.87
58.32
57.40
58.60
61.56
65.16
68.01
69.21
68.53
67.48
67.57
69.32
71.97
74.21
75.03
74.10
72.02
69.61
69.29
72.72
80.13
90.28
101.56
112.83
123.61
134.16
144.56
156.66
171.18
186.87
200.68
209.38
211.01
205.00
192.05
159.31
101.14
21.96
-64.36
-142.05
-200.08
-234.01
-247.79
-246.19
-234.72
-217.10
-197.03
-177.28
-161.10
-150.15
-143.83
-140.14
-136.51
-131.69
-124.11
-113.62
-101.41
-89.75
-80.63
-75.17
-73.68
-75.55
-80.06
-85.23
-89.14
-90.54
-89.25
-85.69
-80.54
-74.39
-67.49
-59.99
-51.56
-42.10
-32.19
-23.01
-15.64
-10.41
-6.66
-2.89
2.29
9.56
18.28
26.69
32.61
34.49
31.93
25.67
17.08
7.46
-2.19
-11.17
-18.86
-24.64
-28.08
-29.16
-28.42
-26.73
-24.82
-22.91
-20.61
-17.31
-12.68
-7.05
-1.36
3.40
6.80
9.39
12.51
17.79
26.26
37.82
51.07
63.72
73.42
78.48
78.44
74.00
66.70
58.27
50.26
43.84
39.75
38.34
39.60
43.00
47.52
51.87
54.84
55.66
54.23
51.01
46.72
42.01
37.34
32.99
29.17
26.03
23.54
21.49
19.45
17.03
14.06
10.81
7.86
5.90
5.36
6.24
8.06
10.09
11.64
12.33
12.16
11.40
10.44
9.55
8.81
8.19
7.57
6.88
6.09
5.11
3.83
2.15
0.16
-1.85
-3.49
-4.45
-4.76
-4.80
-5.11
-6.07
-7.69
-9.53
-10.97
-11.56
-11.25
-10.41
-9.49
-8.84
-8.42
-7.98
-7.18
-5.90
-4.25
-2.54
-1.06
0.10
1.01
1.89
2.87
3.96
4.99
5.77
6.15
6.04
5.43
4.30
2.69
0.68
-1.55
-3.74
-5.64
-7.14
-8.31
-9.35
-10.49
-11.83
-13.28
-14.67
-15.87
-16.86
-17.68
-18.38
-18.85
-18.90
-18.33
-17.08
-15.36
-13.48
-11.74
-10.23
-8.78
-7.11
-4.98
-2.40
0.41
3.15
5.62
7.77
9.68
11.41
12.85
13.80
14.05
13.57
12.60
11.53
10.78
10.58
10.87
11.32
11.53
11.14
10.03
8.30
6.26
4.23
2.47
1.11
0.13
-0.57
-1.06
-1.41
-1.69
-2.04
-2.63
-3.61
-5.01
-6.68
-8.33
-9.66
-10.44
-10.63
-10.29
-9.56
-8.56
-7.41
-6.22
-5.10
-4.09
-3.18
-2.30
-1.45
-0.72
-0.25
-0.21
-0.58
-1.17
-1.72
-2.01
-2.03
-1.93
-1.93
-2.11
-2.39
-2.53
-2.38
-1.91
-1.29
-0.77
-0.55
-0.64
-0.95
-1.29
-1.54
-1.65
-1.69
-1.73
-1.84
-2.02
-2.18
-2.16
-1.76
-0.85
0.70
2.87
5.51
8.34
11.03
13.32
15.08
16.29
17.05
17.43
17.54
17.39
17.05
16.58
16.16
15.98
16.08
16.44
16.95
17.48
17.92
18.15
18.11
17.98
17.97
18.18
18.58
19.10
19.63
20.02
20.13
19.80
19.38
19.12
19.00
18.72
17.95
16.59
14.78
12.96
11.58
11.70
13.89
17.90
22.82
27.64
31.80
35.09
37.69
39.68
41.84
44.54
47.44
49.73
50.64
49.80
46.99
42.30
29.78
7.10
-23.16
-54.47
-80.54
-98.44
-107.80
-111.50
-111.40
-108.13
-100.56
-87.66
-69.92
-49.57
-29.83
-13.68
-3.26
0.75
-1.53
-8.79
-19.74
-33.33
-48.38
-62.93
-74.32
-80.14
-79.16
-72.06
-60.48
-46.43
-31.39
-15.93
-0.07
15.97
31.11
43.77
52.40
56.63
57.27
55.77
53.55
51.42
49.65
48.22
47.23
46.92
47.57
49.14
51.15
52.82
53.40
52.55
50.49
47.95
45.86
44.95
45.43
46.93
48.64
49.67
49.32
47.29
43.60
38.47
32.19
25.09
17.59
10.15
3.16
-3.18
-8.92
-14.42
-20.33
-27.46
-36.61
-48.18
-61.77
-75.89
-88.04
-95.34
-95.54
-87.87
-73.46
-55.05
-36.13
-19.98
-8.93
-4.05
-5.14
-10.85
-18.97
-26.86
-32.19
-33.71
-32.00
-29.41
-29.22
-34.33
-45.78
-62.18
-80.26
-96.21
-107.26
-112.27
-111.42
-105.18
-93.52
-75.93
-52.31
-24.01
5.94
33.60
55.75
71.17
80.90
87.44
93.24
99.51
105.84
110.63
111.93
108.25
98.98
84.64
66.75
47.58
29.53
14.48
3.36
-4.07
-8.79
-11.99
-14.47
-16.50
-17.96
-18.75
-19.00
-19.07
-19.30
-19.82
-20.39
-20.54
-19.87
-18.30
-16.18
-14.16
-12.89
-12.71
-13.50
-14.73
-15.75
-16.04
-15.44
-14.18
-12.71
-11.46
-10.66
-10.29
-10.16
-10.04
-9.76
-9.28
-8.60
-7.70
-6.49
-4.88
-2.78
-0.27
2.48
5.20
7.64
9.64
11.20
12.43
13.45
14.37
15.27
16.16
16.98
17.66
18.16
18.44
18.58
18.68
18.83
19.08
19.42
19.73
19.88
19.76
19.32
18.55
17.43
15.92
13.95
11.51
8.63
5.44
2.06
-1.42
-5.00
-8.65
-12.28
-15.64
-18.40
-20.26
-21.12
-21.07
-20.34
-19.17
-17.69
-15.93
-13.98
-12.04
-10.39
-9.33
-8.91
-8.99
-9.24
-9.30
-8.91
-7.85
-5.94
-3.11
0.52
4.52
8.16
10.64
11.37
10.22
7.58
4.09
0.38
-3.16
-6.40
-9.31
-11.81
-13.77
-15.14
-16.08
-17.00
-18.48
-21.05
-24.90
-29.84
-35.27
-40.34
-44.27
-46.58
-47.24
-46.69
-45.55
-44.34
-43.11
-41.44
-38.57
-33.92
-27.44
-19.80
-12.18
-5.75
-1.10
2.09
4.83
8.36
13.44
20.02
27.33
34.33
40.38
45.22
48.78
50.56
49.48
44.40
35.03
22.55
9.23
-2.99
-13.91
-25.20
-39.15
-56.43
-74.61
-88.61
-93.23
-86.13
-69.35
-48.23
-28.38
-12.87
-1.25
9.17
20.76
33.71
45.68
53.29
54.20
48.45
38.29
26.84
16.91
10.33
7.75
8.92
12.60
17.48
22.43
26.84
30.02
31.65
31.81
30.92
29.38
26.70
22.63
17.38
11.88
6.34
0.83
-4.56
-9.74
-14.83
-21.25
-29.66
-39.44
-48.52
-55.94
-61.50
-65.62
-69.38
-74.42
-83.63
-97.91
-115.16
-130.34
-139.47
-139.84
-130.42
-111.97
-78.28
-31.13
20.57
61.67
90.82
109.90
120.67
123.94
121.21
114.94
106.57
97.88
90.38
85.16
80.40
73.76
64.41
53.65
44.20
37.58
34.49
34.50
36.62
38.10
36.70
31.95
25.17
18.51
13.04
9.24
7.09
6.69
7.45
9.00
11.56
15.55
21.00
26.88
31.82
34.72
35.40
34.20
32.11
30.30
29.51
29.57
29.31
27.37
22.91
16.23
8.47
1.35
-3.52
-5.30
-4.27
-1.56
1.33
3.10
2.82
-0.08
-6.04
-15.28
-27.54
-41.74
-55.85
-67.42
-74.40
-75.94
-72.72
-66.57
-59.56
-53.25
-48.25
-44.37
-41.02
-37.55
-33.50
-28.54
-22.55
-15.55
-7.71
0.63
8.94
16.41
22.16
25.43
26.04
24.52
22.03
19.86
18.71
18.23
17.02
13.18
5.25
-7.01
-22.26
-37.88
-50.75
-58.29
-59.24
-54.06
-44.68
-33.75
-23.69
-15.90
-10.53
-6.90
-4.20
-2.11
-0.88
-1.02
-2.70
-5.50
-8.48
-10.69
-11.61
-11.35
-10.50
-9.69
-9.30
-9.23
-9.06
-8.34
-6.84
-4.66
-2.20
0.08
1.86
3.09
3.99
4.89
6.08
7.63
9.39
11.09
12.45
13.32
13.70
13.73
13.57
13.33
13.04
12.62
12.02
11.23
10.38
9.72
9.52
9.91
10.84
12.01
13.02
13.50
13.29
12.49
11.36
10.18
9.10
8.13
7.17
6.15
5.12
4.17
3.45
2.97
2.68
2.46
2.24
2.07
2.12
2.55
3.39
4.43
5.21
5.23
4.18
2.10
-0.63
-3.38
-5.56
-6.79
-7.02
-6.46
-5.45
-4.29
-3.18
-2.17
-1.15
-0.03
1.30
2.84
4.47
6.04
7.27
7.91
7.70
6.46
4.16
0.95
-2.89
-7.05
-11.33
-15.77
-20.48
-25.52
-30.62
-35.16
-38.32
-39.42
-38.22
-34.97
-30.23
-24.58
-18.36
-11.69
-4.61
2.63
9.51
15.30
19.40
21.46
21.62
20.39
18.50
16.68
15.47
15.16
15.73
16.91
18.33
19.60
20.51
20.99
21.15
21.07
20.82
20.36
19.66
18.80
17.97
17.40
17.20
17.28
17.34
17.08
16.32
15.16
13.89
12.85
12.27
12.12
12.20
12.23
12.02
11.50
10.79
10.03
9.33
8.73
8.14
7.48
6.73
5.93
5.17
4.54
4.09
3.82
3.73
3.87
4.28
4.92
5.65
6.19
6.28
5.79
4.79
3.55
2.39
1.55
1.06
0.78
0.45
-0.10
-0.91
-1.87
-2.76
-3.41
-3.75
-3.83
-3.75
-3.64
-3.57
-3.57
-3.68
-3.99
-4.60
-5.56
-6.79
-8.05
-9.04
-9.49
-9.28
-8.42
-7.05
-5.37
-3.62
-2.01
-0.74
0.06
0.37
0.28
-0.02
-0.34
-0.52
-0.51
-0.31
-0.03
0.25
0.46
0.56
0.57
0.55
0.59
0.80
1.24
1.89
2.66
3.36
3.82
3.93
3.67
3.15
2.53
1.99
1.66
1.61
1.77
2.04
2.30
2.41
2.29
1.94
1.42
0.84
0.35
0.01
-0.19
-0.33
-0.51
-0.79
-1.19
-1.67
-2.15
-2.61
-3.06
-3.52
-4.02
-4.54
-5.03
-5.41
-5.60
-5.55
-5.21
-4.58
-3.76
-2.85
-1.98
-1.23
-0.57
0.05
0.66
1.21
1.58
1.67
1.45
1.02
0.57
0.25
0.12
0.13
0.15
0.13
0.06
0.03
0.10
0.29
0.49
0.55
0.33
-0.22
-1.05
-1.97
-2.79
-3.33
-3.57
-3.56
-3.49
-3.48
-3.59
-3.77
-3.87
-3.83
-3.63
-3.36
-3.13
-3.05
-3.14
-3.42
-3.88
-4.55
-5.41
-6.40
-7.37
-8.18
-8.74
-9.12
-9.45
-9.89
-10.50
-11.19
-11.75
-11.97
-11.75
-11.11
-10.16
-9.07
-7.93
-6.80
-5.72
-4.71
-3.79
-2.97
-2.19
-1.34
-0.30
0.97
2.41
3.84
5.01
5.74
6.02
6.02
6.12
6.69
8.00
10.06
12.59
15.15
17.30
18.82
19.72
20.25
20.65
21.09
21.55
21.94
22.20
22.42
22.82
23.59
24.74
25.99
26.81
26.63
25.06
22.07
17.98
13.37
8.94
5.41
3.59
4.31
8.29
15.76
26.22
38.34
50.18
59.85
66.06
68.41
67.34
63.67
58.20
51.44
43.68
35.18
26.32
17.56
9.26
1.58
-5.53
-12.23
-18.63
-24.64
-30.08
-34.73
-38.44
-41.24
-43.29
-44.84
-46.13
-47.34
-48.59
-49.86
-51.11
-52.20
-53.04
-53.56
-53.80
-53.92
-54.23
-55.10
-56.83
-59.45
-62.64
-65.79
-68.19
-69.24
-68.60
-66.19
-62.04
-56.23
-48.80
-39.87
-29.79
-19.21
-9.02
-0.16
6.73
11.45
14.28
15.84
16.75
17.53
18.40
19.38
20.36
21.21
21.80
22.02
21.74
20.92
19.67
18.32
17.39
17.42
18.79
21.50
25.19
29.21
32.89
35.70
37.38
37.95
37.70
37.14
36.85
37.40
39.11
41.80
44.74
46.70
46.33
42.62
35.31
24.98
12.90
0.53
-10.92
-20.67
-28.42
-34.14
-37.95
-40.03
-40.78
-40.75
-40.53
-40.57
-40.84
-40.85
-39.80
-37.12
-32.80
-27.51
-22.32
-18.21
-15.67
-14.46
-13.74
-12.47
-9.90
-5.78
-0.44
5.52
11.41
16.70
21.16
25.03
28.96
33.32
37.88
41.67
43.34
41.89
37.23
30.41
23.40
18.51
17.27
20.32
27.46
38.08
51.17
64.88
76.49
83.04
82.47
73.88
58.15
37.32
13.80
-10.82
-36.43
-63.98
-94.42
-124.17
-147.88
-160.40
-160.69
-152.24
-140.38
-129.18
-120.28
-113.06
-105.78
-97.31
-86.95
-74.98
-62.39
-51.69
-46.53
-49.43
-60.24
-73.17
-80.58
-75.58
-55.74
-23.78
13.02
46.03
67.91
76.15
74.41
68.55
65.25
64.72
65.76
67.51
70.33
75.95
85.15
96.41
105.39
107.02
97.70
78.48
54.75
30.72
13.46
7.77
14.06
28.27
44.14
55.68
59.78
56.18
46.49
33.42
18.90
3.93
-11.08
-25.46
-37.78
-45.43
-45.65
-36.66
-18.24
7.09
34.72
59.24
76.21
83.33
81.01
71.70
58.76
45.59
34.36
25.86
19.82
15.58
12.64
10.88
10.41
11.14
12.71
14.19
14.60
13.36
10.68
7.37
4.49
2.81
2.47
3.01
3.55
3.27
1.75
-0.84
-3.79
-6.16
-7.12
-6.40
-4.40
-2.08
-0.52
-0.47
-1.96
-4.39
-6.82
-8.47
-9.04
-8.79
-8.23
-7.84
-7.76
-7.85
-7.79
-7.29
-6.23
-4.67
-2.74
-0.63
1.42
3.06
3.88
3.43
1.41
-2.29
-7.45
-13.69
-20.51
-27.47
-34.22
-40.40
-45.65
-49.54
-51.81
-52.47
-51.88
-50.73
-49.73
-49.33
-49.48
-49.61
-48.88
-46.65
-42.81
-38.12
-33.88
-31.36
-31.13
-32.64
-34.35
-34.49
-31.88
-26.55
-19.69
-13.05
-8.09
-5.47
-5.03
-6.10
-7.98
-10.07
-11.67
-11.84
-9.45
-3.81
4.74
14.49
22.82
27.33
26.98
22.63
16.68
11.81
9.78
10.68
13.17
15.42
16.09
14.78
11.94
8.23
4.10
-0.29
-4.82
-9.05
-12.21
-13.40
-12.10
-8.50
-3.59
1.23
4.58
5.65
4.33
1.11
-3.22
-7.83
-11.93
-14.89
-16.33
-16.27
-15.22
-13.99
-13.24
-13.05
-12.67
-10.90
-6.71
-0.08
7.81
14.92
19.36
20.26
18.24
14.99
12.41
11.65
12.78
14.97
17.21
18.86
19.98
21.03
22.52
24.56
26.82
28.78
30.08
30.74
31.06
31.41
31.91
32.37
32.32
31.34
29.27
26.33
23.15
20.59
19.45
20.11
22.22
24.72
26.12
25.15
21.33
15.27
8.48
2.64
-1.10
-2.62
-2.67
-2.40
-2.70
-3.83
-5.51
-7.27
-8.80
-10.14
-11.60
-13.52
-16.11
-19.35
-23.10
-27.15
-31.22
-34.97
-37.95
-39.78
-40.21
-39.39
-37.78
-36.08
-34.94
-34.72
-35.32
-36.27
-36.95
-36.84
-35.64
-33.29
-29.87
-25.55
-20.56
-15.27
-10.18
-5.82
-2.62
-0.68
0.31
0.99
2.15
4.43
8.02
12.66
17.75
22.71
27.21
31.29
35.29
39.49
43.94
48.41
52.45
55.70
57.87
58.67
57.63
54.05
47.24
37.02
24.06
9.95
-3.27
-13.86
-20.98
-24.86
-26.47
-26.93
-26.93
-26.52
-25.39
-23.25
-20.16
-16.57
-13.15
-10.51
-9.03
-8.84
-9.90
-12.12
-15.37
-19.35
-23.55
-27.26
-29.66
-30.08
-28.19
-24.09
-18.31
-11.73
-5.29
0.16
4.04
6.11
6.47
5.56
4.05
2.77
2.57
4.06
7.41
12.31
17.95
23.38
27.74
30.59
31.92
32.03
31.25
29.79
27.64
24.78
21.35
17.72
14.45
12.01
10.55
9.76
9.08
7.97
6.24
4.21
2.48
1.59
1.72
2.50
3.23
3.22
2.14
0.21
-1.94
-3.62
-4.41
-4.36
-3.94
-3.74
-4.08
-4.92
-5.93
-6.74
-7.23
-7.54
-7.94
-8.54
-9.20
-9.59
-9.44
-8.80
-7.97
-7.38
-7.29
-7.67
-8.23
-8.59
-8.52
-7.94
-6.92
-5.57
-3.96
-2.12
-0.14
1.82
3.50
4.68
5.22
5.13
4.57
3.78
3.02
2.44
2.11
2.04
2.22
2.67
3.40
4.34
5.34
6.12
6.41
6.07
5.18
4.08
3.25
3.09
3.76
5.07
6.57
7.72
8.19
8.03
7.67
7.76
8.90
11.38
15.06
19.40
23.62
26.91
28.68
28.65
26.84
23.46
18.79
13.10
6.71
0.10
-6.15
-11.53
-15.81
-19.25
-22.49
-26.22
-30.72
-35.74
-40.53
-44.38
-46.89
-48.18
-48.61
-48.38
-47.31
-44.92
-40.80
-35.00
-28.13
-21.24
-15.26
-10.62
-7.03
-3.67
0.43
5.92
12.78
20.40
27.82
34.19
39.05
42.37
44.28
44.83
43.87
41.24
37.06
31.88
26.52
21.68
17.51
13.65
9.53
5.03
0.79
-1.86
-1.55
2.31
9.04
16.84
23.54
27.51
28.24
26.38
23.16
19.73
16.65
13.82
10.88
7.62
4.23
1.25
-0.81
-1.79
-2.07
-2.42
-3.62
-6.10
-9.64
-13.59
-17.20
-20.11
-22.45
-24.71
-27.32
-30.30
-33.23
-35.48
-36.60
-36.47
-35.21
-32.90
-29.49
-24.83
-19.03
-12.60
-6.36
-1.08
2.95
6.05
8.82
11.70
14.58
16.80
17.58
16.45
13.66
10.17
7.24
5.94
6.72
9.26
12.61
15.67
17.63
18.23
17.82
17.08
16.62
16.69
17.11
17.37
16.97
15.66
13.62
11.46
9.95
9.77
11.23
14.16
17.94
21.81
25.03
27.18
28.17
28.20
27.49
26.16
24.17
21.43
17.92
13.86
9.66
5.77
2.54
0.12
-1.60
-2.83
-3.79
-4.63
-5.39
-6.03
-6.54
-6.90
-7.18
-7.48
-7.86
-8.39
-9.03
-9.73
-10.37
-10.87
-11.19
-11.36
-11.48
-11.62
-11.82
-12.03
-12.22
-12.33
-12.36
-12.36
-12.36
-12.39
-12.41
-12.39
-12.27
-11.99
-11.55
-10.94
-10.19
-9.41
-8.76
-8.41
-8.47
-8.93
-9.66
-10.41
-10.98
-11.20
-11.11
-10.82
-10.51
-10.32
-10.29
-10.39
-10.58
-10.82
-11.13
-11.56
-12.09
-12.66
-13.12
-13.31
-13.11
-12.53
-11.66
-10.71
-9.82
-9.09
-8.54
-8.14
-7.88
-7.74
-7.69
-7.68
-7.62
-7.42
-7.07
-6.63
-6.21
-5.89
-5.66
-5.42
-5.02
-4.35
-3.32
-1.95
-0.30
1.48
3.27
4.88
6.20
7.12
7.68
8.01
8.28
8.65
9.25
10.09
11.12
12.27
13.45
14.58
15.60
16.42
16.90
16.85
15.98
13.98
10.57
5.70
-0.41
-7.23
-14.09
-20.33
-25.48
-29.36
-31.95
-33.30
-33.41
-32.25
-29.85
-26.37
-22.23
-18.00
-14.29
-11.60
-10.26
-10.33
-11.65
-13.86
-16.47
-18.95
-20.81
-21.69
-21.38
-19.87
-17.29
-14.00
-10.46
-7.18
-4.58
-2.85
-1.93
-1.53
-1.32
-1.05
-0.63
-0.05
0.68
1.62
2.80
4.21
5.67
6.89
7.59
7.63
7.03
5.98
4.66
3.12
1.35
-0.72
-3.04
-5.41
-7.54
-9.15
-10.06
-10.24
-9.78
-8.84
-7.63
-6.36
-5.23
-4.39
-3.90
-3.66
-3.47
-3.08
-2.33
-1.25
0.02
1.28
2.41
3.39
4.33
5.37
6.60
8.04
9.53
10.85
11.75
12.03
11.62
10.63
9.36
8.20
7.56
7.78
8.97
11.05
13.71
16.49
18.91
20.52
21.07
20.48
18.85
16.37
13.28
9.83
6.27
2.89
-0.04
-2.32
-3.90
-4.89
-5.51
-6.00
-6.46
-6.90
-7.21
-7.29
-7.11
-6.75
-6.36
-6.09
-5.97
-5.87
-5.57
-4.80
-3.39
-1.39
0.89
2.99
4.46
5.00
4.60
3.53
2.23
1.10
0.38
0.08
0.14
0.47
1.12
2.20
3.80
5.87
8.15
10.28
11.92
12.86
13.13
12.98
12.69
12.55
12.70
13.17
13.91
14.84
15.92
17.11
18.28
19.14
19.30
18.38
16.27
13.24
9.89
6.81
4.31
2.26
0.23
-2.09
-4.59
-6.70
-7.68
-7.19
-5.45
-3.26
-1.49
-0.63
-0.53
-0.65
-0.44
0.21
0.85
0.69
-0.91
-4.09
-8.32
-12.62
-15.91
-17.47
-17.13
-15.35
-12.95
-10.82
-9.52
-9.19
-9.57
-10.23
-10.74
-10.88
-10.67
-10.24
-9.84
-9.65
-9.81
-10.34
-11.17
-12.13
-13.01
-13.59
-13.69
-13.25
-12.32
-11.11
-9.92
-9.07
-8.74
-8.93
-9.37
-9.57
-9.05
-7.43
-4.64
-0.94
3.21
7.28
10.81
13.48
15.12
15.68
15.27
14.13
12.57
10.91
9.34
7.91
6.52
5.06
3.56
2.23
1.49
1.69
2.97
5.09
7.45
9.30
10.02
9.34
7.39
4.65
1.75
-0.63
-2.01
-2.17
-1.26
0.34
2.06
3.40
4.05
3.94
3.19
1.99
0.55
-0.92
-2.21
-3.03
-3.12
-2.33
-0.74
1.30
3.35
4.95
5.85
6.03
5.70
5.21
4.87
4.92
5.42
6.28
7.28
8.19
8.85
9.20
9.29
9.27
9.31
9.55
10.07
10.83
11.74
12.61
13.24
13.47
13.17
12.31
10.91
9.06
6.98
4.93
3.19
1.97
1.34
1.17
1.22
1.21
0.93
0.29
-0.66
-1.80
-3.02
-4.22
-5.32
-6.21
-6.77
-6.87
-6.50
-5.71
-4.65
-3.49
-2.34
-1.22
-0.14
0.92
1.90
2.70
3.26
3.54
3.62
3.62
3.64
3.78
4.04
4.38
4.69
4.87
4.82
4.47
3.81
2.91
1.90
0.93
0.10
-0.54
-0.99
-1.33
-1.67
-2.08
-2.61
-3.21
-3.78
-4.14
-4.16
-3.82
-3.22
-2.60
-2.22
-2.24
-2.64
-3.20
-3.66
-3.77
-3.47
-2.88
-2.21
-1.68
-1.37
-1.25
-1.21
-1.22
-1.30
-1.55
-2.02
-2.66
-3.30
-3.77
-4.00
-4.02
-4.00
-4.01
-4.05
-4.00
-3.70
-3.13
-2.38
-1.65
-1.09
-0.67
-0.22
0.46
1.48
2.74
4.02
5.03
5.63
5.82
5.71
5.46
5.18
4.90
4.66
4.52
4.54
4.82
5.35
6.09
6.93
7.77
8.58
9.32
9.96
10.45
10.72
10.73
10.52
10.12
9.61
9.03
8.37
7.60
6.70
5.73
4.76
3.88
3.12
2.46
1.86
1.26
0.61
-0.09
-0.82
-1.57
-2.29
-2.93
-3.44
-3.80
-3.96
-3.93
-3.68
-3.17
-2.41
-1.43
-0.31
0.79
1.69
2.26
2.41
2.21
1.77
1.27
0.83
0.47
0.14
-0.23
-0.65
-1.03
-1.26
-1.25
-1.05
-0.80
-0.64
-0.67
-0.85
-1.07
-1.23
-1.33
-1.45
-1.66
-1.98
-2.34
-2.62
-2.76
-2.79
-2.78
-2.82
-2.91
-3.02
-3.05
-2.92
-2.66
-2.35
-2.15
-2.20
-2.58
-3.24
-4.03
-4.73
-5.14
-5.16
-4.84
-4.35
-3.91
-3.72
-3.88
-4.37
-5.06
-5.82
-6.47
-6.87
-6.88
-6.43
-5.56
-4.40
-3.20
-2.19
-1.49
-1.04
-0.68
-0.23
0.36
0.98
1.42
1.50
1.18
0.54
-0.27
-1.15
-2.05
-2.94
-3.79
-4.47
-4.82
-4.69
-4.06
-3.01
-1.72
-0.43
0.68
1.51
2.04
2.32
2.45
2.50
2.53
2.54
2.51
2.43
2.29
2.11
1.93
1.76
1.61
1.52
1.51
1.58
1.67
1.69
1.53
1.13
0.51
-0.20
-0.84
-1.29
-1.58
-1.82
-2.17
-2.73
-3.48
-4.29
-4.98
-5.41
-5.53
-5.40
-5.11
-4.70
-4.19
-3.57
-2.84
-2.09
-1.44
-0.99
-0.78
-0.76
-0.86
-0.97
-1.05
-1.06
-1.01
-0.92
-0.82
-0.80
-0.94
-1.28
-1.76
-2.23
-2.48
-2.38
-1.96
-1.41
-0.96
-0.79
-0.88
-1.05
-1.06
-0.74
-0.07
0.78
1.61
2.23
2.56
2.65
2.57
2.42
2.25
2.09
1.95
1.82
1.69
1.50
1.22
0.79
0.27
-0.29
-0.77
-1.09
-1.29
-1.48
-1.84
-2.46
-3.31
-4.20
-4.86
-5.06
-4.72
-3.93
-2.88
-1.79
-0.81
-0.00
0.60
0.97
1.03
0.72
0.10
-0.65
-1.26
-1.47
-1.21
-0.60
0.03
0.40
0.36
-0.02
-0.44
-0.61
-0.40
0.09
0.63
0.96
0.99
0.80
0.53
0.36
0.31
0.35
0.43
0.53
0.68
0.95
1.35
1.83
2.27
2.56
2.64
2.51
2.23
1.89
1.55
1.20
0.82
0.36
-0.20
-0.80
-1.34
-1.73
-1.93
-1.99
-2.00
-2.05
-2.18
-2.33
-2.39
-2.27
-1.94
-1.43
-0.81
-0.18
0.37
0.81
1.11
1.28
1.33
1.27
1.13
0.91
0.64
0.37
0.17
0.10
0.22
0.56
1.08
1.67
2.24
2.69
2.96
3.05
3.00
2.84
2.62
2.41
2.26
2.25
2.38
2.62
2.91
3.13
3.21
3.10
2.78
2.28
1.66
1.01
0.42
-0.01
-0.24
-0.32
-0.33
-0.38
-0.52
-0.75
-1.01
-1.26
-1.51
-1.79
-2.16
-2.62
-3.16
-3.73
-4.26
-4.73
-5.11
-5.37
-5.46
-5.33
-4.89
-4.11
-3.06
-1.85
-0.67
0.35
1.10
1.58
1.86
1.98
1.99
1.89
1.69
1.44
1.23
1.12
1.17
1.33
1.54
1.72
1.86
1.98
2.15
2.37
2.64
2.91
3.18
3.47
3.82
4.22
4.58
4.76
4.62
4.12
3.36
2.53
1.87
1.53
1.50
1.63
1.71
1.57
1.16
0.58
-0.01
-0.46
-0.73
-0.84
-0.84
-0.76
-0.61
-0.40
-0.17
-0.04
-0.17
-0.66
-1.51
-2.58
-3.66
-4.53
-5.03
-5.13
-4.86
-4.33
-3.64
-2.86
-2.09
-1.37
-0.78
-0.36
-0.13
-0.05
-0.09
-0.20
-0.36
-0.56
-0.79
-0.97
-1.02
-0.86
-0.46
0.12
0.79
1.45
2.08
2.66
3.17
3.57
3.82
3.86
3.73
3.53
3.38
3.39
3.59
3.90
4.16
4.22
3.98
3.44
2.71
1.93
1.24
0.76
0.53
0.56
0.79
1.10
1.38
1.52
1.47
1.22
0.78
0.23
-0.41
-1.08
-1.76
-2.38
-2.87
-3.23
-3.46
-3.68
-3.98
-4.41
-4.92
-5.38
-5.61
-5.52
-5.14
-4.55
-3.89
-3.22
-2.57
-1.87
-1.12
-0.38
0.25
0.62
0.67
0.47
0.18
-0.04
-0.04
0.18
0.56
1.02
1.50
2.00
2.52
3.05
3.52
3.87
4.07
4.18
4.26
4.36
4.49
4.56
4.47
4.17
3.67
3.09
2.51
2.02
1.61
1.24
0.86
0.44
0.02
-0.40
-0.78
-1.10
-1.38
-1.62
-1.84
-2.04
-2.21
-2.35
-2.48
-2.62
-2.81
-3.09
-3.45
-3.84
-4.17
-4.36
-4.39
-4.26
-4.01
-3.66
-3.22
-2.66
-1.95
-1.15
-0.36
0.27
0.63
0.71
0.62
0.51
0.52
0.68
0.98
1.34
1.72
2.13
2.64
3.29
4.05
4.80
5.38
5.64
5.50
5.03
4.37
3.71
3.21
2.97
3.00
3.23
3.53
3.77
3.88
3.80
3.55
3.15
2.65
2.09
1.56
1.12
0.82
0.65
0.55
0.41
0.13
-0.32
-0.92
-1.57
-2.13
-2.53
-2.73
-2.81
-2.87
-3.02
-3.32
-3.78
-4.31
-4.81
-5.14
-5.22
-5.02
-4.55
-3.87
-3.04
-2.15
-1.30
-0.62
-0.22
-0.11
-0.29
-0.61
-0.95
-1.16
-1.21
-1.09
-0.90
-0.74
-0.67
-0.71
-0.83
-0.93
-0.93
-0.75
-0.34
0.26
1.04
1.90
2.78
3.60
4.24
4.62
4.66
4.38
3.89
3.34
2.89
2.63
2.54
2.50
2.39
2.11
1.63
1.03
0.39
-0.16
-0.55
-0.75
-0.77
-0.68
-0.52
-0.35
-0.20
-0.09
-0.07
-0.22
-0.64
-1.37
-2.36
-3.49
-4.59
-5.48
-6.05
-6.24
-6.05
-5.52
-4.67
-3.56
-2.29
-1.03
0.03
0.73
1.05
1.05
0.92
0.86
0.97
1.24
1.56
1.78
1.83
1.73
1.59
1.55
1.68
1.96
2.28
2.51
2.54
2.35
2.01
1.61
1.28
1.08
1.03
1.08
1.17
1.24
1.28
1.32
1.35
1.35
1.24
0.96
0.50
-0.03
-0.49
-0.73
-0.67
-0.38
0.02
0.34
0.48
0.40
0.17
-0.15
-0.51
-0.91
-1.37
-1.90
-2.45
-2.93
-3.28
-3.55
-3.82
-4.22
-4.78
-5.38
-5.81
-5.83
-5.35
-4.43
-3.29
-2.22
-1.43
-1.03
-1.01
-1.23
-1.53
-1.80
-1.93
-1.92
-1.82
-1.67
-1.51
-1.32
-1.04
-0.62
-0.10
0.46
0.95
1.26
1.39
1.41
1.43
1.52
1.72
1.99
2.24
2.39
2.38
2.24
2.00
1.75
1.52
1.30
1.00
0.54
-0.13
-0.95
-1.78
-2.43
-2.71
-2.55
-2.04
-1.40
-0.89
-0.70
-0.89
-1.40
-2.07
-2.75
-3.31
-3.70
-3.88
-3.84
-3.58
-3.10
-2.43
-1.62
-0.73
0.19
1.07
1.86
2.49
2.85
2.90
2.65
2.26
1.93
1.90
2.30
3.07
4.00
4.83
5.36
5.50
5.35
5.08
4.86
4.80
4.91
5.13
5.40
5.65
5.82
5.87
5.76
5.50
5.10
4.61
4.07
3.52
2.94
2.31
1.56
0.62
-0.52
-1.82
-3.18
-4.47
-5.55
-6.30
-6.69
-6.74
-6.52
-6.11
-5.63
-5.18
-4.88
-4.83
-5.08
-5.60
-6.29
-6.99
-7.53
-7.79
-7.68
-7.22
-6.44
-5.43
-4.26
-3.03
-1.82
-0.71
0.18
0.81
1.14
1.23
1.18
1.10
1.06
1.05
1.04
0.99
0.89
0.81
0.82
0.97
1.22
1.48
1.71
1.89
2.09
2.43
2.94
3.60
4.27
4.77
4.97
4.85
4.45
3.87
3.23
2.58
1.95
1.39
0.92
0.57
0.31
0.12
-0.07
-0.29
-0.56
-0.81
-0.98
-1.06
-1.05
-1.03
-1.05
-1.14
-1.29
-1.48
-1.70
-1.95
-2.25
-2.61
-3.03
-3.48
-3.87
-4.15
-4.22
-4.03
-3.61
-3.01
-2.30
-1.54
-0.79
-0.06
0.59
1.08
1.31
1.23
0.89
0.43
0.05
-0.08
0.07
0.43
0.85
1.17
1.32
1.33
1.31
1.34
1.48
1.69
1.93
2.15
2.34
2.53
2.75
2.96
3.12
3.16
3.07
2.87
2.62
2.37
2.10
1.78
1.39
0.96
0.55
0.21
-0.07
-0.35
-0.69
-1.13
-1.62
-2.04
-2.29
-2.31
-2.16
-1.95
-1.82
-1.87
-2.17
-2.68
-3.30
-3.92
-4.42
-4.71
-4.77
-4.63
-4.37
-4.06
-3.77
-3.47
-3.14
-2.71
-2.15
-1.52
-0.91
-0.43
-0.11
0.09
0.25
0.48
0.78
1.07
1.23
1.16
0.84
0.41
0.07
-0.01
0.26
0.81
1.50
2.11
2.51
2.63
2.52
2.29
2.03
1.82
1.64
1.45
1.22
0.97
0.75
0.62
0.60
0.61
0.56
0.39
0.11
-0.20
-0.43
-0.55
-0.60
-0.69
-0.91
-1.26
-1.64
-1.91
-2.01
-1.95
-1.85
-1.84
-1.98
-2.24
-2.49
-2.55
-2.30
-1.72
-0.86
0.09
0.94
1.53
1.79
1.78
1.64
1.52
1.50
1.57
1.66
1.71
1.71
1.70
1.74
1.86
2.05
2.23
2.29
2.20
1.94
1.57
1.21
0.97
0.92
1.05
1.31
1.56
1.68
1.61
1.37
1.05
0.72
0.42
0.15
-0.09
-0.30
-0.45
-0.49
-0.41
-0.27
-0.15
-0.16
-0.34
-0.64
-1.00
-1.31
-1.52
-1.64
-1.68
-1.70
-1.75
-1.89
-2.20
-2.77
-3.64
-4.78
-6.01
-7.06
-7.66
-7.60
-6.86
-5.54
-3.84
-1.93
0.02
1.91
3.64
5.06
6.03
6.47
6.38
5.96
5.49
5.24
5.40
5.98
6.82
7.66
8.29
8.57
8.46
8.05
7.48
6.88
6.33
5.90
5.57
5.29
4.97
4.54
3.92
3.09
2.09
1.08
0.25
-0.21
-0.23
0.14
0.70
1.26
1.63
1.73
1.58
1.25
0.82
0.40
0.05
-0.19
-0.32
-0.41
-0.56
-0.90
-1.48
-2.27
-3.16
-4.03
-4.78
-5.42
-6.00
-6.62
-7.29
-7.94
-8.45
-8.69
-8.57
-8.14
-7.48
-6.75
-6.10
-5.60
-5.28
-5.02
-4.64
-3.96
-2.86
-1.35
0.42
2.20
3.74
4.88
5.60
5.97
6.12
6.13
6.07
5.95
5.77
5.55
5.30
5.07
4.89
4.74
4.56
4.28
3.83
3.21
2.49
1.79
1.21
0.78
0.43
0.09
-0.31
-0.76
-1.17
-1.44
-1.48
-1.28
-0.91
-0.51
-0.25
-0.26
-0.59
-1.17
-1.82
-2.33
-2.54
-2.46
-2.23
-2.09
-2.21
-2.64
-3.30
-4.02
-4.66
-5.14
-5.44
-5.57
-5.52
-5.26
-4.78
-4.09
-3.29
-2.45
-1.66
-0.95
-0.33
0.20
0.64
0.92
1.00
0.89
0.61
0.28
-0.02
-0.21
-0.24
-0.08
0.25
0.70
1.21
1.70
2.09
2.33
2.41
2.34
2.21
2.09
2.03
2.07
2.21
2.40
2.56
2.61
2.46
2.10
1.55
0.93
0.38
-0.01
-0.21
-0.31
-0.40
-0.56
-0.77
-0.93
-0.93
-0.73
-0.35
0.08
0.43
0.62
0.65
0.56
0.39
0.14
-0.22
-0.70
-1.23
-1.70
-1.94
-1.89
-1.54
-1.01
-0.44
0.07
0.48
0.78
0.99
1.07
0.99
0.72
0.33
-0.07
-0.30
-0.26
0.05
0.50
0.90
1.09
1.05
0.91
0.84
1.01
1.45
2.03
2.55
2.83
2.80
2.54
2.20
1.93
1.80
1.82
1.89
1.94
1.92
1.83
1.69
1.51
1.30
1.03
0.68
0.31
-0.05
-0.34
-0.53
-0.66
-0.84
-1.11
-1.50
-1.94
-2.31
-2.54
-2.63
-2.66
-2.74
-2.98
-3.38
-3.89
-4.40
-4.78
-4.94
-4.86
-4.60
-4.19
-3.68
-3.04
-2.28
-1.43
-0.60
0.06
0.43
0.54
0.52
0.54
0.70
1.01
1.32
1.48
1.41
1.12
0.73
0.38
0.15
0.10
0.24
0.60
1.16
1.86
2.55
3.05
3.24
3.12
2.82
2.51
2.36
2.37
2.46
2.48
2.33
2.00
1.59
1.21
0.91
0.68
0.47
0.25
0.03
-0.14
-0.24
-0.31
-0.44
-0.71
-1.11
-1.55
-1.92
-2.11
-2.12
-2.04
-1.98
-2.05
-2.31
-2.72
-3.22
-3.74
-4.21
-4.58
-4.80
-4.83
-4.64
-4.17
-3.46
-2.56
-1.58
-0.64
0.15
0.78
1.27
1.67
2.01
2.26
2.35
2.23
1.91
1.47
1.05
0.77
0.70
0.88
1.27
1.78
2.30
2.72
2.96
3.01
2.91
2.77
2.66
2.60
2.56
2.45
2.24
1.93
1.57
1.21
0.90
0.63
0.37
0.08
-0.22
-0.52
-0.78
-0.99
-1.17
-1.33
-1.48
-1.59
-1.62
-1.58
-1.50
-1.48
-1.59
-1.88
-2.35
-2.93
-3.51
-4.02
-4.44
-4.75
-4.98
-5.14
-5.19
-5.10
-4.85
-4.42
-3.86
-3.21
-2.50
-1.75
-1.00
-0.29
0.32
0.78
1.06
1.20
1.26
1.29
1.36
1.46
1.60
1.75
1.88
1.96
1.94
1.76
1.44
1.02
0.61
0.33
0.23
0.32
0.54
0.78
0.95
1.02
0.96
0.81
0.66
0.59
0.63
0.76
0.89
0.94
0.83
0.57
0.21
-0.18
-0.55
-0.92
-1.25
-1.56
-1.79
-1.92
-2.04
-2.26
-2.74
-3.49
-4.38
-5.09
-5.31
-4.81
-3.59
-1.84
0.09
1.90
3.35
4.36
4.93
5.11
4.95
4.50
3.81
2.94
1.96
0.92
-0.15
-1.22
-2.29
-3.35
-4.33
-5.14
-5.65
-5.80
-5.58
-5.09
-4.56
-4.22
-4.25
-4.64
-5.25
-5.74
-5.80
-5.19
-3.86
-1.95
0.25
2.36
4.03
5.04
5.31
4.98
4.30
3.63
3.32
3.64
4.70
6.39
8.37
10.20
11.42
11.76
11.19
9.94
8.35
6.72
5.17
3.69
2.16
0.54
-1.05
-2.44
-3.45
-4.00
-4.17
-4.09
-3.89
-3.64
-3.30
-2.86
-2.34
-1.81
-1.36
-0.99
-0.61
-0.02
0.90
2.19
3.66
5.00
5.88
6.12
5.73
4.95
4.10
3.49
3.23
3.30
3.57
3.89
4.21
4.53
4.88
5.23
5.48
5.53
5.36
5.09
4.98
5.29
6.13
7.35
8.63
9.54
9.78
9.26
8.12
6.68
5.28
4.24
3.69
3.62
3.88
4.26
4.57
4.73
4.80
4.91
5.18
5.61
6.09
6.41
6.41
5.98
5.10
3.90
2.57
1.41
0.72
0.68
1.28
2.17
2.85
2.75
1.58
-0.61
-3.40
-6.21
-8.61
-10.46
-12.01
-13.66
-15.67
-17.95
-20.02
-21.19
-20.94
-19.20
-16.37
-13.19
-10.43
-8.61
-8.01
-8.69
-10.57
-13.35
-16.48
-19.15
-20.48
-19.86
-17.30
-13.43
-9.27
-5.73
-3.26
-1.85
-1.19
-1.08
-1.59
-3.04
-5.63
-9.22
-13.27
-17.02
-19.86
-21.61
-22.50
-23.02
-23.52
-24.04
-24.25
-23.73
-22.17
-19.60
-16.37
-13.00
-9.99
-7.64
-6.01
-4.95
-4.24
-3.68
-3.13
-2.58
-2.03
-1.44
-0.71
0.33
1.79
3.55
5.34
6.78
7.64
8.00
8.24
8.83
10.10
12.05
14.36
16.58
18.38
19.65
20.53
21.14
21.43
21.05
19.55
16.54
11.97
6.27
0.24
-5.20
-9.30
-11.74
-12.57
-12.14
-10.83
-8.82
-6.13
-2.78
1.04
4.87
8.10
10.20
10.94
10.52
9.37
7.96
6.56
5.20
3.85
2.56
1.56
1.19
1.63
2.75
4.03
4.81
4.53
3.06
0.84
-1.24
-2.12
-0.97
2.47
7.83
14.22
20.54
25.90
29.82
32.35
33.85
34.78
35.42
35.87
35.98
35.56
34.42
32.47
29.66
26.04
21.74
16.98
12.08
7.39
3.22
-0.24
-2.98
-5.13
-6.94
-8.60
-10.16
-11.53
-12.51
-12.92
-12.68
-11.92
-10.88
-9.92
-9.43
-9.77
-11.18
-13.69
-17.01
-20.54
-23.44
-24.92
-24.45
-21.94
-17.79
-12.73
-7.57
-2.99
0.58
2.94
4.10
4.22
3.52
2.27
0.78
-0.72
-2.04
-3.10
-3.92
-4.55
-5.07
-5.54
-5.89
-5.98
-5.58
-4.47
-2.58
-0.07
2.64
5.03
6.61
7.12
6.65
5.55
4.34
3.48
3.20
3.46
4.00
4.47
4.57
4.18
3.41
2.56
2.00
1.98
2.56
3.53
4.59
5.41
5.79
5.68
5.19
4.44
3.50
2.43
1.26
0.08
-1.00
-1.81
-2.26
-2.33
-2.04
-1.46
-0.66
0.34
1.52
2.81
4.08
5.16
5.83
5.92
5.40
4.38
3.11
1.87
0.92
0.37
0.19
0.26
0.42
0.56
0.63
0.66
0.65
0.67
0.73
0.88
1.17
1.57
2.01
2.37
2.51
2.38
2.01
1.50
0.96
0.46
0.02
-0.42
-0.87
-1.36
-1.83
-2.23
-2.54
-2.79
-3.07
-3.43
-3.90
-4.45
-5.01
-5.52
-5.96
-6.32
-6.63
-6.85
-6.93
-6.81
-6.44
-5.86
-5.19
-4.56
-4.10
-3.85
-3.76
-3.73
-3.63
-3.40
-3.04
-2.62
-2.29
-2.19
-2.39
-2.90
-3.61
-4.39
-5.06
-5.49
-5.61
-5.39
-4.86
-4.10
-3.22
-2.32
-1.50
-0.80
-0.15
0.56
1.47
2.67
4.14
5.75
7.28
8.47
9.11
9.10
8.47
7.43
6.29
5.39
4.97
5.09
5.59
6.21
6.67
6.81
6.62
6.18
5.61
5.00
4.38
3.70
2.97
2.20
1.42
0.68
-0.02
-0.66
-1.23
-1.62
-1.65
-1.18
-0.30
0.59
0.82
-0.26
-2.98
-7.08
-11.79
-16.09
-19.10
-20.42
-20.11
-18.57
-16.25
-13.50
-10.54
-7.63
-5.08
-3.22
-2.28
-2.25
-2.85
-3.65
-4.22
-4.29
-3.79
-2.84
-1.64
-0.42
0.64
1.40
1.73
1.56
0.93
-0.06
-1.17
-2.19
-2.92
-3.23
-3.07
-2.43
-1.34
0.08
1.64
3.11
4.28
4.99
5.25
5.15
4.93
4.77
4.80
5.01
5.27
5.38
5.19
4.67
3.97
3.32
2.94
2.90
3.10
3.29
3.21
2.75
1.97
1.11
0.46
0.27
0.63
1.52
2.76
4.12
5.38
6.38
7.08
7.55
7.91
8.21
8.43
8.40
7.91
6.81
5.15
3.18
1.27
-0.22
-1.09
-1.35
-1.18
-0.81
-0.42
-0.10
0.18
0.40
0.54
0.52
0.35
0.12
0.05
0.30
0.82
1.28
1.15
-0.04
-2.51
-6.02
-9.96
-13.54
-16.07
-17.16
-16.79
-15.26
-13.01
-10.54
-8.26
-6.44
-5.18
-4.45
-4.02
-3.61
-2.86
-1.47
0.70
3.53
6.58
9.17
10.63
10.55
8.97
6.39
3.61
1.38
0.17
0.05
0.70
1.69
2.56
3.05
3.13
2.93
2.69
2.71
3.25
4.39
6.01
7.74
9.08
9.58
9.02
7.50
5.44
3.41
2.00
1.66
2.61
4.87
8.24
12.40
16.91
21.25
24.97
27.66
29.11
29.22
27.98
25.29
20.99
14.83
6.68
-3.10
-13.41
-22.41
-27.95
-28.40
-23.42
-14.16
-2.91
7.86
16.38
21.97
24.81
25.32
23.62
19.43
12.43
2.77
-8.67
-20.42
-30.94
-39.10
-44.40
-46.86
-46.73
-44.25
-39.46
-32.33
-23.01
-12.01
-0.25
11.03
20.72
28.11
33.11
36.08
37.57
37.94
37.20
35.07
31.21
25.35
17.50
7.95
-2.59
-13.06
-22.04
-28.15
-30.47
-29.07
-25.18
-20.79
-17.95
-17.90
-20.60
-24.89
-29.14
-31.98
-32.88
-32.13
-30.49
-28.64
-26.83
-24.86
-22.25
-18.67
-14.11
-8.93
-3.74
0.91
4.77
8.01
11.03
14.21
17.66
21.04
23.81
25.50
26.05
25.97
26.07
27.08
29.25
32.24
35.22
37.30
37.85
36.75
34.25
30.77
26.68
22.06
16.83
10.85
4.05
-3.49
-11.57
-19.95
-28.34
-36.38
-43.65
-49.65
-53.99
-56.52
-57.44
-57.22
-56.43
-55.54
-54.71
-53.84
-52.72
-51.19
-49.18
-46.78
-44.14
-41.47
-38.97
-36.72
-34.60
-32.28
-29.25
-25.01
-19.23
-11.96
-3.58
5.24
13.79
21.49
28.12
33.78
38.84
43.66
48.44
53.01
56.90
59.50
60.33
59.25
56.53
52.64
48.15
43.45
38.74
33.99
29.03
23.65
17.65
11.08
4.40
-1.38
-4.78
-4.37
0.63
9.73
21.12
32.22
40.68
45.19
45.90
44.07
41.17
38.15
35.18
31.95
28.12
23.54
18.10
11.61
3.87
-4.96
-13.94
-21.54
-26.33
-27.98
-27.82
-28.35
-31.94
-39.33
-48.90
-57.49
-62.08
-61.59
-57.71
-54.08
-54.58
-61.35
-73.73
-88.56
-101.64
-109.75
-112.04
-110.21
-107.41
-106.47
-108.30
-111.22
-111.50
-104.65
-87.04
-57.30
-16.96
29.71
76.67
117.66
147.85
165.02
169.78
164.83
153.62
138.96
122.51
104.97
86.78
68.74
52.03
37.82
26.74
18.59
12.58
7.74
3.40
-0.66
-4.18
-6.62
-7.45
-6.38
-3.56
0.39
4.55
8.01
10.32
11.57
12.42
13.71
16.18
20.13
25.39
31.42
37.44
42.69
46.57
48.70
48.94
47.26
43.81
38.84
32.83
26.50
20.64
15.86
12.24
9.23
5.84
1.20
-5.03
-12.49
-20.45
-28.29
-35.95
-43.81
-52.28
-61.20
-69.70
-76.46
-80.29
-80.71
-78.12
-73.62
-68.48
-63.72
-59.90
-57.04
-54.82
-52.75
-50.45
-47.75
-44.76
-41.72
-38.82
-36.09
-33.40
-30.62
-27.87
-25.53
-24.04
-23.55
-23.69
-23.60
-22.37
-19.52
-15.37
-10.90
-7.33
-5.43
-5.18
-5.77
-6.03
-5.09
-2.75
0.45
3.67
6.33
8.38
10.37
12.98
16.68
21.38
26.56
31.47
35.54
38.46
40.17
40.74
40.23
38.69
36.26
33.17
29.80
26.50
23.62
21.37
19.86
19.06
18.68
18.21
17.06
14.80
11.40
7.34
3.37
0.23
-1.73
-2.64
-2.88
-2.87
-2.81
-2.71
-2.55
-2.44
-2.60
-3.21
-4.15
-4.95
-4.94
-3.59
-0.91
2.51
5.68
7.68
8.12
7.26
5.79
4.43
3.57
3.22
3.19
3.36
3.86
4.96
6.87
9.60
12.91
16.51
20.11
23.44
26.08
27.43
26.86
23.99
19.04
12.73
6.08
-0.01
-5.04
-8.91
-11.71
-13.46
-14.04
-13.30
-11.34
-8.62
-5.89
-3.94
-3.31
-4.07
-5.92
-8.26
-10.43
-11.85
-12.17
-11.26
-9.28
-6.60
-3.70
-1.06
0.99
2.32
2.93
2.96
2.54
1.83
1.02
0.29
-0.14
-0.18
0.18
0.84
1.63
2.47
3.31
4.12
4.88
5.51
5.94
6.16
6.21
6.26
6.44
6.85
7.47
8.19
8.84
9.29
9.46
9.36
9.04
8.55
7.91
7.12
6.19
5.14
4.06
3.05
2.20
1.54
1.07
0.69
0.33
-0.08
-0.57
-1.15
-1.82
-2.55
-3.33
-4.14
-4.94
-5.70
-6.37
-6.94
-7.35
-7.56
-7.53
-7.25
-6.72
-5.95
-4.97
-3.83
-2.57
-1.29
-0.07
1.03
1.98
2.78
3.43
3.89
4.11
4.04
3.72
3.23
2.72
2.30
2.04
1.90
1.79
1.64
1.43
1.16
0.88
0.62
0.39
0.20
0.10
0.13
0.35
0.78
1.34
1.91
2.34
2.52
2.43
2.11
1.67
1.19
0.74
0.32
-0.07
-0.41
-0.68
-0.85
-0.95
-1.03
-1.20
-1.53
-2.05
-2.71
-3.42
-4.02
-4.38
-4.43
-4.13
-3.52
-2.66
-1.64
-0.52
0.62
1.68
2.60
3.29
3.73
3.93
3.95
3.86
3.77
3.75
3.86
4.13
4.51
4.90
5.22
5.38
5.41
5.42
5.55
5.91
6.48
7.15
7.73
8.01
7.78
6.85
4.93
1.77
-2.77
-8.63
-15.40
-22.44
-29.05
-34.72
-39.19
-42.41
-44.33
-44.73
-43.21
-39.45
-33.52
-26.07
-18.21
-11.08
-5.42
-1.28
1.84
4.62
7.41
10.09
12.17
13.26
13.43
13.30
13.75
15.47
18.56
22.44
26.17
28.83
29.96
29.65
28.37
26.61
24.69
22.58
20.13
17.25
14.11
11.13
8.78
7.35
6.79
6.78
6.92
6.93
6.77
6.60
6.57
6.71
6.86
6.79
6.32
5.42
4.22
2.87
1.50
0.17
-1.10
-2.27
-3.26
-3.97
-4.36
-4.48
-4.47
-4.46
-4.50
-4.59
-4.66
-4.64
-4.53
-4.37
-4.22
-4.11
-4.09
-4.20
-4.49
-5.00
-5.70
-6.50
-7.22
-7.69
-7.81
-7.60
-7.10
-6.39
-5.50
-4.44
-3.23
-1.98
-0.85
-0.03
0.37
0.38
0.16
-0.07
-0.12
0.06
0.38
0.67
0.76
0.59
0.22
-0.24
-0.64
-0.88
-0.90
-0.73
-0.40
0.04
0.50
0.93
1.25
1.39
1.32
1.04
0.62
0.14
-0.30
-0.60
-0.72
-0.66
-0.48
-0.29
-0.18
-0.21
-0.35
-0.53
-0.65
-0.66
-0.58
-0.49
-0.51
-0.73
-1.14
-1.72
-2.39
-3.12
-3.89
-4.72
-5.60
-6.46
-7.19
-7.66
-7.81
-7.62
-7.16
-6.49
-5.63
-4.57
-3.29
-1.86
-0.43
0.75
1.49
1.67
1.36
0.78
0.18
-0.22
-0.32
-0.12
0.28
0.72
1.05
1.18
1.15
1.06
1.08
1.35
1.86
2.49
3.05
3.34
3.29
2.94
2.42
1.84
1.28
0.76
0.28
-0.11
-0.37
-0.49
-0.50
-0.48
-0.54
-0.74
-1.07
-1.47
-1.86
-2.15
-2.33
-2.43
-2.48
-2.51
-2.53
-2.51
-2.40
-2.22
-1.99
-1.75
-1.55
-1.43
-1.37
-1.37
-1.43
-1.55
-1.71
-1.87
-1.89
-1.66
-1.11
-0.27
0.72
1.67
2.37
2.72
2.71
2.40
1.95
1.50
1.16
0.99
0.98
1.06
1.12
1.11
1.05
0.98
1.00
1.15
1.41
1.73
2.03
2.26
2.44
2.60
2.77
2.92
2.96
2.80
2.39
1.80
1.14
0.57
0.17
-0.03
-0.12
-0.16
-0.23
-0.34
-0.43
-0.48
-0.51
-0.59
-0.79
-1.17
-1.69
-2.24
-2.73
-3.05
-3.22
-3.29
-3.36
-3.42
-3.43
-3.24
-2.77
-2.03
-1.14
-0.25
0.49
1.04
1.46
1.81
2.12
2.36
2.44
2.29
1.91
1.41
0.94
0.64
0.59
0.76
1.09
1.50
1.93
2.34
2.75
3.13
3.44
3.63
3.62
3.46
3.21
3.02
3.00
3.18
3.47
3.74
3.85
3.75
3.48
3.12
2.74
2.33
1.85
1.27
0.65
0.10
-0.25
-0.34
-0.24
-0.13
-0.17
-0.47
-0.95
-1.49
-1.90
-2.15
-2.29
-2.45
-2.80
-3.38
-4.11
-4.81
-5.27
-5.35
-5.00
-4.28
-3.30
-2.16
-0.97
0.15
1.08
1.68
1.85
1.62
1.11
0.55
0.16
0.06
0.27
0.66
1.04
1.27
1.28
1.11
0.90
0.82
1.04
1.58
2.37
3.22
3.92
4.29
4.28
3.92
3.30
2.55
1.77
1.05
0.48
0.13
0.06
0.25
0.61
0.98
1.19
1.17
0.89
0.47
0.06
-0.23
-0.33
-0.29
-0.16
-0.04
0.01
0.01
-0.06
-0.18
-0.38
-0.67
-1.08
-1.65
-2.39
-3.30
-4.31
-5.33
-6.20
-6.73
-6.78
-6.31
-5.35
-4.05
-2.62
-1.27
-0.19
0.46
0.63
0.38
-0.14
-0.68
-0.98
-0.86
-0.30
0.58
1.55
2.40
2.99
3.32
3.47
3.57
3.68
3.80
3.87
3.80
3.55
3.14
2.65
2.19
1.84
1.62
1.53
1.56
1.67
1.84
2.00
2.05
1.89
1.48
0.90
0.29
-0.16
-0.35
-0.31
-0.17
-0.12
-0.31
-0.75
-1.37
-2.02
-2.56
-2.91
-3.05
-3.02
-2.86
-2.64
-2.44
-2.36
-2.52
-2.98
-3.72
-4.67
-5.64
-6.36
-6.61
-6.20
-5.08
-3.37
-1.36
0.61
2.22
3.29
3.82
3.99
4.00
4.03
4.19
4.52
5.03
5.75
6.66
7.67
8.62
9.33
9.67
9.60
9.20
8.55
7.78
6.99
6.25
5.68
5.37
5.35
5.57
5.92
6.25
6.41
6.31
5.95
5.39
4.72
4.09
3.61
3.33
3.21
3.10
2.80
2.15
1.14
-0.09
-1.27
-2.11
-2.44
-2.24
-1.65
-0.88
-0.16
0.39
0.70
0.75
0.54
0.05
-0.71
-1.70
-2.80
-3.84
-4.70
-5.29
-5.65
-5.86
-6.00
-6.08
-6.07
-5.89
-5.47
-4.87
-4.21
-3.65
-3.31
-3.21
-3.27
-3.35
-3.37
-3.31
-3.21
-3.17
-3.20
-3.31
-3.43
-3.53
-3.60
-3.69
-3.79
-3.85
-3.77
-3.45
-2.88
-2.15
-1.45
-0.95
-0.72
-0.72
-0.83
-0.88
-0.78
-0.51
-0.14
0.20
0.40
0.40
0.19
-0.10
-0.38
-0.49
-0.42
-0.19
0.07
0.21
0.13
-0.22
-0.76
-1.38
-1.90
-2.23
-2.33
-2.27
-2.15
-2.09
-2.17
-2.41
-2.76
-3.16
-3.54
-3.80
-3.86
-3.61
-3.02
-2.13
-1.09
-0.08
0.73
1.25
1.45
1.35
0.97
0.28
-0.74
-2.08
-3.68
-5.35
-6.88
-8.09
-8.86
-9.20
-9.18
-8.92
-8.48
-7.89
-7.14
-6.23
-5.19
-4.10
-3.03
-2.06
-1.16
-0.29
0.66
1.78
3.07
4.45
5.70
6.58
6.90
6.65
5.98
5.21
4.61
4.35
4.44
4.72
4.99
5.07
4.83
4.24
3.37
2.39
1.51
0.94
0.73
0.78
0.81
0.55
-0.13
-1.12
-2.13
-2.83
-3.02
-2.71
-2.07
-1.32
-0.66
-0.20
0.01
-0.03
-0.31
-0.81
-1.50
-2.30
-3.11
-3.82
-4.29
-4.41
-4.15
-3.59
-2.88
-2.20
-1.69
-1.33
-0.99
-0.50
0.30
1.39
2.66
3.88
4.82
5.30
5.24
4.66
3.72
2.62
1.62
0.92
0.57
0.50
0.57
0.62
0.59
0.50
0.46
0.50
0.61
0.71
0.71
0.58
0.40
0.23
0.13
0.02
-0.25
-0.78
-1.59
-2.51
-3.29
-3.72
-3.72
-3.40
-3.03
-2.84
-2.96
-3.31
-3.69
-3.88
-3.74
-3.31
-2.75
-2.22
-1.84
-1.61
-1.49
-1.43
-1.45
-1.59
-1.88
-2.28
-2.66
-2.88
-2.82
-2.47
-1.95
-1.40
-1.00
-0.85
-0.90
-1.03
-1.01
-0.62
0.24
1.50
2.94
4.29
5.33
5.99
6.32
6.37
6.18
5.68
4.88
3.91
3.10
2.88
3.55
5.11
7.20
9.27
10.78
11.49
11.50
11.15
10.85
10.85
11.13
11.52
11.75
11.62
11.09
10.21
9.15
8.09
7.17
6.46
5.99
5.72
5.51
5.15
4.38
2.96
0.76
-2.14
-5.53
-9.04
-12.26
-14.87
-16.65
-17.54
-17.62
-17.04
-16.00
-14.65
-13.09
-11.32
-9.31
-7.09
-4.77
-2.63
-0.94
0.07
0.36
0.10
-0.41
-0.82
-0.87
-0.40
0.66
2.23
4.20
6.42
8.69
10.78
12.47
13.57
13.96
13.60
12.59
11.13
9.53
8.12
7.17
6.79
6.86
7.10
7.15
6.75
5.88
4.73
3.60
2.74
2.20
1.78
1.18
0.16
-1.37
-3.23
-5.16
-6.91
-8.36
-9.54
-10.55
-11.45
-12.24
-12.87
-13.28
-13.45
-13.35
-12.93
-12.10
-10.78
-8.99
-6.91
-4.82
-3.02
-1.70
-0.90
-0.52
-0.47
-0.64
-0.97
-1.31
-1.41
-0.98
0.23
2.24
4.83
7.56
9.96
11.77
12.92
13.57
13.99
14.42
15.00
15.77
16.68
17.62
18.36
18.61
18.00
16.30
13.56
10.17
6.81
4.15
2.63
2.22
2.53
3.05
3.41
3.53
3.66
4.16
5.31
7.20
9.74
12.70
15.80
18.70
20.97
22.20
22.01
20.23
16.97
12.57
7.55
2.41
-2.50
-6.97
-10.89
-14.17
-16.69
-18.29
-18.92
-18.64
-17.69
-16.37
-14.98
-13.68
-12.61
-11.82
-11.45
-11.68
-12.71
-14.60
-17.24
-20.30
-23.41
-26.21
-28.55
-30.40
-31.86
-33.00
-33.78
-34.09
-33.80
-32.81
-31.14
-28.89
-26.26
-23.43
-20.52
-17.57
-14.56
-11.41
-8.08
-4.60
-1.07
2.32
5.40
8.07
10.39
12.46
14.39
16.14
17.54
18.34
18.38
17.71
16.62
15.60
15.20
15.83
17.60
20.22
22.91
24.52
23.85
20.03
12.97
3.54
-6.58
-15.42
-21.44
-23.97
-23.41
-20.88
-17.68
-14.78
-12.56
-10.90
-9.48
-8.08
-6.76
-5.75
-5.29
-5.40
-5.82
-6.11
-5.82
-4.78
-3.10
-1.17
0.49
1.46
1.45
0.35
-1.83
-4.96
-8.82
-13.10
-17.45
-21.48
-24.87
-27.34
-28.63
-28.48
-26.64
-22.96
-17.48
-10.53
-2.66
5.41
12.96
19.49
24.65
28.34
30.55
31.35
30.87
29.29
26.90
24.07
21.21
18.64
16.49
14.71
13.11
11.50
9.79
8.02
6.31
4.77
3.43
2.27
1.23
0.30
-0.50
-1.08
-1.42
-1.51
-1.42
-1.22
-0.93
-0.55
-0.06
0.47
0.96
1.25
1.27
1.03
0.64
0.24
-0.04
-0.16
-0.15
-0.06
0.07
0.28
0.62
1.12
1.72
2.34
2.87
3.33
3.83
4.61
5.90
7.79
10.18
12.72
14.98
16.60
17.36
17.29
16.55
15.37
13.89
12.17
10.15
7.80
5.16
2.35
-0.46
-3.09
-5.45
-7.49
-9.19
-10.52
-11.40
-11.75
-11.53
-10.82
-9.78
-8.63
-7.59
-6.75
-6.16
-5.78
-5.61
-5.59
-5.64
-5.58
-5.13
-4.02
-2.13
0.44
3.32
5.99
7.88
8.54
7.78
5.78
3.11
0.61
-0.88
-0.74
1.09
4.16
7.62
10.59
12.46
13.12
12.86
12.21
11.63
11.28
10.90
9.90
7.54
3.24
-3.24
-11.67
-21.39
-31.55
-41.30
-49.92
-56.79
-61.30
-62.80
-60.73
-54.84
-45.39
-33.16
-19.40
-5.53
7.10
17.50
25.21
30.34
33.55
35.79
38.05
40.95
44.54
48.26
51.23
52.62
51.90
49.03
44.29
38.15
31.06
23.34
15.32
7.31
-0.38
-7.55
-14.11
-20.00
-24.92
-28.34
-29.57
-27.91
-22.88
-14.54
-3.59
8.78
21.28
32.89
42.99
51.04
56.74
59.89
60.25
57.57
51.62
42.37
30.33
16.32
1.04
-14.65
-29.78
-43.45
-54.94
-63.83
-69.91
-73.08
-73.64
-72.75
-71.58
-70.99
-71.27
-72.25
-73.59
-75.10
-76.72
-75.33
-69.31
-58.88
-46.01
-32.93
-20.77
-9.47
0.35
10.14
20.72
31.71
42.47
52.44
61.50
69.01
74.21
76.35
75.16
70.74
63.44
54.24
44.43
35.07
26.62
18.97
11.79
5.10
-1.03
-6.74
-12.35
-18.38
-25.22
-32.68
-39.80
-45.06
-46.94
-44.88
-39.71
-33.20
-27.42
-23.84
-22.91
-24.04
-26.08
-27.78
-28.42
-27.87
-26.39
-24.29
-21.76
-18.86
-15.79
-13.09
-11.58
-12.05
-14.70
-18.78
-22.61
-24.26
-22.35
-16.73
-8.73
-0.56
5.53
8.19
7.45
4.49
1.05
-1.40
-2.13
-1.20
0.88
3.56
6.51
9.61
12.74
15.68
18.03
19.44
19.77
19.22
18.25
17.40
17.11
17.63
19.06
21.42
24.67
28.71
33.32
38.13
42.70
46.53
49.20
50.40
49.98
48.02
44.79
40.75
36.44
32.39
28.97
26.30
24.20
22.23
19.85
16.68
12.64
8.04
3.38
-0.83
-4.27
-6.93
-8.99
-10.69
-12.26
-13.81
-15.44
-17.24
-19.26
-21.41
-23.43
-24.87
-25.29
-24.52
-22.75
-20.55
-18.54
-17.17
-16.44
-16.04
-15.49
-14.50
-13.11
-11.53
-9.97
-8.33
-6.14
-2.88
1.76
7.50
13.52
18.80
22.52
24.46
25.07
25.11
25.33
26.06
27.12
28.03
28.26
27.54
25.88
23.53
20.79
17.92
15.15
12.63
10.54
8.94
7.76
6.73
5.47
3.58
0.84
-2.72
-6.81
-11.04
-15.00
-18.38
-20.91
-22.42
-22.77
-21.92
-20.00
-17.30
-14.25
-11.30
-8.78
-6.81
-5.36
-4.25
-3.25
-2.20
-1.05
0.16
1.29
2.20
2.78
3.00
2.89
2.60
2.26
2.01
1.94
2.13
2.60
3.35
4.29
5.27
6.10
6.57
6.53
5.92
4.78
3.29
1.63
0.03
-1.37
-2.49
-3.35
-4.01
-4.54
-4.98
-5.27
-5.36
-5.16
-4.66
-4.02
-3.55
-3.74
-5.00
-7.53
-11.11
-15.09
-18.48
-20.32
-19.97
-17.39
-13.08
-7.99
-3.11
0.69
3.01
3.83
3.56
2.81
2.23
2.34
3.38
5.26
7.68
10.22
12.44
13.99
14.64
14.24
12.75
10.30
7.22
4.07
1.55
0.21
0.31
1.65
3.68
5.69
7.10
7.69
7.53
6.86
5.91
4.72
3.25
1.49
-0.43
-2.21
-3.47
-3.99
-3.79
-3.19
-2.62
-2.44
-2.78
-3.46
-4.16
-4.54
-4.45
-3.92
-3.13
-2.31
-1.62
-1.11
-0.75
-0.50
-0.34
-0.25
-0.24
-0.30
-0.44
-0.66
-0.93
-1.22
-1.45
-1.58
-1.56
-1.44
-1.30
-1.22
-1.24
-1.29
-1.24
-0.96
-0.37
0.52
1.57
2.55
3.20
3.33
2.88
1.98
0.94
0.12
-0.21
-0.04
0.40
0.72
0.60
-0.08
-1.21
-2.49
-3.62
-4.43
-4.90
-5.13
-5.25
-5.34
-5.42
-5.44
-5.38
-5.23
-5.01
-4.77
-4.50
-4.19
-3.74
-3.07
-2.13
-0.96
0.24
1.26
1.88
1.97
1.57
0.83
-0.02
-0.80
-1.39
-1.75
-1.90
-1.89
-1.73
-1.46
-1.08
-0.62
-0.14
0.30
0.63
0.81
0.89
0.95
1.11
1.42
1.88
2.36
2.71
2.80
2.54
1.98
1.18
0.24
-0.73
-1.62
-2.31
-2.72
-2.80
-2.66
-2.45
-2.35
-2.45
-2.71
-2.99
-3.14
-3.08
-2.89
-2.68
-2.61
-2.76
-3.14
-3.72
-4.44
-5.23
-5.96
-6.47
-6.56
-6.07
-4.96
-3.34
-1.47
0.30
1.69
2.52
2.77
2.50
1.86
1.00
0.05
-0.86
-1.58
-1.96
-1.90
-1.39
-0.59
0.26
0.89
1.18
1.15
1.02
1.02
1.33
1.93
2.67
3.32
3.68
3.69
3.40
2.96
2.45
1.90
1.23
0.38
-0.68
-1.84
-2.94
-3.77
-4.24
-4.38
-4.31
-4.20
-4.14
-4.17
-4.23
-4.27
-4.24
-4.17
-4.08
-3.94
-3.76
-3.50
-3.16
-2.72
-2.15
-1.38
-0.38
0.82
2.05
3.06
3.58
3.49
2.83
1.85
0.87
0.17
-0.12
0.03
0.54
1.26
2.04
2.73
3.18
3.34
3.24
3.01
2.83
2.80
2.95
3.17
3.29
3.19
2.88
2.46
2.13
2.02
2.17
2.47
2.76
2.82
2.53
1.91
1.09
0.28
-0.34
-0.68
-0.81
-0.89
-1.10
-1.55
-2.27
-3.19
-4.22
-5.25
-6.17
-6.88
-7.27
-7.27
-6.84
-6.09
-5.16
-4.21
-3.33
-2.54
-1.73
-0.81
0.26
1.46
2.64
3.63
4.25
4.41
4.14
3.57
2.85
2.15
1.56
1.13
0.86
0.75
0.78
0.97
1.32
1.82
2.44
3.09
3.65
3.97
3.95
3.58
2.95
2.30
1.84
1.70
1.85
2.09
2.20
2.02
1.57
1.00
0.55
0.34
0.32
0.32
0.19
-0.13
-0.53
-0.81
-0.84
-0.63
-0.39
-0.37
-0.76
-1.58
-2.63
-3.65
-4.44
-4.91
-5.11
-5.13
-5.00
-4.69
-4.15
-3.34
-2.32
-1.17
-0.01
1.06
1.96
2.61
2.96
2.98
2.71
2.26
1.80
1.49
1.42
1.62
2.01
2.49
2.97
3.40
3.74
4.04
4.30
4.57
4.84
5.10
5.31
5.42
5.40
5.23
4.89
4.39
3.72
2.91
2.01
1.13
0.35
-0.29
-0.80
-1.29
-1.80
-2.36
-2.91
-3.36
-3.69
-3.92
-4.15
-4.44
-4.81
-5.19
-5.47
-5.62
-5.69
-5.81
-6.12
-6.68
-7.40
-8.06
-8.45
-8.34
-7.64
-6.36
-4.63
-2.68
-0.75
0.88
2.04
2.63
2.68
2.30
1.65
0.89
0.15
-0.47
-0.93
-1.24
-1.45
-1.59
-1.68
-1.64
-1.38
-0.81
0.03
0.95
1.71
2.10
2.09
1.81
1.51
1.38
1.49
1.75
2.01
2.15
2.15
2.05
1.92
1.79
1.64
1.46
1.24
1.04
0.90
0.83
0.82
0.77
0.61
0.26
-0.30
-1.01
-1.76
-2.40
-2.76
-2.78
-2.47
-1.95
-1.36
-0.78
-0.22
0.37
1.05
1.76
2.38
2.76
2.78
2.46
1.92
1.34
0.89
0.69
0.77
1.07
1.54
2.10
2.69
3.21
3.58
3.73
3.62
3.30
2.90
2.59
2.56
2.91
3.60
4.49
5.34
5.90
6.00
5.62
4.85
3.88
2.94
2.19
1.69
1.37
1.14
0.87
0.51
0.05
-0.49
-1.14
-1.93
-2.91
-4.01
-5.06
-5.83
-6.07
-5.68
-4.77
-3.57
-2.37
-1.38
-0.68
-0.21
0.15
0.48
0.83
1.15
1.38
1.41
1.19
0.73
0.13
-0.45
-0.82
-0.86
-0.60
-0.15
0.32
0.67
0.89
1.05
1.27
1.59
2.02
2.49
2.94
3.36
3.76
4.15
4.48
4.64
4.55
4.18
3.59
2.89
2.17
1.46
0.73
-0.03
-0.77
-1.39
-1.76
-1.83
-1.59
-1.16
-0.67
-0.26
-0.03
-0.05
-0.38
-1.01
-1.89
-2.90
-3.88
-4.68
-5.19
-5.38
-5.27
-4.89
-4.31
-3.56
-2.69
-1.78
-0.92
-0.20
0.30
0.57
0.61
0.45
0.11
-0.39
-1.01
-1.63
-2.12
-2.34
-2.23
-1.85
-1.31
-0.78
-0.36
-0.08
0.08
0.19
0.32
0.50
0.72
0.94
1.15
1.34
1.63
2.13
2.98
4.18
5.57
6.89
7.84
8.27
8.23
7.91
7.54
7.23
6.96
6.67
6.29
5.88
5.57
5.50
5.72
6.23
6.88
7.51
7.93
8.00
7.62
6.84
5.83
4.90
4.40
4.59
5.48
6.84
8.25
9.33
9.83
9.77
9.38
8.90
8.46
8.04
7.46
6.49
5.04
3.12
0.91
-1.35
-3.41
-5.03
-6.03
-6.29
-5.82
-4.81
-3.63
-2.76
-2.61
-3.34
-4.82
-6.64
-8.27
-9.29
-9.55
-9.18
-8.57
-8.20
-8.52
-9.79
-12.04
-15.00
-18.14
-20.84
-22.51
-22.82
-21.77
-19.67
-16.95
-14.03
-11.18
-8.47
-5.89
-3.42
-1.12
0.87
2.43
3.57
4.36
4.98
5.54
6.02
6.25
6.05
5.29
4.10
2.80
1.81
1.46
1.81
2.67
3.71
4.60
5.08
4.99
4.17
2.50
-0.00
-3.02
-5.93
-8.02
-8.83
-8.49
-7.75
-7.62
-8.90
-11.71
-15.44
-19.10
-21.88
-23.59
-24.79
-26.43
-29.24
-33.25
-37.58
-40.75
-41.29
-38.31
-31.79
-22.48
-11.50
0.10
11.62
22.74
33.40
43.52
52.94
61.28
68.08
72.81
75.02
74.43
70.95
64.68
55.92
45.19
33.40
21.80
11.77
4.30
-0.60
-4.09
-8.06
-14.19
-22.94
-33.18
-42.61
-48.93
-50.87
-48.75
-44.05
-38.49
-33.29
-28.76
-24.61
-20.53
-16.50
-12.84
-9.93
-7.85
-6.34
-4.85
-2.91
-0.36
2.51
5.15
7.07
8.06
8.32
8.36
8.70
9.66
11.14
12.72
13.79
13.89
12.87
10.99
8.76
6.71
5.21
4.30
3.76
3.27
2.65
1.90
1.25
0.92
1.00
1.39
1.84
2.17
2.34
2.45
2.62
2.82
2.80
2.22
0.84
-1.26
-3.67
-5.79
-7.08
-7.27
-6.50
-5.17
-3.74
-2.57
-1.76
-1.20
-0.73
-0.24
0.23
0.59
0.76
0.80
0.86
1.06
1.46
1.91
2.21
2.17
1.75
1.08
0.36
-0.21
-0.52
-0.58
-0.47
-0.26
-0.06
0.11
0.20
0.23
0.17
0.03
-0.21
-0.59
-1.11
-1.71
-2.31
-2.79
-3.06
-3.06
-2.82
-2.45
-2.10
-1.90
-1.92
-2.09
-2.26
-2.25
-1.95
-1.42
-0.83
-0.44
-0.41
-0.72
-1.26
-1.83
-2.35
-2.83
-3.33
-3.88
-4.35
-4.54
-4.28
-3.55
-2.50
-1.40
-0.50
0.06
0.36
0.56
0.82
1.23
1.70
2.06
2.16
1.95
1.55
1.16
0.95
0.99
1.22
1.49
1.68
1.72
1.66
1.60
1.61
1.74
1.95
2.17
2.35
2.45
2.42
2.25
1.94
1.51
1.00
0.46
-0.02
-0.37
-0.53
-0.49
-0.30
-0.04
0.21
0.37
0.38
0.18
-0.27
-1.01
-1.98
-3.07
-4.10
-4.93
-5.45
-5.62
-5.51
-5.16
-4.62
-3.90
-3.04
-2.09
-1.13
-0.21
0.64
1.41
2.11
2.74
3.29
3.72
4.00
4.15
4.17
4.13
4.05
3.97
3.91
3.85
3.81
3.77
3.74
3.72
3.69
3.66
3.66
3.71
3.86
4.12
4.47
4.80
4.99
4.93
4.60
4.05
3.40
2.77
2.26
1.92
1.74
1.66
1.62
1.50
1.22
0.71
0.01
-0.79
-1.53
-2.08
-2.42
-2.58
-2.69
-2.89
-3.25
-3.76
-4.33
-4.81
-5.05
-4.94
-4.47
-3.71
-2.80
-1.91
-1.18
-0.62
-0.18
0.28
0.86
1.56
2.26
2.83
3.15
3.24
3.24
3.26
3.36
3.46
3.41
3.13
2.64
2.15
1.91
2.05
2.50
3.06
3.44
3.51
3.28
2.95
2.71
2.66
2.73
2.81
2.77
2.56
2.24
1.89
1.56
1.23
0.85
0.39
-0.11
-0.57
-0.91
-1.10
-1.17
-1.22
-1.32
-1.52
-1.81
-2.13
-2.46
-2.77
-3.05
-3.36
-3.69
-4.09
-4.58
-5.15
-5.80
-6.47
-7.06
-7.46
-7.54
-7.22
-6.49
-5.42
-4.17
-2.90
-1.74
-0.75
0.11
0.90
1.69
2.50
3.34
4.17
4.97
5.69
6.25
6.58
6.61
6.35
5.85
5.20
4.47
3.70
2.93
2.20
1.60
1.20
1.03
1.05
1.15
1.22
1.18
1.02
0.74
0.36
-0.10
-0.59
-1.02
-1.31
-1.39
-1.26
-0.99
-0.67
-0.33
0.06
0.58
1.28
2.16
3.10
3.92
4.39
4.38
3.82
2.78
1.42
-0.07
-1.46
-2.59
-3.39
-3.87
-4.16
-4.42
-4.80
-5.38
-6.13
-6.91
-7.49
-7.69
-7.39
-6.64
-5.60
-4.49
-3.49
-2.67
-1.98
-1.32
-0.56
0.29
1.13
1.80
2.16
2.20
2.01
1.74
1.50
1.35
1.29
1.26
1.24
1.25
1.32
1.44
1.58
1.66
1.64
1.51
1.38
1.35
1.55
2.01
2.67
3.37
3.89
4.08
3.88
3.34
2.63
1.93
1.40
1.07
0.90
0.84
0.78
0.69
0.55
0.33
0.04
-0.36
-0.85
-1.43
-1.99
-2.47
-2.78
-2.92
-2.94
-2.94
-3.01
-3.21
-3.50
-3.84
-4.14
-4.38
-4.59
-4.84
-5.18
-5.58
-5.96
-6.15
-6.01
-5.49
-4.64
-3.58
-2.48
-1.48
-0.64
0.00
0.46
0.72
0.81
0.78
0.73
0.80
1.08
1.57
2.16
2.65
2.93
3.01
3.00
3.07
3.35
3.82
4.40
4.96
5.44
5.84
6.16
6.36
6.41
6.28
6.07
5.96
6.12
6.62
7.34
8.03
8.45
8.42
7.95
7.11
6.03
4.75
3.28
1.66
-0.05
-1.72
-3.17
-4.30
-5.05
-5.51
-5.79
-6.05
-6.39
-6.86
-7.45
-8.09
-8.72
-9.31
-9.84
-10.33
-10.77
-11.16
-11.42
-11.48
-11.21
-10.51
-9.29
-7.61
-5.61
-3.58
-1.80
-0.49
0.31
0.69
0.79
0.76
0.68
0.58
0.51
0.55
0.79
1.24
1.87
2.53
3.09
3.42
3.51
3.44
3.35
3.38
3.59
3.94
4.31
4.52
4.42
3.99
3.31
2.54
1.82
1.23
0.77
0.37
-0.02
-0.46
-0.94
-1.44
-1.97
-2.51
-3.04
-3.54
-4.00
-4.39
-4.71
-4.98
-5.23
-5.46
-5.65
-5.75
-5.70
-5.49
-5.22
-4.98
-4.91
-5.09
-5.52
-6.10
-6.68
-7.11
-7.26
-7.01
-6.36
-5.34
-4.05
-2.70
-1.46
-0.47
0.24
0.75
1.17
1.61
2.07
2.45
2.64
2.57
2.28
1.87
1.49
1.22
1.09
1.05
1.06
1.09
1.15
1.28
1.50
1.80
2.14
2.44
2.62
2.65
2.51
2.21
1.81
1.38
0.99
0.72
0.59
0.58
0.59
0.53
0.30
-0.14
-0.75
-1.37
-1.86
-2.10
-2.10
-1.98
-1.87
-1.90
-2.09
-2.42
-2.82
-3.29
-3.87
-4.62
-5.59
-6.74
-7.95
-9.08
-9.97
-10.49
-10.59
-10.31
-9.75
-9.01
-8.17
-7.26
-6.22
-4.95
-3.44
-1.75
-0.08
1.29
2.15
2.45
2.33
2.06
1.91
2.00
2.32
2.70
2.97
3.06
3.01
2.93
2.96
3.15
3.46
3.80
4.09
4.24
4.18
3.81
3.08
2.10
1.24
1.12
2.44
5.67
10.76
17.07
23.47
28.76
32.05
33.06
32.04
29.54
26.16
22.33
18.33
14.33
10.56
7.22
4.46
2.31
0.61
-0.86
-2.36
-4.03
-5.92
-7.97
-10.04
-11.96
-13.57
-14.73
-15.34
-15.42
-15.03
-14.33
-13.41
-12.36
-11.21
-9.96
-8.67
-7.43
-6.38
-5.62
-5.20
-5.04
-4.99
-4.88
-4.60
-4.12
-3.52
-2.91
-2.39
-2.02
-1.79
-1.67
-1.58
-1.46
-1.28
-1.03
-0.73
-0.42
-0.10
0.22
0.53
0.80
1.00
1.12
1.12
1.05
0.94
0.86
0.84
0.87
0.91
0.87
0.68
0.30
-0.24
-0.87
-1.52
-2.09
-2.53
-2.86
-3.12
-3.42
-3.78
-4.23
-4.74
-5.30
-5.89
-6.47
-6.96
-7.26
-7.24
-6.81
-5.97
-4.82
-3.50
-2.17
-0.96
0.08
0.96
1.73
2.38
2.90
3.22
3.31
3.18
2.94
2.73
2.66
2.77
3.01
3.30
3.56
3.76
3.91
4.00
3.97
3.78
3.45
3.05
2.70
2.51
2.49
2.57
2.66
2.66
2.58
2.47
2.35
2.21
1.99
1.60
1.02
0.33
-0.36
-0.91
-1.25
-1.40
-1.46
-1.56
-1.78
-2.16
-2.68
-3.31
-4.01
-4.74
-5.42
-5.94
-6.15
-5.95
-5.31
-4.33
-3.12
-1.83
-0.58
0.58
1.59
2.40
2.98
3.28
3.32
3.14
2.84
2.48
2.13
1.80
1.48
1.17
0.84
0.50
0.19
-0.06
-0.17
-0.07
0.23
0.70
1.23
1.72
2.06
2.22
2.20
2.07
1.94
1.91
2.04
2.31
2.68
3.03
3.26
3.30
3.08
2.58
1.82
0.84
-0.26
-1.38
-2.43
-3.28
-3.88
-4.22
-4.36
-4.41
-4.48
-4.65
-4.96
-5.42
-6.03
-6.80
-7.68
-8.53
-9.13
-9.22
-8.60
-7.23
-5.28
-3.04
-0.84
1.11
2.74
4.08
5.19
6.08
6.72
7.10
7.24
7.24
7.19
7.21
7.32
7.52
7.74
7.91
7.93
7.79
7.50
7.13
6.82
6.66
6.71
6.93
7.19
7.30
7.13
6.62
5.87
5.03
4.30
3.79
3.51
3.37
3.27
3.17
3.05
2.94
2.82
2.62
2.31
1.88
1.43
1.10
0.94
0.89
0.81
0.54
0.03
-0.65
-1.35
-1.99
-2.53
-3.08
-3.75
-4.58
-5.54
-6.46
-7.16
-7.50
-7.42
-6.97
-6.28
-5.50
-4.72
-3.94
-3.11
-2.14
-1.03
0.16
1.30
2.30
3.09
3.71
4.17
4.46
4.52
4.29
3.82
3.28
2.91
2.90
3.31
4.00
4.72
5.23
5.42
5.33
5.10
4.87
4.71
4.58
4.40
4.13
3.81
3.52
3.37
3.36
3.44
3.49
3.39
3.11
2.72
2.32
2.01
1.83
1.72
1.57
1.27
0.81
0.25
-0.30
-0.76
-1.09
-1.32
-1.51
-1.68
-1.80
-1.86
-1.86
-1.87
-1.99
-2.32
-2.90
-3.68
-4.63
-5.64
-6.62
-7.40
-7.82
-7.70
-7.03
-5.90
-4.52
-3.12
-1.84
-0.70
0.32
1.22
1.94
2.39
2.54
2.44
2.27
2.20
2.33
2.63
2.99
3.27
3.38
3.33
3.21
3.14
3.20
3.40
3.66
3.86
3.94
3.91
3.86
3.87
4.03
4.30
4.61
4.87
5.02
5.04
4.97
4.86
4.76
4.72
4.76
4.88
5.02
5.10
5.05
4.80
4.38
3.85
3.28
2.69
2.06
1.34
0.49
-0.45
-1.38
-2.19
-2.80
-3.22
-3.56
-3.92
-4.40
-5.04
-5.76
-6.48
-7.11
-7.58
-7.89
-8.02
-7.98
-7.76
-7.34
-6.74
-5.98
-5.12
-4.26
-3.46
-2.74
-2.13
-1.64
-1.30
-1.14
-1.16
-1.31
-1.52
-1.71
-1.82
-1.84
-1.77
-1.60
-1.34
-0.96
-0.49
-0.00
0.41
0.66
0.75
0.73
0.75
0.87
1.11
1.37
1.55
1.54
1.31
0.93
0.48
0.07
-0.25
-0.46
-0.56
-0.61
-0.63
-0.67
-0.79
-1.03
-1.37
-1.82
-2.32
-2.79
-3.16
-3.39
-3.46
-3.43
-3.40
-3.50
-3.80
-4.33
-5.00
-5.64
-6.07
-6.14
-5.76
-4.94
-3.79
-2.48
-1.21
-0.19
0.47
0.72
0.66
0.43
0.23
0.18
0.37
0.80
1.41
2.08
2.69
3.08
3.17
2.96
2.55
2.14
1.92
2.00
2.34
2.79
3.19
3.43
3.48
3.45
3.40
3.35
3.24
2.97
2.51
1.89
1.27
0.79
0.53
0.47
0.48
0.46
0.33
0.09
-0.24
-0.63
-1.05
-1.47
-1.84
-2.05
-2.07
-1.91
-1.72
-1.67
-1.92
-2.48
-3.26
-4.10
-4.87
-5.50
-6.00
-6.40
-6.68
-6.73
-6.44
-5.74
-4.68
-3.42
-2.21
-1.23
-0.55
-0.11
0.26
0.70
1.24
1.79
2.17
2.26
2.03
1.60
1.19
1.00
1.13
1.55
2.15
2.77
3.30
3.70
3.99
4.18
4.26
4.23
4.10
3.92
3.79
3.80
3.96
4.22
4.46
4.55
4.42
4.07
3.60
3.14
2.82
2.72
2.80
2.96
3.05
2.96
2.66
2.22
1.76
1.40
1.19
1.13
1.15
1.19
1.18
1.05
0.69
0.01
-1.01
-2.32
-3.79
-5.23
-6.50
-7.52
-8.24
-8.63
-8.65
-8.31
-7.65
-6.79
-5.87
-5.03
-4.34
-3.81
-3.42
-3.11
-2.84
-2.57
-2.25
-1.86
-1.38
-0.84
-0.29
0.19
0.54
0.74
0.81
0.81
0.79
0.85
1.04
1.35
1.72
2.04
2.25
2.29
2.20
2.04
1.86
1.69
1.51
1.31
1.08
0.84
0.63
0.43
0.26
0.09
-0.08
-0.23
-0.40
-0.60
-0.89
-1.30
-1.81
-2.35
-2.86
-3.28
-3.64
-3.99
-4.40
-4.89
-5.46
-6.11
-6.86
-7.70
-8.62
-9.49
-10.10
-10.23
-9.69
-8.47
-6.68
-4.62
-2.59
-0.85
0.45
1.31
1.81
2.11
2.31
2.48
2.65
2.80
2.93
3.05
3.17
3.30
3.42
3.52
3.59
3.64
3.72
3.86
4.10
4.40
4.68
4.84
4.80
4.57
4.22
3.88
3.67
3.61
3.62
3.56
3.29
2.79
2.10
1.37
0.72
0.20
-0.21
-0.59
-0.97
-1.33
-1.63
-1.82
-1.96
-2.12
-2.40
-2.85
-3.48
-4.28
-5.24
-6.30
-7.36
-8.26
-8.77
-8.73
-8.07
-6.89
-5.36
-3.71
-2.15
-0.79
0.34
1.25
2.00
2.67
3.35
4.06
4.79
5.46
5.91
6.03
5.77
5.21
4.52
3.93
3.64
3.75
4.22
4.89
5.57
6.09
6.35
6.36
6.18
5.89
5.53
5.11
4.65
4.19
3.80
3.54
3.41
3.32
3.16
2.79
2.17
1.32
0.40
-0.43
-1.04
-1.42
-1.66
-1.88
-2.23
-2.73
-3.34
-3.95
-4.43
-4.70
-4.80
-4.84
-4.98
-5.38
-6.13
-7.20
-8.47
-9.68
-10.49
-10.60
-9.85
-8.27
-6.12
-3.78
-1.65
0.03
1.18
1.91
2.38
2.76
3.15
3.52
3.86
4.11
4.25
4.29
4.28
4.27
4.30
4.41
4.61
4.85
5.11
5.33
5.53
5.71
5.89
6.09
6.28
6.41
6.40
6.23
5.91
5.51
5.09
4.70
4.34
3.97
3.55
3.06
2.51
1.92
1.34
0.76
0.21
-0.33
-0.85
-1.37
-1.90
-2.48
-3.10
-3.79
-4.51
-5.22
-5.91
-6.60
-7.31
-8.10
-8.98
-9.93
-10.82
-11.48
-11.74
-11.46
-10.61
-9.22
-7.46
-5.52
-3.58
-1.79
-0.28
0.92
1.83
2.48
2.97
3.36
3.71
4.00
4.23
4.33
4.33
4.25
4.18
4.19
4.32
4.58
4.92
5.29
5.64
5.95
6.19
6.37
6.47
6.45
6.29
6.00
5.61
5.17
4.73
4.31
3.91
3.51
3.09
2.66
2.26
1.96
1.80
1.74
1.68
1.49
1.06
0.34
-0.59
-1.56
-2.43
-3.12
-3.67
-4.18
-4.77
-5.52
-6.41
-7.42
-8.46
-9.47
-10.34
-10.91
-11.03
-10.53
-9.36
-7.58
-5.37
-3.01
-0.77
1.11
2.50
3.36
3.79
3.90
3.83
3.66
3.44
3.19
2.93
2.72
2.64
2.75
3.04
3.43
3.81
4.11
4.31
4.45
4.59
4.75
4.92
5.06
5.10
5.01
4.77
4.39
3.89
3.35
2.84
2.43
2.10
1.80
1.43
0.90
0.22
-0.51
-1.18
-1.69
-2.06
-2.44
-2.95
-3.67
-4.53
-5.38
-6.08
-6.59
-7.02
-7.54
-8.26
-9.09
-9.79
-10.01
-9.52
-8.31
-6.60
-4.74
-3.04
-1.68
-0.68
0.03
0.52
0.80
0.81
0.52
-0.05
-0.80
-1.61
-2.32
-2.87
-3.22
-3.43
-3.56
-3.67
-3.81
-3.99
-4.21
-4.45
-4.67
-4.83
-4.85
-4.68
-4.28
-3.68
-2.93
-2.10
-1.28
-0.55
0.06
0.56
0.99
1.47
2.14
3.11
4.40
5.89
7.33
8.45
9.07
9.16
8.87
8.44
8.05
7.76
7.49
7.09
6.42
5.42
4.14
2.71
1.29
0.07
-0.77
-1.09
-0.81
-0.04
1.01
1.98
2.55
2.51
1.84
0.69
-0.70
-2.14
-3.55
-4.95
-6.42
-8.03
-9.78
-11.58
-13.24
-14.45
-14.90
-14.32
-12.67
-10.22
-7.56
-5.40
-4.34
-4.61
-5.99
-7.91
-9.70
-10.88
-11.30
-11.10
-10.58
-9.96
-9.32
-8.56
-7.50
-6.03
-4.14
-1.99
0.12
1.84
2.83
2.87
1.93
0.18
-2.04
-4.33
-6.35
-7.89
-8.84
-9.19
-8.98
-8.33
-7.46
-6.63
-6.02
-5.62
-5.17
-4.29
-2.63
-0.13
2.95
6.11
8.80
10.68
11.70
12.14
12.45
13.06
14.25
16.01
18.06
19.97
21.36
22.13
22.52
23.08
24.31
26.36
28.90
31.22
32.56
32.50
31.16
29.09
26.97
25.30
24.17
23.29
22.13
20.05
16.50
11.03
3.52
-5.66
-15.52
-24.54
-31.02
-33.68
-32.28
-27.72
-21.81
-16.47
-13.03
-11.80
-12.15
-13.05
-13.72
-13.94
-14.00
-14.32
-14.99
-15.66
-15.70
-14.69
-12.70
-10.33
-8.36
-7.28
-7.00
-6.85
-5.96
-3.68
0.08
4.81
9.65
13.83
16.86
18.69
19.64
20.14
20.55
21.04
21.53
21.81
21.66
21.06
20.16
19.28
18.70
18.43
18.21
17.58
16.10
13.64
10.42
6.94
3.75
1.17
-0.77
-2.29
-3.70
-5.21
-6.89
-8.66
-10.44
-12.14
-13.72
-15.16
-16.42
-17.45
-18.27
-18.87
-19.30
-19.57
-19.62
-19.34
-18.62
-17.40
-15.71
-13.71
-11.61
-9.59
-7.82
-6.37
-5.27
-4.48
-3.99
-3.80
-3.95
-4.55
-5.65
-7.27
-9.31
-11.57
-13.87
-16.10
-18.25
-20.37
-22.47
-24.48
-26.21
-27.50
-28.28
-28.65
-28.82
-29.09
-29.75
-30.98
-32.83
-35.08
-37.23
-38.55
-38.21
-35.50
-30.08
-22.02
-11.76
-0.03
12.36
24.56
35.74
45.11
52.05
56.17
57.45
56.24
53.32
49.83
47.05
46.14
47.77
51.78
57.19
62.46
66.01
66.82
64.74
60.38
54.74
48.67
42.48
36.01
28.82
20.73
12.00
3.37
-4.22
-10.04
-13.83
-15.85
-16.66
-16.80
-16.53
-15.78
-14.30
-11.92
-8.66
-4.77
-0.63
3.41
7.09
10.26
12.88
14.97
16.56
17.67
18.32
18.47
18.13
17.35
16.23
14.90
13.45
11.91
10.27
8.52
6.76
5.13
3.81
2.90
2.38
2.11
1.89
1.48
0.73
-0.44
-1.97
-3.74
-5.51
-7.07
-8.25
-9.00
-9.36
-9.47
-9.44
-9.32
-9.13
-8.90
-8.71
-8.69
-8.97
-9.56
-10.32
-10.99
-11.35
-11.27
-10.77
-9.96
-8.97
-7.84
-6.56
-5.08
-3.44
-1.74
-0.18
1.05
1.82
2.12
2.03
1.70
1.26
0.83
0.49
0.27
0.17
0.18
0.29
0.46
0.67
0.84
0.90
0.75
0.32
-0.36
-1.21
-2.08
-2.81
-3.30
-3.53
-3.58
-3.59
-3.72
-4.07
-4.65
-5.40
-6.18
-6.77
-7.03
-6.86
-6.31
-5.53
-4.72
-4.03
-3.49
-3.07
-2.67
-2.32
-2.11
-2.17
-2.60
-3.35
-4.20
-4.89
-5.20
-5.05
-4.49
-3.70
-2.85
-2.06
-1.36
-0.74
-0.15
0.40
0.87
1.20
1.35
1.30
1.11
0.84
0.57
0.33
0.13
-0.05
-0.21
-0.33
-0.38
-0.37
-0.30
-0.22
-0.18
-0.19
-0.25
-0.31
-0.35
-0.38
-0.40
-0.46
-0.56
-0.70
-0.87
-1.08
-1.32
-1.58
-1.85
-2.11
-2.34
-2.52
-2.70
-2.92
-3.20
-3.58
-4.04
-4.56
-5.10
-5.62
-6.03
-6.28
-6.30
-6.09
-5.69
-5.14
-4.54
-3.93
-3.32
-2.70
-2.07
-1.46
-0.93
-0.54
-0.31
-0.25
-0.33
-0.51
-0.72
-0.88
-0.94
-0.82
-0.52
-0.09
0.38
0.80
1.15
1.42
1.64
1.79
1.80
1.62
1.27
0.84
0.51
0.39
0.49
0.65
0.70
0.49
0.03
-0.54
-1.07
-1.44
-1.67
-1.83
-2.03
-2.31
-2.63
-2.90
-3.05
-3.10
-3.10
-3.16
-3.38
-3.82
-4.44
-5.16
-5.88
-6.47
-6.85
-6.99
-6.88
-6.51
-5.86
-4.95
-3.82
-2.59
-1.42
-0.49
0.10
0.36
0.38
0.32
0.29
0.36
0.53
0.77
1.01
1.21
1.32
1.31
1.20
1.03
0.91
0.93
1.13
1.42
1.69
1.82
1.79
1.62
1.42
1.25
1.14
1.06
0.99
0.90
0.80
0.70
0.62
0.53
0.39
0.14
-0.24
-0.71
-1.20
-1.60
-1.82
-1.86
-1.79
-1.74
-1.86
-2.17
-2.65
-3.19
-3.67
-4.05
-4.35
-4.64
-4.97
-5.40
-5.87
-6.29
-6.51
-6.39
-5.88
-5.02
-3.95
-2.86
-1.89
-1.12
-0.52
-0.07
0.28
0.48
0.52
0.40
0.20
0.02
-0.06
-0.04
0.07
0.21
0.37
0.56
0.81
1.13
1.48
1.83
2.12
2.35
2.52
2.62
2.64
2.56
2.38
2.14
1.86
1.59
1.33
1.06
0.79
0.53
0.32
0.18
0.13
0.13
0.15
0.16
0.13
0.08
-0.00
-0.14
-0.37
-0.71
-1.16
-1.66
-2.19
-2.71
-3.21
-3.68
-4.14
-4.57
-5.00
-5.46
-5.99
-6.58
-7.13
-7.45
-7.39
-6.87
-5.99
-4.94
-3.95
-3.17
-2.59
-2.13
-1.68
-1.24
-0.87
-0.63
-0.53
-0.52
-0.45
-0.25
0.10
0.54
0.95
1.25
1.40
1.40
1.31
1.19
1.13
1.18
1.36
1.62
1.89
2.07
2.11
1.97
1.70
1.36
1.03
0.75
0.58
0.55
0.64
0.84
1.06
1.23
1.26
1.14
0.89
0.56
0.18
-0.26
-0.77
-1.34
-1.92
-2.44
-2.84
-3.09
-3.26
-3.46
-3.82
-4.37
-5.10
-5.88
-6.55
-6.96
-7.02
-6.72
-6.13
-5.38
-4.57
-3.74
-2.91
-2.03
-1.12
-0.21
0.61
1.27
1.72
1.97
2.07
2.05
1.93
1.70
1.41
1.14
0.99
1.04
1.31
1.75
2.25
2.72
3.15
3.55
3.96
4.39
4.77
5.04
5.13
5.04
4.78
4.40
3.93
3.37
2.74
2.10
1.52
1.08
0.78
0.56
0.35
0.07
-0.30
-0.76
-1.25
-1.77
-2.28
-2.78
-3.23
-3.60
-3.92
-4.24
-4.66
-5.26
-6.03
-6.85
-7.54
-7.88
-7.75
-7.11
-6.04
-4.67
-3.16
-1.66
-0.31
0.77
1.52
1.96
2.16
2.26
2.36
2.51
2.73
2.99
3.22
3.37
3.42
3.35
3.20
3.04
2.97
3.07
3.37
3.81
4.27
4.64
4.83
4.82
4.64
4.34
3.96
3.56
3.18
2.86
2.62
2.42
2.19
1.90
1.51
1.06
0.57
0.07
-0.43
-0.93
-1.41
-1.79
-2.01
-2.04
-1.94
-1.84
-1.93
-2.31
-3.01
-3.94
-4.95
-5.93
-6.81
-7.55
-8.11
-8.43
-8.37
-7.80
-6.68
-5.06
-3.17
-1.28
0.33
1.52
2.29
2.74
3.01
3.19
3.28
3.26
3.15
3.02
2.96
3.06
3.30
3.62
3.92
4.19
4.44
4.72
5.04
5.37
5.60
5.69
5.61
5.44
5.25
5.06
4.84
4.56
4.18
3.77
3.37
3.05
2.75
2.40
1.92
1.27
0.54
-0.13
-0.64
-0.95
-1.15
-1.35
-1.65
-2.07
-2.54
-2.99
-3.40
-3.83
-4.38
-5.14
-6.10
-7.16
-8.18
-8.95
-9.37
-9.35
-8.88
-7.99
-6.79
-5.43
-4.06
-2.81
-1.73
-0.81
0.02
0.81
1.56
2.22
2.73
3.05
3.20
3.24
3.25
3.28
3.33
3.35
3.30
3.18
3.02
2.87
2.78
2.78
2.88
3.07
3.32
3.58
3.77
3.80
3.61
3.20
2.65
2.07
1.55
1.15
0.82
0.51
0.17
-0.16
-0.35
-0.27
0.15
0.87
1.75
2.56
3.13
3.42
3.52
3.60
3.84
4.32
5.03
5.85
6.64
7.26
7.56
7.45
6.89
5.97
4.92
4.12
3.94
4.62
6.16
8.29
10.70
13.13
15.56
18.13
20.96
23.97
26.79
28.90
29.83
29.36
27.65
25.17
22.52
20.29
18.87
18.50
19.18
20.69
22.59
24.29
25.13
24.63
22.65
19.50
15.83
12.36
9.67
8.00
7.17
6.81
6.43
5.66
4.30
2.28
-0.37
-3.59
-7.20
-10.94
-14.44
-17.30
-19.23
-20.16
-20.28
-19.99
-19.76
-20.05
-21.14
-23.16
-26.03
-29.48
-33.04
-36.17
-38.39
-39.43
-39.31
-38.37
-37.07
-35.85
-35.02
-34.67
-34.73
-35.03
-35.34
-35.42
-35.04
-34.02
-32.26
-29.78
-26.75
-23.46
-20.29
-17.58
-15.59
-14.43
-14.05
-14.24
-14.75
-15.26
-15.44
-15.01
-13.76
-11.59
-8.52
-4.58
0.21
5.93
12.61
20.11
27.96
35.47
41.81
46.32
48.65
48.86
47.38
44.94
42.45
40.87
40.84
42.37
44.66
46.21
45.43
41.26
33.69
23.77
13.18
3.44
-4.61
-11.02
-16.47
-21.92
-28.11
-35.44
-43.90
-53.13
-62.53
-71.32
-78.59
-83.50
-85.43
-84.18
-80.08
-74.02
-67.29
-61.21
-56.80
-54.32
-53.27
-52.54
-50.89
-47.44
-41.93
-34.70
-26.43
-17.79
-9.36
-1.68
4.61
8.75
10.15
8.74
5.10
0.41
-4.05
-7.37
-9.37
-10.51
-11.54
-12.98
-14.83
-16.61
-17.66
-17.50
-16.00
-13.35
-9.87
-5.86
-1.50
3.06
7.62
11.89
15.57
18.58
21.10
23.58
26.53
30.27
34.71
39.46
43.99
47.82
50.67
52.49
53.39
53.60
53.49
53.44
53.81
54.71
55.93
56.96
57.11
55.86
53.04
49.03
44.60
40.78
38.51
38.34
40.31
43.89
48.16
52.11
54.98
56.47
56.71
56.02
54.52
52.02
48.00
42.05
34.18
25.05
15.80
7.63
1.30
-3.05
-5.88
-7.89
-9.65
-11.39
-13.07
-14.63
-16.13
-17.85
-20.11
-22.98
-26.23
-29.26
-31.40
-32.20
-31.58
-29.91
-27.86
-26.12
-25.16
-25.03
-25.40
-25.70
-25.38
-24.15
-22.08
-19.53
-16.95
-14.69
-12.86
-11.41
-10.17
-9.03
-7.93
-6.84
-5.72
-4.52
-3.19
-1.71
-0.10
1.62
3.48
5.49
7.60
9.67
11.48
12.88
13.80
14.30
14.55
14.67
14.71
14.65
14.52
14.34
14.20
14.16
14.19
14.21
14.09
13.80
13.35
12.83
12.36
12.01
11.82
11.78
11.87
12.00
12.07
11.94
11.45
10.47
8.99
7.06
4.86
2.57
0.39
-1.58
-3.29
-4.76
-6.05
-7.19
-8.13
-8.79
-9.07
-8.95
-8.52
-8.00
-7.64
-7.64
-8.04
-8.71
-9.43
-9.99
-10.35
-10.64
-11.15
-12.18
-13.90
-16.31
-19.17
-22.19
-25.03
-27.50
-29.54
-31.19
-32.52
-33.62
-34.56
-35.43
-36.29
-37.19
-38.07
-38.78
-39.09
-38.79
-37.79
-36.17
-34.11
-31.87
-29.63
-27.50
-25.50
-23.64
-21.91
-20.30
-18.77
-17.22
-15.54
-13.64
-11.47
-9.05
-6.47
-3.87
-1.41
0.77
2.60
4.06
5.19
6.07
6.74
7.22
7.55
7.84
8.32
9.32
11.14
13.88
17.32
20.94
24.10
26.25
27.20
27.12
26.53
25.99
25.97
26.59
27.68
28.85
29.76
30.23
30.34
30.35
30.51
30.99
31.78
32.79
33.95
35.22
36.48
37.45
37.62
36.40
33.44
28.83
23.21
17.52
12.69
9.31
7.49
6.94
7.22
7.86
8.47
8.71
8.20
6.58
3.72
-0.17
-4.39
-7.92
-9.82
-9.62
-7.68
-5.06
-3.15
-3.11
-5.43
-9.72
-14.91
-19.76
-23.33
-25.29
-26.05
-26.48
-27.57
-29.92
-33.41
-37.14
-39.70
-39.77
-36.77
-31.21
-24.56
-18.67
-15.03
-14.15
-15.31
-16.59
-15.40
-9.38
2.72
20.28
40.87
60.92
77.03
87.21
91.40
91.16
88.53
85.02
80.96
75.86
69.09
60.59
51.13
41.92
33.96
27.63
22.56
17.95
13.00
7.29
0.99
-5.31
-10.86
-15.26
-18.63
-21.61
-25.03
-29.46
-34.85
-40.44
-45.11
-47.89
-48.41
-47.09
-44.82
-42.58
-40.91
-39.68
-38.32
-36.20
-33.06
-29.07
-24.77
-20.70
-17.09
-13.85
-10.73
-7.60
-4.57
-1.94
0.05
1.37
2.25
2.98
3.75
4.49
4.99
4.96
4.23
2.82
0.83
-1.61
-4.43
-7.66
-11.31
-15.28
-19.27
-22.72
-24.96
-25.55
-24.56
-22.77
-21.44
-21.84
-24.61
-29.38
-34.88
-39.39
-41.39
-39.97
-35.01
-27.27
-18.25
-9.97
-4.38
-2.62
-4.44
-8.10
-11.07
-11.18
-7.59
-1.02
6.76
13.89
19.21
22.44
23.81
23.63
21.98
18.85
14.40
9.08
3.48
-1.91
-6.84
-11.29
-15.29
-18.78
-21.51
-23.11
-23.16
-21.26
-17.24
-11.34
-4.27
2.92
9.16
13.73
16.59
18.30
19.78
21.78
24.50
27.45
29.70
30.32
28.87
25.63
21.49
17.47
14.36
12.36
11.23
10.54
9.98
9.49
9.03
8.35
6.78
3.52
-1.94
-9.29
-17.47
-25.04
-30.86
-34.68
-37.18
-39.47
-42.45
-46.31
-50.44
-53.77
-55.20
-53.91
-49.57
-42.31
-32.68
-21.61
-10.31
0.01
8.38
14.39
18.32
21.07
23.84
27.78
33.57
41.12
49.65
57.88
64.41
68.15
68.60
65.93
60.82
54.26
47.26
40.66
34.94
30.20
26.18
22.44
18.59
14.49
10.34
6.49
3.29
0.88
-0.82
-2.07
-3.05
-3.86
-4.52
-5.09
-5.66
-6.36
-7.22
-8.13
-8.87
-9.24
-9.13
-8.57
-7.76
-6.95
-6.45
-6.53
-7.39
-9.05
-11.33
-13.80
-15.94
-17.36
-17.91
-17.77
-17.36
-17.11
-17.26
-17.78
-18.37
-18.65
-18.32
-17.24
-15.42
-13.01
-10.19
-7.16
-4.08
-1.11
1.66
4.19
6.53
8.83
11.21
13.71
16.22
18.48
20.19
21.13
21.29
20.84
20.02
19.05
18.02
16.91
15.69
14.35
12.96
11.63
10.39
9.27
8.24
7.29
6.46
5.79
5.26
4.77
4.19
3.43
2.49
1.50
0.58
-0.17
-0.79
-1.39
-2.05
-2.79
-3.52
-4.18
-4.75
-5.28
-5.85
-6.44
-6.89
-7.02
-6.69
-5.92
-4.88
-3.74
-2.59
-1.30
0.28
2.24
4.47
6.60
8.19
8.91
8.70
7.74
6.39
5.01
3.84
3.00
2.50
2.32
2.40
2.67
3.05
3.41
3.61
3.55
3.16
2.47
1.56
0.55
-0.43
-1.28
-1.96
-2.44
-2.75
-2.95
-3.11
-3.30
-3.58
-3.95
-4.39
-4.82
-5.14
-5.26
-5.15
-4.85
-4.42
-3.98
-3.62
-3.37
-3.23
-3.17
-3.13
-3.10
-3.06
-3.03
-3.03
-3.12
-3.36
-3.76
-4.26
-4.77
-5.15
-5.27
-5.12
-4.79
-4.42
-4.17
-4.11
-4.22
-4.43
-4.64
-4.81
-4.95
-5.07
-5.10
-4.93
-4.43
-3.57
-2.46
-1.30
-0.34
0.27
0.52
0.52
0.45
0.44
0.53
0.70
0.91
1.16
1.43
1.72
1.98
2.15
2.20
2.19
2.19
2.30
2.52
2.78
2.97
3.02
2.93
2.76
2.58
2.45
2.36
2.24
2.06
1.79
1.41
0.96
0.47
-0.01
-0.43
-0.77
-1.01
-1.18
-1.30
-1.41
-1.52
-1.65
-1.83
-2.08
-2.42
-2.84
-3.25
-3.59
-3.78
-3.84
-3.83
-3.85
-4.01
-4.34
-4.81
-5.32
-5.70
-5.75
-5.33
-4.36
-2.91
-1.20
0.47
1.84
2.78
3.30
3.56
3.72
3.94
4.27
4.66
5.00
5.11
4.82
3.96
2.46
0.40
-2.01
-4.45
-6.62
-8.28
-9.40
-10.07
-10.48
-10.83
-11.22
-11.63
-11.95
-12.00
-11.60
-10.59
-8.93
-6.66
-3.95
-1.02
1.92
4.66
7.09
9.16
10.84
12.13
13.02
13.55
13.84
14.00
14.16
14.37
14.56
14.58
14.21
13.33
11.87
9.88
7.52
4.93
2.26
-0.43
-3.08
-5.70
-8.21
-10.50
-12.38
-13.64
-14.14
-13.90
-13.08
-12.00
-10.98
-10.26
-9.95
-10.01
-10.31
-10.77
-11.36
-12.07
-12.87
-13.67
-14.36
-14.84
-15.15
-15.44
-15.98
-16.96
-18.48
-20.42
-22.53
-24.49
-26.00
-26.83
-26.84
-26.00
-24.37
-22.10
-19.36
-16.35
-13.22
-10.07
-6.91
-3.72
-0.47
2.90
6.45
10.14
13.85
17.34
20.28
22.38
23.49
23.63
22.99
21.84
20.42
18.88
17.29
15.67
14.04
12.46
11.05
9.93
9.20
8.84
8.73
8.66
8.41
7.85
7.01
6.11
5.43
5.22
5.63
6.65
8.13
9.89
11.70
13.41
14.88
16.00
16.66
16.77
16.22
14.95
12.98
10.45
7.58
4.70
2.09
-0.02
-1.52
-2.47
-3.03
-3.40
-3.83
-4.46
-5.34
-6.38
-7.34
-7.94
-7.93
-7.16
-5.65
-3.56
-1.17
1.23
3.37
5.04
6.12
6.60
6.58
6.27
5.99
6.03
6.55
7.48
8.52
9.23
9.21
8.24
6.39
3.99
1.49
-0.71
-2.34
-3.37
-3.93
-4.27
-4.59
-5.06
-5.73
-6.59
-7.55
-8.46
-9.14
-9.41
-9.17
-8.45
-7.35
-6.07
-4.82
-3.76
-2.97
-2.38
-1.88
-1.31
-0.54
0.44
1.50
2.42
2.91
2.80
2.12
1.10
0.13
-0.32
0.17
1.93
5.17
9.85
15.71
22.21
28.60
34.09
38.04
40.11
40.27
38.78
36.03
32.52
28.70
24.99
21.70
18.95
16.62
14.41
11.99
9.16
5.97
2.68
-0.39
-3.09
-5.48
-7.83
-10.45
-13.49
-16.88
-20.39
-23.71
-26.68
-29.30
-31.72
-34.14
-36.72
-39.44
-42.19
-44.71
-46.74
-48.03
-48.36
-47.63
-45.80
-42.89
-38.99
-34.21
-28.76
-22.89
-16.97
-11.36
-6.37
-2.06
1.72
5.27
8.85
12.50
15.95
18.80
20.68
21.51
21.61
21.48
21.65
22.33
23.38
24.39
24.90
24.63
23.58
21.95
20.03
18.04
16.04
13.93
11.61
9.09
6.49
4.04
1.91
0.09
-1.59
-3.39
-5.52
-8.00
-10.63
-13.12
-15.18
-16.65
-17.58
-18.10
-18.39
-18.59
-18.72
-18.75
-18.63
-18.30
-17.72
-16.86
-15.72
-14.34
-12.77
-11.08
-9.32
-7.49
-5.49
-3.18
-0.37
3.04
7.05
11.53
16.28
21.08
25.74
30.11
33.98
37.09
39.22
40.23
40.23
39.48
38.38
37.21
36.06
34.77
33.12
30.91
28.15
25.01
21.73
18.55
15.61
13.05
10.92
9.27
8.06
7.15
6.31
5.29
3.88
2.02
-0.23
-2.72
-5.22
-7.57
-9.68
-11.55
-13.25
-14.86
-16.44
-17.93
-19.20
-20.13
-20.66
-20.83
-20.78
-20.63
-20.47
-20.35
-20.29
-20.36
-20.63
-21.19
-22.02
-23.03
-24.02
-24.80
-25.25
-25.38
-25.29
-25.12
-25.01
-24.98
-25.01
-25.00
-24.81
-24.29
-23.24
-21.50
-18.96
-15.66
-11.79
-7.65
-3.54
0.33
3.88
7.16
10.27
13.30
16.21
18.95
21.40
23.47
25.06
26.06
26.35
25.88
24.62
22.68
20.19
17.32
14.22
11.02
7.89
4.97
2.47
0.51
-0.82
-1.54
-1.76
-1.68
-1.60
-1.78
-2.43
-3.63
-5.23
-6.96
-8.43
-9.36
-9.66
-9.46
-9.08
-8.85
-9.02
-9.66
-10.65
-11.71
-12.55
-12.87
-12.53
-11.51
-9.95
-8.06
-6.08
-4.20
-2.52
-1.07
0.18
1.32
2.44
3.55
4.56
5.29
5.57
5.26
4.42
3.23
1.92
0.68
-0.49
-1.72
-3.17
-4.89
-6.73
-8.40
-9.61
-10.19
-10.16
-9.76
-9.29
-9.02
-9.10
-9.48
-9.98
-10.34
-10.35
-9.88
-8.91
-7.52
-5.83
-3.94
-1.91
0.22
2.37
4.41
6.13
7.35
7.96
8.00
7.65
7.16
6.74
6.52
6.46
6.44
6.32
6.02
5.54
4.98
4.49
4.25
4.40
5.04
6.16
7.62
9.24
10.76
12.00
12.80
13.12
12.94
12.33
11.38
10.22
8.97
7.75
6.61
5.53
4.48
3.43
2.39
1.42
0.56
-0.13
-0.66
-1.01
-1.22
-1.29
-1.21
-0.97
-0.53
0.09
0.84
1.59
2.19
2.48
2.39
1.98
1.34
0.60
-0.14
-0.89
-1.66
-2.46
-3.24
-3.93
-4.44
-4.71
-4.70
-4.45
-4.02
-3.47
-2.88
-2.27
-1.60
-0.84
0.03
0.99
1.96
2.88
3.68
4.38
5.04
5.70
6.33
6.83
7.10
7.06
6.73
6.21
5.58
4.94
4.31
3.69
3.09
2.56
2.15
1.89
1.79
1.79
1.86
1.96
2.08
2.20
2.32
2.43
2.53
2.61
2.63
2.50
2.14
1.55
0.82
0.15
-0.24
-0.25
0.05
0.45
0.71
0.72
0.50
0.22
0.02
-0.07
-0.17
-0.43
-0.92
-1.61
-2.32
-2.89
-3.21
-3.29
-3.22
-3.14
-3.15
-3.32
-3.64
-4.07
-4.51
-4.83
-4.90
-4.62
-4.00
-3.12
-2.10
-1.07
-0.12
0.71
1.43
1.99
2.38
2.55
2.54
2.41
2.27
2.19
2.17
2.22
2.29
2.40
2.57
2.78
2.99
3.12
3.10
2.93
2.66
2.44
2.31
2.27
2.22
2.05
1.71
1.27
0.88
0.68
0.71
0.91
1.14
1.27
1.20
0.98
0.64
0.25
-0.15
-0.54
-0.90
-1.18
-1.32
-1.31
-1.15
-0.91
-0.64
-0.41
-0.26
-0.22
-0.29
-0.50
-0.83
-1.28
-1.83
-2.41
-2.99
-3.47
-3.76
-3.79
-3.52
-2.98
-2.29
-1.57
-0.94
-0.42
0.04
0.51
1.04
1.58
2.04
2.34
2.42
2.31
2.06
1.75
1.45
1.20
1.04
0.98
1.02
1.14
1.30
1.48
1.63
1.76
1.87
1.96
2.03
2.07
2.05
1.95
1.78
1.57
1.36
1.17
0.99
0.80
0.57
0.32
0.11
0.02
0.11
0.34
0.62
0.82
0.81
0.59
0.23
-0.14
-0.38
-0.46
-0.41
-0.36
-0.45
-0.75
-1.27
-1.94
-2.66
-3.32
-3.86
-4.27
-4.58
-4.87
-5.18
-5.53
-5.89
-6.14
-6.19
-5.96
-5.44
-4.71
-3.93
-3.21
-2.63
-2.18
-1.84
-1.58
-1.37
-1.22
-1.12
-1.08
-1.07
-1.09
-1.14
-1.22
-1.34
-1.52
-1.77
-2.07
-2.35
-2.57
-2.69
-2.73
-2.77
-2.88
-3.03
-3.13
-3.03
-2.58
-1.78
-0.75
0.33
1.31
2.15
2.92
3.67
4.43
5.12
5.60
5.80
5.71
5.39
4.91
4.33
3.65
2.89
2.07
1.26
0.53
-0.10
-0.65
-1.16
-1.68
-2.19
-2.60
-2.85
-2.90
-2.75
-2.50
-2.23
-2.00
-1.82
-1.66
-1.48
-1.30
-1.15
-1.12
-1.29
-1.67
-2.24
-2.92
-3.63
-4.30
-4.89
-5.41
-5.89
-6.32
-6.68
-6.96
-7.18
-7.40
-7.73
-8.26
-8.95
-9.68
-10.26
-10.55
-10.54
-10.33
-10.07
-9.87
-9.70
-9.46
-8.98
-8.20
-7.10
-5.77
-4.20
-2.30
0.12
3.24
7.05
11.37
15.82
20.05
23.88
27.36
30.71
34.21
37.96
41.86
45.62
48.96
51.66
53.63
54.85
55.37
55.29
54.75
53.95
53.06
52.09
50.79
48.69
45.25
40.10
33.25
25.09
16.31
7.68
-0.23
-7.08
-12.84
-17.61
-21.55
-24.81
-27.44
-29.44
-30.81
-31.59
-31.89
-31.83
-31.55
-31.12
-30.56
-29.82
-28.87
-27.73
-26.51
-25.35
-24.37
-23.64
-23.10
-22.60
-22.02
-21.26
-20.34
-19.35
-18.44
-17.75
-17.36
-17.26
-17.32
-17.39
-17.29
-16.97
-16.47
-15.94
-15.55
-15.35
-15.27
-15.13
-14.74
-14.02
-12.99
-11.82
-10.69
-9.78
-9.17
-8.84
-8.74
-8.73
-8.71
-8.58
-8.33
-8.04
-7.84
-7.89
-8.25
-8.90
-9.70
-10.43
-10.90
-10.91
-10.36
-9.14
-7.26
-4.76
-1.81
1.40
4.62
7.70
10.53
13.08
15.38
17.42
19.14
20.46
21.26
21.48
21.15
20.36
19.27
18.07
16.88
15.80
14.84
13.98
13.19
12.37
11.45
10.29
8.78
6.84
4.52
2.03
-0.35
-2.37
-3.89
-4.98
-5.84
-6.69
-7.69
-8.81
-9.91
-10.81
-11.40
-11.66
-11.69
-11.59
-11.45
-11.28
-11.07
-10.83
-10.61
-10.54
-10.68
-11.00
-11.33
-11.41
-11.03
-10.15
-8.91
-7.58
-6.39
-5.48
-4.81
-4.23
-3.61
-2.90
-2.11
-1.29
-0.49
0.29
1.00
1.61
2.07
2.35
2.47
2.51
2.54
2.62
2.75
2.88
3.01
3.12
3.25
3.38
3.53
3.66
3.74
3.77
3.77
3.74
3.67
3.52
3.25
2.86
2.42
2.03
1.79
1.75
1.82
1.86
1.75
1.43
0.99
0.58
0.33
0.26
0.26
0.14
-0.25
-0.95
-1.85
-2.72
-3.30
-3.43
-3.08
-2.37
-1.48
-0.60
0.16
0.81
1.40
2.03
2.70
3.36
3.93
4.38
4.75
5.13
5.60
6.13
6.60
6.87
6.83
6.51
6.01
5.53
5.22
5.12
5.19
5.34
5.45
5.45
5.35
5.16
4.88
4.52
4.05
3.47
2.85
2.25
1.75
1.40
1.17
1.04
0.93
0.82
0.68
0.49
0.22
-0.16
-0.70
-1.36
-2.05
-2.65
-3.04
-3.22
-3.25
-3.28
-3.46
-3.88
-4.54
-5.33
-6.09
-6.64
-6.83
-6.59
-5.96
-5.03
-3.93
-2.79
-1.69
-0.67
0.20
0.88
1.34
1.57
1.61
1.54
1.45
1.41
1.45
1.58
1.82
2.18
2.65
3.15
3.59
3.86
3.91
3.74
3.44
3.11
2.88
2.83
2.95
3.16
3.34
3.36
3.18
2.86
2.51
2.25
2.11
2.04
1.90
1.59
1.08
0.46
-0.16
-0.66
-1.02
-1.28
-1.49
-1.72
-1.96
-2.19
-2.37
-2.46
-2.48
-2.49
-2.58
-2.85
-3.36
-4.02
-4.68
-5.11
-5.16
-4.80
-4.12
-3.29
-2.44
-1.60
-0.75
0.16
1.09
1.96
2.66
3.14
3.42
3.57
3.66
3.65
3.51
3.23
2.85
2.47
2.20
2.15
2.32
2.69
3.16
3.62
3.96
4.10
4.04
3.84
3.62
3.48
3.42
3.39
3.31
3.14
2.94
2.81
2.81
2.89
2.92
2.75
2.32
1.68
1.02
0.52
0.28
0.28
0.38
0.44
0.31
-0.03
-0.56
-1.19
-1.84
-2.42
-2.88
-3.17
-3.30
-3.31
-3.31
-3.38
-3.53
-3.75
-3.94
-4.00
-3.86
-3.53
-3.06
-2.54
-2.04
-1.59
-1.16
-0.72
-0.23
0.31
0.82
1.26
1.55
1.66
1.64
1.57
1.53
1.58
1.71
1.87
2.02
2.13
2.19
2.25
2.34
2.48
2.66
2.83
2.93
2.87
2.62
2.20
1.69
1.19
0.81
0.61
0.58
0.66
0.75
0.76
0.64
0.41
0.10
-0.21
-0.48
-0.67
-0.79
-0.89
-0.99
-1.14
-1.32
-1.54
-1.79
-2.08
-2.42
-2.81
-3.24
-3.67
-4.06
-4.35
-4.46
-4.37
-4.04
-3.48
-2.75
-2.00
-1.34
-0.90
-0.69
-0.64
-0.61
-0.52
-0.34
-0.14
-0.05
-0.15
-0.47
-0.93
-1.43
-1.87
-2.19
-2.42
-2.58
-2.70
-2.83
-2.96
-3.13
-3.38
-3.76
-4.32
-5.05
-5.89
-6.76
-7.59
-8.33
-8.98
-9.52
-9.91
-10.07
-9.90
-9.36
-8.54
-7.64
-6.93
-6.62
-6.77
-7.26
-7.85
-8.31
-8.47
-8.30
-7.85
-7.18
-6.31
-5.24
-3.99
-2.64
-1.29
-0.05
1.04
2.05
3.12
4.34
5.76
7.31
8.82
10.13
11.12
11.80
12.27
12.68
13.15
13.73
14.29
14.69
14.76
14.44
13.80
13.00
12.22
11.56
11.03
10.56
10.10
9.61
9.07
8.50
7.91
7.28
6.61
5.88
5.11
4.34
3.64
3.04
2.58
2.27
2.09
1.97
1.87
1.75
1.57
1.37
1.14
0.90
0.67
0.45
0.27
0.16
0.12
0.10
0.07
-0.02
-0.16
-0.29
-0.32
-0.19
0.08
0.40
0.66
0.75
0.66
0.44
0.21
0.05
-0.01
0.02
0.11
0.27
0.53
0.96
1.57
2.33
3.17
3.96
4.63
5.13
5.51
5.78
6.00
6.19
6.31
6.33
6.25
6.04
5.77
5.52
5.40
5.47
5.71
6.02
6.23
6.21
5.90
5.35
4.70
4.09
3.63
3.35
3.21
3.16
3.15
3.16
3.20
3.26
3.34
3.40
3.42
3.38
3.29
3.16
2.99
2.78
2.51
2.17
1.79
1.46
1.25
1.16
1.12
1.03
0.76
0.31
-0.24
-0.78
-1.26
-1.71
-2.27
-3.08
-4.20
-5.60
-7.19
-8.78
-10.23
-11.40
-12.24
-12.76
-13.05
-13.25
-13.49
-13.88
-14.41
-15.04
-15.68
-16.22
-16.60
-16.76
-16.68
-16.37
-15.90
-15.41
-15.03
-14.85
-14.88
-15.01
-15.08
-14.93
-14.43
-13.54
-12.31
-10.85
-9.30
-7.80
-6.46
-5.36
-4.50
-3.86
-3.35
-2.92
-2.53
-2.20
-2.00
-2.02
-2.31
-2.92
-3.80
-4.89
-6.14
-7.50
-8.92
-10.38
-11.79
-13.12
-14.31
-15.35
-16.21
-16.89
-17.31
-17.40
-17.09
-16.35
-15.24
-13.77
-11.95
-9.72
-7.02
-3.81
-0.21
3.52
7.07
10.21
12.83
15.04
17.02
18.93
20.84
22.67
24.28
25.56
26.49
27.11
27.53
27.78
27.89
27.83
27.59
27.18
26.65
26.02
25.30
24.48
23.53
22.42
21.10
19.54
17.72
15.65
13.42
11.16
9.01
7.13
5.55
4.28
3.21
2.26
1.35
0.42
-0.59
-1.75
-3.09
-4.62
-6.24
-7.78
-9.05
-9.95
-10.55
-11.06
-11.73
-12.70
-13.91
-15.10
-15.94
-16.18
-15.73
-14.70
-13.32
-11.80
-10.30
-8.89
-7.64
-6.59
-5.80
-5.29
-4.97
-4.70
-4.30
-3.66
-2.78
-1.80
-0.90
-0.27
0.02
0.00
-0.20
-0.43
-0.60
-0.64
-0.56
-0.39
-0.15
0.13
0.44
0.72
0.92
0.99
0.94
0.83
0.76
0.81
0.97
1.16
1.24
1.07
0.62
-0.05
-0.79
-1.45
-1.97
-2.39
-2.78
-3.25
-3.81
-4.42
-5.03
-5.61
-6.13
-6.56
-6.86
-6.95
-6.81
-6.48
-6.05
-5.60
-5.19
-4.80
-4.35
-3.84
-3.27
-2.71
-2.24
-1.88
-1.63
-1.50
-1.49
-1.65
-1.98
-2.43
-2.87
-3.15
-3.12
-2.68
-1.87
-0.76
0.51
1.78
2.96
3.97
4.77
5.34
5.67
5.82
5.88
5.97
6.22
6.69
7.30
7.93
8.40
8.55
8.31
7.73
6.92
6.05
5.31
4.82
4.59
4.55
4.52
4.35
3.91
3.23
2.38
1.49
0.61
-0.29
-1.22
-2.21
-3.18
-4.05
-4.72
-5.18
-5.45
-5.57
-5.54
-5.36
-5.01
-4.51
-3.90
-3.23
-2.50
-1.73
-0.95
-0.16
0.57
1.23
1.80
2.32
2.85
3.39
3.90
4.30
4.50
4.46
4.21
3.83
3.48
3.28
3.31
3.55
3.93
4.29
4.51
4.58
4.51
4.38
4.26
4.10
3.86
3.45
2.90
2.29
1.76
1.41
1.25
1.19
1.10
0.88
0.51
0.03
-0.47
-0.93
-1.32
-1.64
-1.88
-2.05
-2.15
-2.24
-2.33
-2.45
-2.63
-2.83
-3.05
-3.28
-3.48
-3.61
-3.58
-3.29
-2.73
-1.94
-1.06
-0.26
0.35
0.76
1.09
1.46
1.94
2.51
3.08
3.53
3.81
3.91
3.86
3.72
3.53
3.33
3.15
3.06
3.10
3.30
3.62
3.96
4.22
4.32
4.23
4.02
3.77
3.50
3.21
2.86
2.39
1.83
1.24
0.72
0.35
0.11
-0.03
-0.15
-0.28
-0.46
-0.65
-0.85
-1.04
-1.22
-1.39
-1.53
-1.63
-1.70
-1.77
-1.93
-2.22
-2.68
-3.27
-3.89
-4.41
-4.71
-4.71
-4.42
-3.88
-3.17
-2.39
-1.60
-0.87
-0.21
0.33
0.75
1.05
1.24
1.34
1.41
1.45
1.50
1.55
1.57
1.55
1.46
1.32
1.17
1.06
1.02
1.10
1.24
1.42
1.57
1.63
1.59
1.47
1.27
1.03
0.75
0.43
0.11
-0.16
-0.31
-0.28
-0.08
0.25
0.59
0.86
1.00
1.00
0.87
0.67
0.44
0.23
0.04
-0.12
-0.25
-0.41
-0.61
-0.90
-1.25
-1.63
-1.99
-2.32
-2.62
-2.90
-3.13
-3.28
-3.28
-3.11
-2.75
-2.23
-1.65
-1.07
-0.57
-0.22
-0.04
-0.01
-0.10
-0.22
-0.28
-0.22
-0.03
0.27
0.60
0.91
1.14
1.26
1.27
1.18
1.03
0.85
0.72
0.67
0.73
0.93
1.20
1.51
1.79
1.99
2.08
2.07
1.96
1.78
1.55
1.32
1.15
1.09
1.18
1.38
1.62
1.81
1.89
1.84
1.69
1.47
1.18
0.80
0.34
-0.16
-0.63
-1.00
-1.21
-1.29
-1.29
-1.29
-1.37
-1.56
-1.89
-2.34
-2.89
-3.47
-3.97
-4.28
-4.29
-3.95
-3.31
-2.41
-1.37
-0.26
0.82
1.77
2.46
2.76
2.63
2.13
1.48
0.94
0.73
0.90
1.33
1.79
2.07
2.10
1.95
1.78
1.70
1.75
1.85
1.94
2.00
2.03
2.05
2.05
1.93
1.63
1.11
0.44
-0.20
-0.65
-0.81
-0.70
-0.44
-0.24
-0.23
-0.48
-0.93
-1.49
-1.99
-2.35
-2.51
-2.55
-2.53
-2.56
-2.71
-3.00
-3.41
-3.90
-4.42
-4.93
-5.39
-5.76
-6.00
-6.10
-6.07
-5.95
-5.79
-5.62
-5.43
-5.18
-4.87
-4.52
-4.20
-3.99
-3.95
-4.06
-4.23
-4.38
-4.45
-4.48
-4.55
-4.78
-5.18
-5.76
-6.41
-7.05
-7.60
-8.05
-8.41
-8.73
-9.07
-9.43
-9.79
-10.08
-10.20
-10.09
-9.75
-9.29
-8.89
-8.73
-8.93
-9.47
-10.15
-10.74
-11.02
-10.87
-10.28
-9.37
-8.27
-7.13
-6.03
-5.02
-4.13
-3.32
-2.55
-1.79
-0.95
0.01
1.14
2.43
3.82
5.21
6.48
7.54
8.38
9.11
9.87
10.79
11.88
13.02
14.00
14.64
14.87
14.76
14.45
14.09
13.73
13.35
12.83
12.10
11.14
9.97
8.67
7.29
5.85
4.39
2.97
1.74
0.87
0.50
0.69
1.37
2.34
3.40
4.33
5.02
5.47
5.73
5.90
6.05
6.18
6.27
6.25
6.09
5.81
5.47
5.13
4.80
4.50
4.21
3.94
3.72
3.61
3.61
3.68
3.72
3.62
3.37
3.00
2.60
2.21
1.82
1.34
0.71
-0.06
-0.86
-1.50
-1.81
-1.72
-1.26
-0.58
0.20
0.94
1.62
2.22
2.74
3.15
3.39
3.40
3.19
2.82
2.40
2.04
1.81
1.71
1.68
1.64
1.53
1.31
1.03
0.69
0.33
-0.07
-0.54
-1.11
-1.75
-2.35
-2.84
-3.15
-3.31
-3.41
-3.54
-3.81
-4.22
-4.72
-5.21
-5.58
-5.76
-5.74
-5.57
-5.35
-5.17
-5.09
-5.09
-5.17
-5.31
-5.55
-5.93
-6.42
-6.95
-7.37
-7.57
-7.57
-7.45
-7.37
-7.43
-7.61
-7.79
-7.82
-7.64
-7.26
-6.74
-6.15
-5.49
-4.75
-3.93
-3.10
-2.36
-1.75
-1.26
-0.78
-0.23
0.44
1.18
1.90
2.50
2.95
3.28
3.52
3.67
3.72
3.67
3.59
3.55
3.66
3.97
4.46
5.06
5.65
6.14
6.48
6.65
6.64
6.50
6.26
5.98
5.68
5.33
4.90
4.34
3.63
2.82
2.00
1.25
0.61
0.04
-0.51
-1.08
-1.71
-2.34
-2.92
-3.43
-3.93
-4.50
-5.21
-6.08
-7.06
-8.07
-9.02
-9.86
-10.58
-11.16
-11.57
-11.75
-11.62
-11.11
-10.20
-8.87
-7.17
-5.17
-3.00
-0.82
1.16
2.81
4.04
4.82
5.24
5.41
5.45
5.49
5.56
5.64
5.70
5.67
5.56
5.40
5.24
5.09
4.92
4.65
4.24
3.71
3.15
2.64
2.23
1.90
1.59
1.28
0.99
0.78
0.67
0.66
0.69
0.73
0.78
0.91
1.22
1.75
2.47
3.30
4.10
4.77
5.27
5.63
5.88
6.02
6.01
5.78
5.32
4.68
3.98
3.37
2.96
2.78
2.78
2.88
3.02
3.18
3.36
3.56
3.75
3.87
3.83
3.55
3.02
2.31
1.54
0.84
0.31
-0.09
-0.45
-0.88
-1.44
-2.10
-2.76
-3.27
-3.55
-3.58
-3.43
-3.19
-2.94
-2.71
-2.49
-2.25
-1.97
-1.63
-1.27
-0.97
-0.82
-0.87
-1.09
-1.37
-1.60
-1.69
-1.65
-1.56
-1.53
-1.65
-1.89
-2.16
-2.35
-2.35
-2.12
-1.70
-1.14
-0.50
0.16
0.80
1.38
1.86
2.19
2.37
2.43
2.42
2.41
2.43
2.48
2.55
2.61
2.65
2.66
2.64
2.56
2.40
2.13
1.78
1.39
1.03
0.75
0.59
0.53
0.55
0.60
0.63
0.56
0.37
0.04
-0.41
-0.93
-1.46
-1.99
-2.51
-3.04
-3.57
-4.07
-4.47
-4.69
-4.64
-4.30
-3.70
-2.94
-2.15
-1.46
-0.95
-0.58
-0.28
0.03
0.40
0.75
1.01
1.08
0.97
0.73
0.43
0.12
-0.23
-0.65
-1.15
-1.64
-1.99
-2.11
-1.99
-1.76
-1.59
-1.66
-2.04
-2.76
-3.70
-4.76
-5.77
-6.63
-7.30
-7.81
-8.26
-8.74
-9.27
-9.78
-10.18
-10.41
-10.49
-10.51
-10.53
-10.56
-10.51
-10.27
-9.78
-9.04
-8.08
-6.96
-5.68
-4.21
-2.51
-0.57
1.52
3.64
5.63
7.37
8.80
9.94
10.87
11.66
12.36
12.93
13.31
13.40
13.15
12.60
11.83
10.98
10.14
9.38
8.68
7.99
7.22
6.31
5.19
3.92
2.55
1.22
-0.00
-1.06
-1.99
-2.85
-3.75
-4.78
-5.95
-7.24
-8.53
-9.70
-10.64
-11.28
-11.59
-11.61
-11.35
-10.86
-10.08
-8.95
-7.39
-5.37
-2.97
-0.26
2.65
5.79
9.19
12.88
16.82
20.82
24.59
27.80
30.21
31.71
32.33
32.19
31.39
29.99
28.01
25.46
22.37
18.88
15.19
11.51
8.04
4.86
1.98
-0.67
-3.11
-5.28
-7.03
-8.20
-8.72
-8.67
-8.26
-7.72
-7.23
-6.83
-6.45
-6.03
-5.55
-5.11
-4.83
-4.82
-5.03
-5.34
-5.57
-5.60
-5.43
-5.17
-4.96
-4.88
-4.89
-4.90
-4.78
-4.49
-4.05
-3.53
-3.00
-2.54
-2.15
-1.86
-1.70
-1.70
-1.86
-2.13
-2.38
-2.51
-2.38
-1.97
-1.34
-0.63
-0.03
0.34
0.42
0.25
-0.07
-0.42
-0.71
-0.90
-1.02
-1.08
-1.12
-1.16
-1.16
-1.12
-1.06
-1.01
-1.03
-1.17
-1.48
-1.93
-2.46
-2.96
-3.30
-3.46
-3.46
-3.43
-3.51
-3.76
-4.16
-4.60
-4.89
-4.93
-4.67
-4.16
-3.52
-2.88
-2.30
-1.78
-1.26
-0.67
0.02
0.72
1.33
1.75
1.93
1.95
1.91
1.92
1.95
1.93
1.76
1.41
0.97
0.59
0.41
0.49
0.78
1.15
1.47
1.68
1.77
1.78
1.74
1.67
1.53
1.29
0.97
0.64
0.41
0.37
0.56
0.95
1.40
1.75
1.83
1.59
1.06
0.40
-0.25
-0.72
-0.98
-1.05
-1.03
-0.99
-1.01
-1.07
-1.16
-1.23
-1.28
-1.29
-1.30
-1.33
-1.41
-1.57
-1.80
-2.09
-2.36
-2.54
-2.57
-2.47
-2.34
-2.28
-2.40
-2.70
-3.09
-3.39
-3.47
-3.24
-2.73
-2.04
-1.31
-0.66
-0.15
0.21
0.41
0.47
0.39
0.20
-0.03
-0.22
-0.27
-0.17
0.03
0.22
0.31
0.28
0.17
0.08
0.11
0.28
0.56
0.84
1.04
1.15
1.18
1.20
1.27
1.39
1.50
1.57
1.58
1.55
1.56
1.64
1.75
1.82
1.73
1.43
0.97
0.44
-0.01
-0.29
-0.39
-0.38
-0.36
-0.44
-0.63
-0.90
-1.19
-1.44
-1.64
-1.83
-2.01
-2.22
-2.45
-2.68
-2.90
-3.09
-3.25
-3.36
-3.42
-3.43
-3.44
-3.52
-3.73
-4.08
-4.52
-4.89
-5.05
-4.91
-4.48
-3.88
-3.26
-2.71
-2.23
-1.75
-1.16
-0.44
0.35
1.03
1.46
1.58
1.47
1.32
1.35
1.66
2.22
2.90
3.52
3.98
4.24
4.36
4.42
4.44
4.45
4.40
4.33
4.23
4.11
3.95
3.70
3.31
2.79
2.25
1.85
1.74
1.93
2.29
2.60
2.64
2.33
1.73
1.03
0.42
0.02
-0.18
-0.25
-0.31
-0.42
-0.59
-0.81
-1.05
-1.29
-1.56
-1.83
-2.06
-2.22
-2.30
-2.35
-2.47
-2.73
-3.13
-3.59
-4.00
-4.27
-4.41
-4.48
-4.59
-4.77
-4.97
-5.03
-4.80
-4.24
-3.42
-2.52
-1.77
-1.31
-1.14
-1.19
-1.28
-1.26
-1.04
-0.61
-0.08
0.41
0.74
0.85
0.74
0.51
0.27
0.10
0.04
0.07
0.15
0.26
0.40
0.58
0.79
0.99
1.14
1.23
1.31
1.44
1.61
1.77
1.78
1.54
1.04
0.41
-0.20
-0.62
-0.82
-0.87
-0.89
-1.01
-1.28
-1.70
-2.22
-2.82
-3.47
-4.12
-4.74
-5.28
-5.72
-6.04
-6.32
-6.60
-6.99
-7.53
-8.25
-9.13
-10.06
-10.90
-11.44
-11.55
-11.18
-10.41
-9.39
-8.36
-7.45
-6.73
-6.15
-5.63
-5.06
-4.40
-3.66
-2.87
-2.00
-1.02
0.14
1.49
2.96
4.38
5.61
6.58
7.32
7.97
8.64
9.38
10.10
10.67
10.97
11.01
10.89
10.68
10.44
10.08
9.53
8.80
8.02
7.39
7.06
7.05
7.23
7.42
7.47
7.36
7.19
7.15
7.35
7.84
8.55
9.35
10.09
10.67
11.03
11.18
11.24
11.30
11.44
11.65
11.84
11.91
11.83
11.68
11.62
11.80
12.21
12.66
12.85
12.54
11.66
10.37
9.00
7.83
6.97
6.32
5.67
4.79
3.59
2.16
0.66
-0.71
-1.81
-2.56
-2.94
-2.92
-2.50
-1.77
-0.83
0.17
1.13
2.08
3.12
4.41
6.02
7.83
9.52
10.63
10.73
9.51
6.95
3.32
-0.88
-5.06
-8.66
-11.34
-13.05
-14.04
-14.73
-15.58
-16.94
-18.90
-21.38
-24.09
-26.71
-28.92
-30.51
-31.44
-31.77
-31.67
-31.24
-30.50
-29.29
-27.38
-24.55
-20.73
-16.08
-10.93
-5.64
-0.55
4.09
8.09
11.28
13.51
14.71
14.95
14.48
13.67
12.80
11.97
11.04
9.70
7.69
4.96
1.70
-1.66
-4.64
-6.87
-8.20
-8.71
-8.58
-8.02
-7.16
-6.09
-4.90
-3.75
-2.86
-2.38
-2.35
-2.65
-3.04
-3.30
-3.31
-3.12
-2.92
-2.89
-3.15
-3.68
-4.34
-4.94
-5.27
-5.17
-4.54
-3.35
-1.66
0.39
2.55
4.57
6.21
7.34
8.01
8.36
8.63
8.95
9.32
9.55
9.41
8.69
7.31
5.36
2.98
0.30
-2.57
-5.49
-8.25
-10.52
-11.94
-12.35
-11.81
-10.71
-9.51
-8.59
-8.08
-7.82
-7.54
-6.99
-6.15
-5.18
-4.36
-3.85
-3.59
-3.37
-2.86
-1.85
-0.31
1.55
3.40
4.92
5.96
6.54
6.82
7.00
7.20
7.46
7.72
7.92
7.97
7.86
7.56
7.08
6.43
5.62
4.68
3.69
2.75
1.98
1.48
1.30
1.44
1.81
2.32
2.85
3.27
3.50
3.50
3.33
3.04
2.71
2.37
1.98
1.51
0.95
0.41
0.07
0.06
0.44
1.08
1.77
2.27
2.49
2.49
2.39
2.38
2.53
2.84
3.21
3.53
3.69
3.67
3.48
3.20
2.93
2.72
2.58
2.48
2.35
2.16
1.89
1.56
1.16
0.68
0.10
-0.59
-1.34
-2.06
-2.60
-2.87
-2.82
-2.53
-2.09
-1.63
-1.24
-0.94
-0.77
-0.75
-0.91
-1.21
-1.55
-1.77
-1.72
-1.33
-0.64
0.26
1.23
2.17
2.99
3.59
3.86
3.66
2.95
1.85
0.64
-0.35
-0.87
-0.84
-0.37
0.31
0.99
1.53
1.90
2.09
2.15
2.06
1.84
1.50
1.06
0.60
0.18
-0.12
-0.28
-0.34
-0.39
-0.59
-1.03
-1.72
-2.54
-3.27
-3.67
-3.56
-2.92
-1.86
-0.57
0.80
2.13
3.34
4.39
5.22
5.77
5.99
5.89
5.50
4.90
4.17
3.39
2.61
1.83
1.07
0.32
-0.42
-1.11
-1.69
-2.12
-2.37
-2.45
-2.37
-2.16
-1.83
-1.41
-0.97
-0.61
-0.41
-0.38
-0.46
-0.55
-0.56
-0.49
-0.44
-0.54
-0.85
-1.36
-1.93
-2.42
-2.70
-2.68
-2.36
-1.80
-1.09
-0.37
0.26
0.72
1.03
1.24
1.45
1.70
1.95
2.13
2.16
2.07
1.94
1.86
1.87
1.95
2.01
1.97
1.79
1.49
1.11
0.71
0.35
0.08
-0.04
0.01
0.22
0.51
0.77
0.94
0.99
0.96
0.93
0.93
0.98
1.04
1.06
0.97
0.76
0.46
0.15
-0.09
-0.23
-0.31
-0.45
-0.73
-1.17
-1.69
-2.12
-2.32
-2.21
-1.81
-1.22
-0.53
0.20
0.95
1.69
2.36
2.87
3.09
2.93
2.40
1.63
0.81
0.17
-0.17
-0.18
0.05
0.37
0.64
0.79
0.80
0.65
0.31
-0.29
-1.16
-2.21
-3.24
-4.04
-4.45
-4.44
-4.14
-3.74
-3.42
-3.29
-3.35
-3.54
-3.74
-3.84
-3.78
-3.56
-3.24
-2.88
-2.57
-2.35
-2.22
-2.15
-2.10
-2.06
-2.00
-1.88
-1.67
-1.37
-1.00
-0.59
-0.25
-0.06
-0.10
-0.38
-0.81
-1.33
-1.87
-2.33
-2.67
-2.93
-3.24
-3.73
-4.46
-5.35
-6.25
-7.01
-7.35
-7.17
-6.55
-5.83
-5.48
-5.86
-7.14
-9.20
-11.76
-14.17
-15.76
-16.14
-15.33
-13.67
-11.49
-8.98
-6.19
-3.07
0.79
5.87
12.41
20.29
29.10
38.30
47.37
55.70
60.91
60.95
55.32
45.73
34.99
25.34
17.67
11.86
7.59
4.02
1.06
-0.99
-1.91
-1.85
-1.34
-0.99
-1.05
-1.58
-2.49
-3.30
-3.57
-3.15
-2.33
-1.63
-1.47
-1.98
-3.04
-4.35
-5.42
-5.90
-5.69
-5.02
-4.23
-3.66
-3.46
-3.66
-4.22
-4.95
-5.67
-6.22
-6.58
-6.81
-6.99
-7.19
-7.44
-7.74
-8.00
-8.11
-8.03
-7.76
-7.38
-6.95
-6.53
-6.19
-5.94
-5.81
-5.79
-5.84
-5.89
-5.85
-5.72
-5.51
-5.29
-5.10
-4.93
-4.74
-4.45
-4.01
-3.42
-2.73
-2.01
-1.34
-0.78
-0.33
0.02
0.27
0.40
0.38
0.22
-0.05
-0.31
-0.47
-0.46
-0.30
-0.11
-0.03
-0.16
-0.55
-1.13
-1.81
-2.48
-3.06
-3.52
-3.83
-4.02
-4.10
-4.10
-4.07
-4.04
-4.04
-4.08
-4.21
-4.42
-4.70
-5.04
-5.39
-5.75
-6.08
-6.35
-6.52
-6.56
-6.43
-6.13
-5.66
-5.05
-4.31
-3.53
-2.78
-2.20
-1.88
-1.84
-2.03
-2.33
-2.62
-2.83
-2.95
-3.03
-3.08
-3.09
-3.01
-2.82
-2.52
-2.15
-1.76
-1.35
-0.87
-0.26
0.49
1.35
2.21
2.99
3.63
4.14
4.57
4.98
5.34
5.61
5.70
5.55
5.16
4.60
3.95
3.33
2.79
2.36
2.04
1.81
1.63
1.49
1.34
1.13
0.82
0.40
-0.08
-0.50
-0.74
-0.75
-0.57
-0.36
-0.29
-0.49
-0.97
-1.60
-2.20
-2.61
-2.77
-2.71
-2.45
-2.02
-1.46
-0.79
-0.04
0.68
1.30
1.75
1.99
2.04
1.96
1.85
1.81
1.92
2.16
2.45
2.66
2.67
2.46
2.11
1.82
1.76
2.02
2.51
3.02
3.35
3.36
3.10
2.69
2.32
2.11
2.09
2.19
2.32
2.38
2.35
2.23
2.06
1.87
1.64
1.34
0.96
0.52
0.07
-0.31
-0.58
-0.76
-0.94
-1.22
-1.62
-2.10
-2.56
-2.87
-3.00
-3.00
-3.01
-3.14
-3.49
-4.04
-4.73
-5.40
-5.89
-6.05
-5.79
-5.11
-4.09
-2.91
-1.73
-0.69
0.17
0.85
1.36
1.70
1.87
1.91
1.91
1.93
2.03
2.17
2.25
2.18
1.92
1.55
1.22
1.06
1.13
1.38
1.71
1.99
2.19
2.32
2.43
2.56
2.69
2.74
2.65
2.39
2.01
1.60
1.28
1.11
1.08
1.13
1.14
1.01
0.67
0.14
-0.52
-1.19
-1.77
-2.16
-2.34
-2.31
-2.17
-2.00
-1.95
-2.06
-2.34
-2.72
-3.07
-3.29
-3.29
-3.02
-2.48
-1.71
-0.75
0.31
1.32
2.17
2.74
3.00
2.98
2.78
2.51
2.27
2.12
2.11
2.24
2.49
2.83
3.20
3.54
3.80
3.94
3.95
3.89
3.81
3.78
3.81
3.84
3.80
3.61
3.25
2.76
2.25
1.84
1.57
1.45
1.39
1.32
1.24
1.17
1.16
1.24
1.36
1.42
1.31
0.94
0.35
-0.34
-0.98
-1.45
-1.70
-1.77
-1.75
-1.76
-1.85
-2.09
-2.50
-3.05
-3.65
-4.17
-4.45
-4.38
-3.92
-3.14
-2.20
-1.26
-0.44
0.21
0.71
1.10
1.42
1.68
1.87
2.01
2.13
2.29
2.50
2.77
3.05
3.29
3.43
3.42
3.30
3.12
2.99
2.97
3.08
3.24
3.34
3.28
3.04
2.73
2.45
2.32
2.34
2.45
2.54
2.50
2.30
1.97
1.59
1.20
0.85
0.56
0.34
0.21
0.16
0.13
0.05
-0.21
-0.70
-1.40
-2.20
-2.92
-3.44
-3.69
-3.74
-3.73
-3.78
-3.96
-4.22
-4.45
-4.54
-4.43
-4.13
-3.68
-3.14
-2.58
-2.00
-1.41
-0.80
-0.20
0.36
0.81
1.12
1.28
1.35
1.40
1.50
1.69
1.94
2.19
2.39
2.50
2.53
2.50
2.47
2.49
2.58
2.71
2.84
2.90
2.88
2.77
2.64
2.52
2.41
2.28
2.11
1.88
1.65
1.48
1.42
1.40
1.31
1.04
0.58
0.04
-0.43
-0.66
-0.64
-0.47
-0.35
-0.45
-0.80
-1.34
-1.87
-2.25
-2.41
-2.39
-2.34
-2.38
-2.58
-2.93
-3.38
-3.85
-4.26
-4.56
-4.69
-4.63
-4.34
-3.81
-3.05
-2.12
-1.12
-0.17
0.59
1.07
1.26
1.21
1.03
0.83
0.70
0.68
0.75
0.88
1.00
1.07
1.04
0.91
0.74
0.61
0.59
0.71
0.95
1.23
1.48
1.64
1.73
1.78
1.84
1.89
1.89
1.77
1.51
1.14
0.70
0.30
-0.03
-0.26
-0.45
-0.68
-0.95
-1.28
-1.62
-1.93
-2.20
-2.44
-2.69
-2.93
-3.09
-3.08
-2.87
-2.54
-2.27
-2.21
-2.37
-2.60
-2.62
-2.22
-1.34
-0.18
0.95
1.78
2.19
2.27
2.18
2.05
1.89
1.64
1.23
0.72
0.26
0.01
0.11
0.52
1.08
1.61
1.94
2.00
1.82
1.48
1.09
0.73
0.47
0.36
0.37
0.50
0.69
0.86
0.96
0.93
0.77
0.51
0.18
-0.20
-0.63
-1.08
-1.49
-1.76
-1.83
-1.67
-1.36
-1.03
-0.79
-0.71
-0.79
-0.98
-1.24
-1.55
-1.93
-2.41
-2.95
-3.51
-4.01
-4.34
-4.41
-4.16
-3.55
-2.62
-1.49
-0.33
0.69
1.46
2.02
2.46
2.88
3.31
3.71
3.96
4.05
4.01
3.92
3.85
3.77
3.59
3.23
2.64
1.88
1.04
0.23
-0.52
-1.24
-2.01
-2.89
-3.90
-5.02
-6.16
-7.21
-8.08
-8.73
-9.18
-9.53
-9.88
-10.34
-10.92
-11.61
-12.35
-13.14
-13.96
-14.83
-15.75
-16.67
-17.54
-18.29
-18.82
-19.08
-19.04
-18.69
-18.06
-17.15
-15.99
-14.62
-13.12
-11.67
-10.46
-9.65
-9.26
-9.17
-9.08
-8.61
-7.36
-4.97
-1.25
3.75
9.64
15.72
21.19
25.37
28.02
29.34
29.89
30.23
30.68
31.27
31.79
32.01
31.85
31.35
30.62
29.69
28.49
26.97
25.13
23.07
20.98
19.06
17.47
16.23
15.29
14.46
13.55
12.35
10.73
8.73
6.55
4.49
2.88
1.96
1.77
2.21
3.09
4.14
5.14
5.83
5.98
5.37
3.84
1.39
-1.84
-5.56
-9.37
-12.95
-16.04
-18.55
-20.50
-22.01
-23.20
-24.22
-25.18
-26.12
-27.02
-27.76
-28.11
-27.83
-26.72
-24.73
-21.98
-18.77
-15.45
-12.37
-9.74
-7.60
-5.84
-4.29
-2.81
-1.33
0.11
1.43
2.55
3.43
4.10
4.60
5.00
5.34
5.63
5.86
6.01
6.10
6.15
6.21
6.33
6.50
6.67
6.78
6.76
6.63
6.44
6.30
6.26
6.27
6.24
6.06
5.69
5.17
4.62
4.12
3.70
3.29
2.79
2.14
1.36
0.55
-0.10
-0.48
-0.56
-0.41
-0.22
-0.18
-0.40
-0.88
-1.53
-2.20
-2.78
-3.18
-3.38
-3.36
-3.11
-2.64
-2.01
-1.33
-0.66
-0.10
0.35
0.70
0.98
1.21
1.40
1.58
1.75
1.95
2.15
2.29
2.30
2.11
1.73
1.26
0.80
0.47
0.35
0.43
0.66
0.98
1.30
1.57
1.73
1.79
1.76
1.67
1.59
1.54
1.51
1.46
1.30
0.95
0.39
-0.30
-1.02
-1.63
-2.05
-2.25
-2.26
-2.14
-1.96
-1.80
-1.77
-1.96
-2.42
-3.11
-3.92
-4.66
-5.17
-5.39
-5.32
-5.05
-4.66
-4.22
-3.74
-3.18
-2.52
-1.76
-0.92
-0.05
0.77
1.49
2.08
2.52
2.81
2.99
3.07
3.08
3.07
3.04
3.02
3.02
3.03
3.06
3.10
3.14
3.15
3.11
2.96
2.69
2.33
1.94
1.57
1.29
1.14
1.10
1.11
1.08
0.92
0.62
0.20
-0.25
-0.63
-0.88
-1.00
-1.08
-1.22
-1.48
-1.86
-2.28
-2.65
-2.91
-3.11
-3.32
-3.61
-4.00
-4.40
-4.70
-4.83
-4.78
-4.62
-4.38
-4.07
-3.62
-2.94
-2.04
-1.02
-0.02
0.81
1.41
1.83
2.17
2.51
2.80
2.97
2.93
2.70
2.36
2.06
1.87
1.80
1.77
1.73
1.67
1.65
1.74
1.98
2.30
2.60
2.78
2.81
2.74
2.67
2.64
2.62
2.52
2.25
1.80
1.26
0.80
0.54
0.51
0.60
0.65
0.52
0.21
-0.21
-0.66
-1.05
-1.40
-1.72
-2.00
-2.18
-2.22
-2.14
-2.04
-2.05
-2.24
-2.57
-2.91
-3.08
-2.98
-2.63
-2.12
-1.58
-1.07
-0.58
-0.08
0.43
0.91
1.28
1.50
1.56
1.55
1.57
1.73
2.04
2.48
2.95
3.34
3.57
3.60
3.48
3.27
3.06
2.88
2.76
2.69
2.67
2.71
2.84
3.05
3.31
3.50
3.52
3.31
2.92
2.45
2.04
1.76
1.61
1.53
1.44
1.29
1.08
0.83
0.57
0.30
0.05
-0.20
-0.44
-0.65
-0.83
-0.99
-1.11
-1.20
-1.29
-1.40
-1.57
-1.81
-2.09
-2.30
-2.37
-2.27
-2.04
-1.79
-1.60
-1.50
-1.44
-1.36
-1.19
-0.97
-0.79
-0.75
-0.91
-1.24
-1.62
-1.90
-1.97
-1.79
-1.44
-1.05
-0.74
-0.59
-0.57
-0.61
-0.62
-0.51
-0.28
0.06
0.43
0.76
0.97
1.00
0.82
0.47
0.05
-0.32
-0.58
-0.68
-0.70
-0.71
-0.79
-0.95
-1.18
-1.44
-1.73
-2.05
-2.43
-2.83
-3.20
-3.47
-3.57
-3.51
-3.32
-3.08
-2.83
-2.56
-2.22
-1.73
-1.08
-0.34
0.39
0.95
1.28
1.36
1.27
1.08
0.86
0.62
0.33
-0.00
-0.32
-0.54
-0.58
-0.38
-0.02
0.35
0.60
0.62
0.42
0.09
-0.25
-0.54
-0.74
-0.88
-0.96
-0.94
-0.78
-0.45
-0.05
0.29
0.39
0.18
-0.30
-0.93
-1.53
-2.01
-2.36
-2.62
-2.87
-3.16
-3.52
-3.91
-4.25
-4.45
-4.44
-4.19
-3.72
-3.14
-2.56
-2.07
-1.67
-1.31
-0.91
-0.42
0.12
0.62
0.98
1.12
1.06
0.88
0.69
0.55
0.49
0.47
0.49
0.55
0.66
0.87
1.15
1.45
1.70
1.83
1.84
1.77
1.69
1.64
1.58
1.46
1.20
0.77
0.22
-0.38
-0.91
-1.31
-1.56
-1.66
-1.65
-1.62
-1.63
-1.77
-2.06
-2.48
-2.95
-3.36
-3.64
-3.80
-3.91
-4.04
-4.19
-4.28
-4.16
-3.69
-2.81
-1.55
0.04
1.86
3.85
5.97
8.18
10.40
12.57
14.59
16.40
17.93
19.18
20.19
21.05
21.90
22.82
23.77
24.64
25.20
25.32
24.96
24.27
23.51
22.93
22.66
22.71
22.95
23.22
23.35
23.26
22.89
22.31
21.62
21.02
20.73
20.91
21.58
22.62
23.78
24.77
25.35
25.40
24.87
23.77
22.12
19.93
17.21
14.00
10.30
6.09
1.36
-3.92
-9.70
-15.78
-21.84
-27.50
-32.41
-36.33
-39.22
-41.15
-42.27
-42.72
-42.62
-42.09
-41.28
-40.36
-39.45
-38.59
-37.68
-36.57
-35.14
-33.37
-31.36
-29.23
-27.08
-24.95
-22.90
-20.95
-19.19
-17.69
-16.49
-15.54
-14.75
-14.03
-13.31
-12.53
-11.66
-10.64
-9.48
-8.25
-7.10
-6.17
-5.48
-4.96
-4.47
-3.91
-3.28
-2.68
-2.23
-2.01
-2.00
-2.13
-2.29
-2.46
-2.61
-2.73
-2.77
-2.69
-2.47
-2.18
-1.97
-2.02
-2.41
-3.10
-3.87
-4.44
-4.55
-4.08
-3.09
-1.78
-0.42
0.80
1.77
2.54
3.20
3.85
4.56
5.35
6.23
7.20
8.25
9.38
10.61
11.92
13.32
14.76
16.16
17.42
18.46
19.20
19.66
19.88
19.90
19.71
19.26
18.51
17.46
16.22
14.88
13.52
12.22
11.01
9.94
9.09
8.52
8.22
8.12
8.04
7.77
7.20
6.31
5.12
3.70
2.05
0.17
-1.96
-4.48
-7.45
-10.74
-14.08
-17.12
-19.52
-21.04
-21.64
-21.49
-21.18
-21.28
-22.14
-23.81
-26.10
-28.70
-31.29
-33.59
-35.43
-37.23
-39.36
-42.02
-45.13
-48.44
-51.59
-54.17
-55.74
-55.92
-55.06
-53.48
-51.31
-48.43
-44.60
-39.63
-33.54
-26.51
-15.75
-0.63
17.36
35.12
49.52
58.43
60.87
56.99
48.17
36.95
26.02
17.89
14.03
14.40
17.64
21.88
25.68
28.57
30.90
32.83
34.29
34.99
34.65
33.22
31.01
28.59
26.34
24.39
22.39
20.01
17.21
14.27
11.57
9.37
7.69
6.27
4.90
3.40
1.83
0.45
-0.47
-0.75
-0.20
1.34
4.02
7.97
13.05
18.83
24.71
30.11
34.00
35.77
35.23
32.61
28.55
23.92
19.59
16.11
13.49
11.27
8.84
5.79
2.18
-1.49
-4.56
-6.60
-7.63
-8.09
-8.64
-9.87
-12.25
-16.07
-21.34
-27.71
-34.41
-40.31
-44.31
-45.65
-44.21
-40.56
-35.70
-30.69
-26.23
-22.61
-19.71
-17.27
-15.03
-12.88
-10.86
-9.10
-7.73
-6.78
-6.16
-5.71
-5.26
-4.72
-4.07
-3.28
-2.25
-0.81
1.24
3.95
7.12
10.32
12.99
14.66
15.16
14.69
13.71
12.75
12.24
12.34
12.94
13.78
14.53
14.99
15.16
15.19
15.36
15.92
16.96
18.41
20.02
21.52
22.71
23.52
24.02
24.33
24.52
24.60
24.54
24.33
23.94
23.35
22.47
21.17
19.30
16.77
13.61
9.98
6.07
2.07
-1.87
-5.63
-9.11
-12.26
-15.03
-17.44
-19.51
-21.22
-22.52
-23.29
-23.53
-23.40
-23.24
-23.42
-24.14
-25.25
-26.26
-26.60
-25.85
-23.98
-21.35
-18.58
-16.21
-14.58
-13.76
-13.60
-13.86
-14.36
-14.90
-15.36
-15.57
-15.34
-14.54
-13.10
-11.14
-8.92
-6.79
-5.02
-3.69
-2.66
-1.59
-0.16
1.83
4.31
6.98
9.49
11.56
13.05
14.01
14.52
14.67
14.52
14.09
13.38
12.43
11.24
9.78
8.01
5.93
3.60
1.21
-0.98
-2.68
-3.70
-4.01
-3.77
-3.28
-2.90
-2.86
-3.26
-3.97
-4.72
-5.27
-5.44
-5.23
-4.77
-4.26
-3.85
-3.62
-3.55
-3.56
-3.56
-3.46
-3.25
-3.02
-2.92
-3.13
-3.75
-4.70
-5.75
-6.54
-6.75
-6.20
-4.98
-3.37
-1.70
-0.19
1.10
2.30
3.55
4.93
6.33
7.53
8.31
8.62
8.62
8.59
8.74
9.20
9.87
10.57
11.07
11.27
11.21
10.94
10.47
9.76
8.85
7.87
7.03
6.42
6.05
5.88
5.76
5.44
4.75
3.65
2.32
0.97
-0.40
-1.79
-3.08
-4.22
-5.22
-6.14
-6.87
-7.15
-6.79
-6.01
-5.10
-4.03
-2.65
-0.79
1.67
4.77
8.44
12.47
16.53
18.80
18.53
16.48
14.23
12.55
10.87
8.08
4.71
0.35
-4.64
-9.21
-12.42
-13.81
-13.34
-11.39
-7.88
-2.61
4.27
12.40
21.14
29.38
35.76
39.13
39.03
35.88
30.60
24.05
17.04
10.25
4.13
-1.04
-5.04
-7.79
-9.26
-9.72
-9.75
-9.83
-10.25
-11.06
-12.15
-13.38
-14.61
-15.66
-16.43
-16.94
-17.29
-17.66
-18.36
-19.65
-21.63
-24.10
-26.54
-28.31
-28.91
-28.15
-26.20
-23.50
-20.49
-17.47
-14.46
-11.32
-7.87
-4.07
0.03
4.25
8.43
12.41
15.96
18.84
20.74
21.48
21.11
19.88
18.19
16.37
14.59
12.85
11.11
9.35
7.69
6.30
5.30
4.66
4.21
3.71
2.98
2.03
1.05
0.31
-0.01
0.08
0.32
0.27
-0.49
-2.22
-4.89
-8.20
-11.71
-14.92
-17.48
-19.19
-20.02
-20.03
-19.26
-17.70
-15.28
-11.94
-7.78
-3.12
1.50
5.52
8.53
10.45
11.51
12.09
12.55
13.07
13.65
14.22
14.77
15.42
16.32
17.51
18.83
19.95
20.50
20.24
19.24
17.77
16.26
15.05
14.30
14.00
14.00
14.13
14.23
14.24
14.12
13.93
13.79
13.84
14.19
14.85
15.66
16.33
16.55
16.10
14.93
13.17
11.08
8.87
6.71
4.63
2.61
0.63
-1.26
-2.96
-4.37
-5.47
-6.37
-7.30
-8.56
-10.44
-13.06
-16.40
-20.26
-24.33
-28.26
-31.73
-34.39
-35.93
-36.08
-34.68
-31.80
-27.71
-22.87
-17.85
-13.13
-9.11
-6.06
-4.14
-3.41
-3.78
-4.92
-6.29
-7.25
-7.23
-6.02
-3.84
-1.28
0.89
2.09
2.13
1.29
0.15
-0.64
-0.66
0.18
1.64
3.32
4.79
5.73
5.95
5.37
4.03
2.12
-0.01
-1.88
-2.98
-2.97
-1.72
0.56
3.46
6.47
9.11
11.06
12.09
12.13
11.21
9.45
7.04
4.17
1.04
-2.17
-5.29
-8.10
-10.31
-11.67
-11.98
-11.29
-9.83
-7.97
-6.09
-4.50
-3.36
-2.76
-2.72
-3.24
-4.28
-5.64
-7.01
-7.97
-8.14
-7.29
-5.46
-2.97
-0.34
1.85
3.15
3.40
2.78
1.78
1.01
0.98
1.99
4.04
6.85
10.00
13.03
15.54
17.26
18.11
18.20
17.75
17.00
16.07
14.89
13.28
11.06
8.13
4.59
0.72
-3.13
-6.60
-9.48
-11.77
-13.72
-15.75
-18.22
-21.27
-24.61
-27.69
-29.85
-30.70
-30.30
-29.10
-27.70
-26.58
-25.89
-25.52
-25.22
-24.74
-23.88
-22.59
-20.83
-18.62
-15.97
-12.97
-9.75
-6.46
-3.30
-0.52
1.56
2.63
2.46
1.10
-1.05
-3.20
-4.49
-4.30
-2.62
0.01
2.73
4.84
6.18
7.15
8.37
10.36
13.23
16.69
20.31
23.69
26.53
28.51
29.33
28.70
26.58
23.31
19.50
15.80
12.61
10.00
7.86
6.06
4.57
3.37
2.24
0.80
-1.37
-4.44
-8.16
-11.84
-14.65
-15.82
-15.01
-12.29
-8.14
-3.27
1.52
5.51
8.14
9.18
8.74
7.22
5.16
3.12
1.52
0.63
0.58
1.41
3.08
5.53
8.72
12.63
17.13
21.90
26.33
29.68
31.28
30.89
28.85
25.94
23.10
20.97
19.67
18.88
18.04
16.74
14.88
12.57
9.95
7.05
3.91
0.73
-1.84
-2.88
-1.63
1.98
7.03
11.95
15.36
16.81
16.80
15.99
14.07
9.35
-0.50
-17.03
-39.65
-65.38
-89.82
-108.85
-119.98
-122.80
-118.33
-108.18
-93.95
-77.10
-59.20
-41.86
-26.44
-13.57
-3.09
5.62
13.12
19.52
24.65
28.43
31.04
32.91
34.51
36.04
37.36
38.16
38.29
37.94
37.62
37.76
38.50
39.52
40.18
39.91
38.47
36.15
33.54
31.26
29.66
28.68
27.98
27.13
25.83
23.98
21.67
19.11
16.53
14.09
11.92
10.07
8.45
6.90
5.18
3.10
0.56
-2.33
-5.37
-8.31
-10.92
-13.05
-14.62
-15.60
-15.99
-15.88
-15.42
-14.82
-14.30
-13.97
-13.85
-13.82
-13.77
-13.62
-13.36
-13.06
-12.75
-12.38
-11.86
-11.10
-10.07
-8.88
-7.71
-6.75
-6.07
-5.62
-5.30
-5.05
-4.94
-5.16
-5.91
-7.26
-9.03
-10.87
-12.45
-13.63
-14.55
-15.51
-16.72
-18.10
-19.24
-19.58
-18.72
-16.63
-13.74
-10.78
-8.45
-7.20
-7.08
-7.86
-9.19
-10.81
-12.55
-14.26
-15.67
-16.46
-16.36
-15.32
-13.61
-11.74
-10.14
-8.95
-7.89
-6.44
-4.17
-0.96
2.89
6.86
10.47
13.43
15.66
17.19
18.05
18.26
17.90
17.17
16.35
15.72
15.49
15.74
16.38
17.20
17.87
17.92
16.93
14.69
11.40
7.69
4.42
2.29
1.48
1.61
1.93
1.81
1.06
-0.01
-0.88
-1.15
-0.84
-0.23
0.28
0.44
0.22
-0.29
-1.00
-1.86
-2.81
-3.73
-4.42
-4.76
-4.89
-5.20
-6.24
-8.41
-11.81
-16.14
-20.84
-25.23
-28.71
-30.81
-31.34
-30.39
-28.37
-25.84
-23.34
-21.13
-19.12
-16.98
-14.40
-11.26
-7.71
-4.01
-0.38
3.08
6.36
9.34
11.84
13.60
14.56
14.91
15.03
15.37
16.19
17.49
19.02
20.43
21.41
21.78
21.55
20.87
20.05
19.39
19.14
19.38
19.98
20.65
21.08
21.04
20.46
19.47
18.35
17.41
16.92
17.05
17.82
19.15
20.82
22.54
23.93
24.58
24.13
22.35
19.29
15.30
10.91
6.71
3.03
-0.03
-2.58
-4.69
-6.28
-7.10
-6.93
-5.78
-3.98
-2.13
-0.80
-0.28
-0.45
-0.96
-1.42
-1.71
-1.97
-2.52
-3.70
-5.69
-8.51
-12.01
-15.87
-19.64
-22.73
-24.56
-24.67
-22.98
-19.83
-15.95
-12.24
-9.55
-8.36
-8.69
-10.06
-11.67
-12.59
-12.06
-9.76
-5.85
-0.89
4.37
9.24
13.30
16.40
18.61
19.99
20.49
19.90
17.91
14.26
8.95
2.32
-4.87
-11.66
-17.12
-20.69
-22.28
-22.25
-21.16
-19.46
-17.29
-14.50
-10.87
-6.35
-1.23
3.87
8.24
11.29
12.79
12.90
12.00
10.51
8.70
6.63
4.30
1.78
-0.65
-2.59
-3.66
-3.72
-2.97
-1.81
-0.71
-0.00
0.22
0.03
-0.45
-1.10
-1.82
-2.55
-3.18
-3.62
-3.82
-3.81
-3.71
-3.64
-3.66
-3.81
-4.07
-4.41
-4.83
-5.32
-5.89
-6.51
-7.15
-7.75
-8.25
-8.55
-8.60
-8.32
-7.70
-6.77
-5.59
-4.21
-2.70
-1.09
0.57
2.17
3.62
4.78
5.58
5.99
6.08
5.96
5.77
5.58
5.44
5.32
5.24
5.21
5.26
5.43
5.71
6.00
6.20
6.22
6.09
5.91
5.80
5.83
5.99
6.15
6.17
5.95
5.45
4.71
3.80
2.81
1.82
0.89
0.06
-0.66
-1.32
-1.98
-2.69
-3.43
-4.14
-4.75
-5.24
-5.65
-6.05
-6.43
-6.69
-6.66
-6.15
-5.10
-3.59
-1.84
-0.14
1.31
2.41
3.21
3.81
4.28
4.64
4.82
4.79
4.51
4.08
3.62
3.24
3.01
2.94
2.99
3.14
3.37
3.67
4.03
4.38
4.69
4.91
5.05
5.14
5.18
5.13
4.91
4.44
3.71
2.82
1.94
1.26
0.82
0.59
0.40
0.08
-0.40
-1.01
-1.55
-1.89
-1.96
-1.87
-1.83
-2.05
-2.67
-3.71
-5.04
-6.45
-7.74
-8.75
-9.34
-9.44
-9.02
-8.07
-6.65
-4.87
-2.90
-0.94
0.81
2.19
3.11
3.59
3.74
3.73
3.70
3.71
3.73
3.70
3.56
3.33
3.07
2.91
2.89
3.02
3.22
3.40
3.52
3.63
3.82
4.14
4.57
4.99
5.25
5.25
4.98
4.52
3.98
3.43
2.84
2.18
1.40
0.53
-0.32
-1.04
-1.53
-1.76
-1.79
-1.71
-1.62
-1.63
-1.83
-2.26
-2.93
-3.82
-4.88
-6.03
-7.13
-8.05
-8.64
-8.78
-8.44
-7.68
-6.64
-5.45
-4.21
-2.93
-1.63
-0.32
0.96
2.12
3.05
3.68
3.96
3.88
3.50
2.94
2.32
1.77
1.37
1.19
1.19
1.35
1.62
1.95
2.29
2.57
2.70
2.63
2.34
1.89
1.41
1.07
1.07
1.54
2.61
4.39
6.94
10.33
14.49
19.13
23.67
27.33
29.33
29.19
26.86
22.75
17.55
11.96
6.44
1.26
-3.49
-7.66
-11.02
-13.23
-14.08
-13.54
-11.90
-9.64
-7.32
-5.35
-3.94
-3.11
-2.73
-2.67
-2.81
-3.12
-3.56
-4.12
-4.72
-5.33
-5.95
-6.61
-7.39
-8.33
-9.42
-10.53
-11.52
-12.22
-12.54
-12.45
-12.02
-11.40
-10.76
-10.27
-10.03
-10.01
-10.11
-10.11
-9.86
-9.26
-8.42
-7.53
-6.81
-6.41
-6.37
-6.59
-6.91
-7.20
-7.36
-7.33
-7.06
-6.54
-5.87
-5.20
-4.76
-4.76
-5.30
-6.27
-7.36
-8.21
-8.49
-8.05
-6.94
-5.35
-3.53
-1.71
-0.07
1.31
2.39
3.17
3.74
4.24
4.80
5.49
6.25
6.94
7.39
7.50
7.29
6.90
6.50
6.23
6.09
6.05
6.06
6.09
6.14
6.23
6.34
6.44
6.49
6.45
6.33
6.11
5.80
5.42
5.03
4.66
4.34
4.05
3.74
3.34
2.81
2.17
1.49
0.84
0.24
-0.32
-0.91
-1.58
-2.32
-3.05
-3.69
-4.19
-4.60
-5.05
-5.67
-6.50
-7.44
-8.25
-8.64
-8.39
-7.45
-5.94
-4.09
-2.17
-0.42
1.07
2.27
3.22
3.99
4.65
5.20
5.63
5.88
5.87
5.58
5.03
4.32
3.58
2.99
2.65
2.62
2.87
3.31
3.82
4.25
4.49
4.49
4.25
3.84
3.37
2.91
2.52
2.25
2.12
2.15
2.34
2.55
2.59
2.22
1.28
-0.19
-1.98
-3.76
-5.30
-6.52
-7.56
-8.68
-10.11
-11.90
-13.94
-16.03
-17.97
-19.68
-21.24
-22.83
-24.61
-26.64
-28.85
-31.05
-33.04
-34.71
-36.15
-37.60
-39.30
-41.37
-43.67
-45.89
-47.69
-48.76
-48.83
-47.50
-44.15
-37.97
-28.24
-14.82
1.63
19.66
37.49
53.54
66.92
77.46
85.50
91.42
95.35
97.23
96.99
94.85
91.31
86.94
82.01
76.21
68.75
58.72
45.71
30.12
13.23
-3.22
-17.63
-29.04
-37.23
-42.61
-45.76
-47.22
-47.29
-46.21
-44.25
-41.86
-39.57
-37.93
-37.24
-37.56
-38.59
-39.78
-40.49
-40.16
-38.56
-35.77
-32.13
-28.04
-23.78
-19.48
-15.17
-10.98
-7.21
-4.26
-2.52
-2.13
-2.93
-4.43
-5.99
-6.95
-6.85
-5.52
-3.24
-0.67
1.33
2.15
1.80
1.12
1.50
4.27
10.06
18.40
27.90
36.86
43.98
48.82
51.72
53.40
54.41
54.90
54.69
53.59
51.69
49.45
47.51
46.40
46.19
46.52
46.70
46.02
44.06
40.92
37.23
33.93
31.90
31.57
32.69
34.36
35.41
34.89
32.47
28.55
24.01
19.75
16.32
13.92
12.53
12.11
12.65
13.88
15.07
15.03
12.53
7.00
-1.05
-10.05
-18.08
-23.74
-26.77
-28.03
-28.85
-30.30
-32.70
-35.69
-38.67
-41.26
-43.34
-44.96
-46.06
-46.35
-45.51
-43.39
-40.30
-36.88
-33.91
-31.97
-31.28
-31.56
-32.18
-32.34
-31.42
-29.21
-26.10
-22.98
-20.86
-20.44
-21.76
-24.12
-26.43
-27.65
-27.28
-25.49
-22.99
-20.69
-19.29
-19.06
-19.83
-21.10
-22.32
-23.03
-22.97
-22.01
-20.07
-17.05
-12.93
-7.91
-2.46
2.79
7.26
10.70
13.18
15.01
16.50
17.80
18.89
19.67
20.10
20.29
20.49
21.06
22.49
25.36
30.09
36.76
44.80
53.04
60.14
65.10
67.79
68.96
69.74
71.06
73.08
75.19
76.30
75.41
72.02
66.22
58.62
50.13
41.68
34.06
27.73
22.81
19.13
16.41
14.40
12.86
11.49
9.78
7.14
3.18
-1.96
-7.53
-12.48
-15.95
-17.62
-17.73
-16.80
-15.39
-14.03
-13.36
-14.31
-17.97
-25.18
-36.03
-49.55
-63.75
-76.05
-83.99
-85.90
-81.50
-72.12
-60.45
-49.67
-42.32
-39.28
-39.41
-40.21
-39.23
-35.38
-29.48
-23.72
-20.32
-20.24
-22.56
-25.04
-25.28
-21.98
-15.52
-7.64
-0.48
4.49
7.11
8.32
9.54
11.71
14.90
18.34
20.99
22.15
21.82
20.55
19.13
18.19
17.97
18.36
19.06
19.69
19.96
19.59
18.45
16.42
13.45
9.50
4.52
-1.44
-8.11
-14.90
-21.07
-25.94
-29.35
-31.67
-33.66
-35.93
-38.56
-40.92
-41.96
-40.69
-36.59
-29.78
-20.77
-10.23
1.26
13.12
24.59
34.67
42.18
46.14
46.27
43.22
38.48
33.82
30.61
29.21
28.98
28.74
27.54
25.29
22.76
21.10
21.11
22.70
24.90
26.43
26.38
24.63
21.83
18.84
16.27
14.19
12.25
10.05
7.31
3.96
-0.03
-4.87
-10.82
-17.93
-25.76
-33.42
-40.12
-45.56
-50.19
-54.69
-59.45
-64.09
-67.77
-69.77
-70.18
-69.83
-69.66
-69.96
-70.02
-68.49
-64.35
-57.58
-49.20
-40.72
-33.28
-27.21
-22.23
-17.81
-13.66
-9.81
-6.50
-3.88
-1.92
-0.43
0.82
1.89
2.72
3.13
2.94
2.12
0.84
-0.43
-1.20
-1.23
-0.64
0.01
0.08
-0.89
-3.12
-6.56
-10.96
-15.95
-21.04
-25.55
-28.68
-29.61
-27.90
-23.80
-18.12
-11.86
-5.91
-0.86
3.05
5.76
7.57
8.80
9.63
10.20
10.80
11.69
12.87
13.94
14.16
13.35
11.65
9.36
6.96
5.31
5.18
6.80
9.68
12.64
15.28
17.48
19.33
21.16
23.93
28.63
35.60
44.38
53.71
63.33
73.30
83.58
90.17
89.14
79.78
65.46
53.68
45.12
39.45
36.30
34.08
31.97
30.04
28.94
29.34
31.38
34.09
36.74
38.27
37.57
34.26
29.28
24.33
20.78
18.86
17.33
15.11
11.43
6.21
0.25
-5.00
-8.28
-9.19
-8.38
-7.19
-6.42
-6.33
-6.78
-7.42
-7.91
-8.16
-8.34
-8.77
-9.74
-11.11
-12.52
-13.71
-14.56
-15.19
-15.86
-16.85
-18.31
-20.21
-22.22
-23.92
-25.03
-25.45
-25.30
-24.80
-24.18
-23.56
-22.93
-22.18
-21.19
-19.88
-18.30
-16.64
-15.13
-14.01
-13.42
-13.38
-13.73
-14.25
-14.72
-15.02
-15.14
-15.15
-15.09
-14.92
-14.49
-13.71
-12.58
-11.28
-10.09
-9.23
-8.76
-8.50
-8.18
-7.58
-6.63
-5.48
-4.34
-3.40
-2.67
-2.09
-1.52
-0.92
-0.32
0.17
0.47
0.56
0.50
0.41
0.38
0.41
0.44
0.39
0.19
-0.17
-0.67
-1.24
-1.88
-2.61
-3.46
-4.41
-5.39
-6.29
-7.05
-7.68
-8.26
-8.81
-9.27
-9.45
-9.17
-8.34
-7.10
-5.75
-4.60
-3.86
-3.53
-3.43
-3.29
-2.87
-2.05
-0.78
0.92
3.01
5.40
7.90
10.18
11.91
12.78
12.78
12.13
11.26
10.61
10.43
10.74
11.35
12.01
12.56
12.95
13.21
13.36
13.36
13.14
12.69
12.09
11.50
11.05
10.71
10.33
9.63
8.34
6.38
3.91
1.28
-1.11
-2.95
-4.11
-4.68
-4.84
-4.75
-4.53
-4.18
-3.71
-3.15
-2.57
-2.03
-1.58
-1.23
-0.94
-0.65
-0.30
0.12
0.59
1.07
1.47
1.71
1.71
1.47
1.02
0.49
0.02
-0.30
-0.40
-0.34
-0.19
-0.01
0.20
0.46
0.82
1.23
1.55
1.62
1.29
0.55
-0.48
-1.59
-2.53
-3.14
-3.32
-3.14
-2.73
-2.32
-2.09
-2.16
-2.51
-2.97
-3.34
-3.47
-3.34
-3.05
-2.73
-2.54
-2.55
-2.82
-3.32
-4.03
-4.87
-5.72
-6.43
-6.89
-7.06
-7.02
-6.91
-6.93
-7.22
-7.77
-8.45
-9.03
-9.25
-8.99
-8.19
-6.94
-5.39
-3.66
-1.85
-0.00
1.79
3.43
4.78
5.71
6.18
6.26
6.09
5.85
5.68
5.67
5.86
6.28
6.96
7.91
9.11
10.47
11.82
12.98
13.80
14.17
14.11
13.71
13.07
12.33
11.59
10.85
10.10
9.31
8.49
7.79
7.42
7.61
8.46
9.85
11.47
12.93
13.94
14.42
14.52
14.47
14.52
14.74
15.08
15.35
15.37
14.96
13.98
12.36
10.12
7.35
4.24
1.00
-2.14
-5.02
-7.54
-9.60
-11.17
-12.18
-12.61
-12.53
-12.16
-11.80
-11.77
-12.31
-13.41
-14.88
-16.38
-17.54
-18.14
-18.10
-17.50
-16.48
-15.22
-13.86
-12.53
-11.35
-10.43
-9.81
-9.46
-9.29
-9.15
-8.95
-8.66
-8.30
-7.93
-7.57
-7.21
-6.86
-6.55
-6.34
-6.27
-6.35
-6.48
-6.56
-6.48
-6.19
-5.77
-5.42
-5.36
-5.80
-6.74
-8.02
-9.30
-10.20
-10.45
-9.99
-8.95
-7.53
-5.95
-4.31
-2.65
-0.98
0.64
2.13
3.39
4.33
4.93
5.22
5.29
5.22
5.11
5.03
5.04
5.10
5.17
5.18
5.14
5.07
5.05
5.13
5.30
5.50
5.67
5.77
5.82
5.85
5.86
5.78
5.52
5.05
4.40
3.70
3.06
2.54
2.11
1.65
1.08
0.41
-0.28
-0.88
-1.33
-1.66
-1.99
-2.44
-3.08
-3.89
-4.78
-5.66
-6.51
-7.29
-8.02
-8.65
-9.11
-9.35
-9.28
-8.85
-8.06
-6.87
-5.32
-3.48
-1.50
0.41
2.06
3.30
4.07
4.41
4.42
4.18
3.79
3.35
2.97
2.73
2.63
2.57
2.40
1.96
1.19
0.21
-0.78
-1.55
-1.95
-1.97
-1.71
-1.33
-0.94
-0.63
-0.42
-0.39
-0.59
-1.07
-1.76
-2.50
-3.03
-3.19
-2.99
-2.66
-2.54
-2.89
-3.73
-4.81
-5.68
-5.99
-5.62
-4.73
-3.69
-2.88
-2.52
-2.62
-3.03
-3.53
-3.95
-4.14
-4.01
-3.47
-2.41
-0.75
1.53
4.32
7.41
10.50
13.32
15.70
17.55
18.90
19.80
20.36
20.68
20.88
21.05
21.19
21.21
21.00
20.43
19.52
18.37
17.16
16.01
14.96
13.91
12.77
11.55
10.32
9.21
8.29
7.52
6.80
6.04
5.19
4.32
3.48
2.74
2.07
1.44
0.79
0.08
-0.72
-1.64
-2.68
-3.82
-5.01
-6.15
-7.15
-7.99
-8.72
-9.45
-10.33
-11.40
-12.64
-13.93
-15.06
-15.84
-16.14
-15.98
-15.44
-14.66
-13.74
-12.74
-11.63
-10.41
-9.06
-7.65
-6.24
-4.90
-3.67
-2.60
-1.78
-1.30
-1.29
-1.77
-2.64
-3.70
-4.70
-5.47
-5.94
-6.12
-6.07
-5.83
-5.39
-4.74
-3.95
-3.12
-2.40
-1.87
-1.52
-1.27
-1.05
-0.81
-0.56
-0.38
-0.35
-0.52
-0.94
-1.59
-2.42
-3.36
-4.30
-5.17
-5.94
-6.69
-7.53
-8.53
-9.72
-11.06
-12.52
-14.08
-15.82
-17.74
-19.75
-21.63
-23.13
-24.09
-24.59
-24.83
-25.01
-25.17
-25.17
-24.75
-23.78
-22.41
-21.07
-20.21
-20.06
-20.36
-20.39
-19.25
-16.19
-10.96
-3.92
4.13
12.28
19.90
26.93
33.84
41.40
50.33
60.96
73.02
85.56
97.03
105.30
108.06
103.28
90.03
69.01
42.72
14.88
-10.48
-30.13
-42.28
-46.82
-45.07
-39.17
-31.37
-23.38
-15.97
-9.01
-2.03
5.03
11.42
15.73
16.76
14.36
9.78
5.07
1.91
0.71
0.48
-0.32
-2.67
-6.28
-9.92
-12.26
-12.80
-12.06
-11.16
-11.07
-12.06
-13.63
-14.93
-15.30
-14.56
-12.98
-11.08
-9.24
-7.50
-5.60
-3.16
0.02
3.86
7.90
11.54
14.24
15.66
15.74
14.62
12.54
9.73
6.44
2.96
-0.35
-3.11
-4.99
-5.85
-5.77
-5.03
-4.02
-3.08
-2.41
-2.02
-1.79
-1.58
-1.35
-1.13
-1.02
-1.12
-1.44
-1.89
-2.42
-2.99
-3.70
-4.61
-5.76
-6.96
-7.93
-8.31
-7.88
-6.63
-4.75
-2.55
-0.33
1.68
3.35
4.65
5.60
6.25
6.67
6.95
7.17
7.40
7.67
7.95
8.20
8.37
8.43
8.37
8.18
7.85
7.39
6.86
6.34
5.93
5.75
5.85
6.19
6.70
7.28
7.84
8.34
8.74
8.99
9.02
8.78
8.22
7.34
6.17
4.78
3.23
1.59
-0.06
-1.68
-3.25
-4.78
-6.33
-7.92
-9.50
-10.96
-12.09
-12.71
-12.67
-11.90
-10.47
-8.50
-6.20
-3.80
-1.60
0.11
1.13
1.44
1.26
1.00
1.14
2.05
3.77
6.06
8.42
10.31
11.34
11.33
10.39
8.79
6.93
5.16
3.75
2.84
2.41
2.35
2.54
2.83
3.12
3.29
3.22
2.78
1.92
0.68
-0.77
-2.22
-3.50
-4.55
-5.48
-6.45
-7.55
-8.77
-9.90
-10.68
-10.86
-10.30
-9.01
-7.14
-4.90
-2.50
-0.05
2.39
4.80
7.14
9.31
11.16
12.59
13.57
14.23
14.78
15.38
16.09
16.81
17.34
17.54
17.46
17.38
17.70
18.72
20.51
22.77
25.04
26.87
28.06
28.74
29.23
29.86
30.82
32.06
33.45
34.85
36.24
37.68
39.21
40.73
42.06
43.01
43.55
43.82
44.12
44.75
45.89
47.54
49.54
51.53
53.11
53.83
53.29
51.13
47.04
40.92
32.88
23.25
12.44
0.90
-10.90
-22.48
-33.36
-43.08
-51.12
-57.05
-60.78
-62.70
-63.59
-64.27
-65.24
-66.45
-67.53
-67.73
