1721409893.00
64.000000
-0.00
-0.00
-0.00
-0.00
-0.00
-0.00
-0.00
-0.00
-0.00
-0.00
0.00
0.01
0.01
-0.00
-0.03
-0.05
-0.05
0.00
0.13
0.36
0.66
1.01
1.37
1.72
2.06
2.40
2.79
3.24
3.80
4.42
5.06
5.66
6.20
6.68
7.15
7.68
8.31
9.14
10.09
11.04
11.88
12.56
13.14
13.76
14.65
15.96
17.91
20.32
22.90
25.38
27.58
29.57
31.68
34.32
37.81
42.54
48.15
54.10
59.83
64.97
69.58
74.14
79.34
85.71
93.76
103.00
112.62
121.73
129.77
136.75
143.30
150.75
157.77
166.64
177.95
191.79
206.97
220.57
228.25
225.36
208.53
176.87
132.76
80.05
23.07
-34.94
-92.44
-149.16
-205.23
-260.37
-313.74
-363.87
-409.83
-450.91
-486.50
-515.74
-537.23
-549.22
-549.96
-538.37
-514.21
-478.67
-433.88
-382.45
-327.02
-269.84
-212.63
-156.66
-102.95
-52.37
-5.90
35.58
71.43
101.35
125.50
144.38
158.69
169.15
176.37
180.75
182.57
182.07
179.51
175.23
169.65
163.18
156.15
148.81
141.30
133.69
126.02
118.33
110.69
103.16
95.80
88.68
81.83
75.25
68.95
62.95
57.25
51.86
46.78
42.03
37.59
33.45
29.61
26.07
22.81
19.83
17.11
14.67
12.48
10.54
8.83
7.35
6.07
4.97
4.05
3.27
2.62
2.09
1.65
1.30
1.01
0.79
0.61
0.47
0.37
0.29
0.23
0.19
0.17
0.15
0.15
0.16
0.18
0.21
0.23
0.27
0.31
0.35
0.40
0.44
0.49
0.54
0.59
0.64
0.70
0.76
0.82
0.89
0.97
1.05
1.15
1.25
1.37
1.50
1.64
1.81
1.99
2.19
2.43
2.68
2.97
3.28
3.63
4.01
4.43
4.88
5.37
5.90
6.47
7.08
7.73
8.42
9.16
9.95
10.78
11.66
12.59
13.56
14.59
15.69
16.86
18.09
19.39
20.73
22.08
23.38
24.55
25.50
26.11
26.25
25.81
24.72
22.91
20.41
17.26
13.54
9.45
5.15
0.86
-3.23
-6.90
-10.02
-12.46
-14.16
-15.11
-15.33
-14.91
-13.95
-12.54
-10.79
-8.79
-6.59
-4.23
-1.75
0.85
3.50
6.13
8.68
11.09
13.30
15.26
16.95
18.38
19.64
20.67
21.47
22.13
22.79
23.61
24.77
26.46
28.89
32.26
36.34
40.97
46.01
51.31
56.75
62.32
68.07
74.17
80.87
87.84
94.86
101.81
108.56
115.02
121.14
126.95
132.53
138.09
143.00
146.84
149.26
149.93
148.52
144.58
137.33
125.26
112.33
99.69
87.94
77.21
67.47
58.58
50.53
43.45
37.62
33.38
30.05
26.94
23.37
18.76
12.85
5.85
-1.62
-8.70
-14.68
-19.92
-25.19
-31.52
-39.83
-50.65
-63.71
-78.17
-92.88
-106.95
-120.48
-134.11
-148.86
-165.72
-185.44
-208.45
-234.74
-263.46
-292.64
-319.25
-339.55
-350.22
-349.73
-339.06
-321.30
-300.21
-278.55
-257.21
-235.59
-212.91
-189.16
-165.36
-142.75
-121.54
-100.33
-76.52
-47.77
-13.50
24.01
60.15
89.24
106.20
107.57
92.53
63.04
23.69
-18.92
-57.92
-87.57
-104.83
-110.26
-108.25
-104.55
-103.85
-107.92
-115.09
-122.58
-127.56
-128.32
-124.68
-119.01
-113.89
-110.95
-110.46
-111.10
-112.82
-115.63
-119.31
-123.21
-128.64
-136.69
-147.74
-161.19
-174.90
-189.25
-204.98
-221.74
-236.97
-249.21
-255.92
-254.68
-244.69
-226.96
-208.81
-198.60
-201.12
-197.16
-170.72
-114.49
-34.70
44.63
120.03
190.60
256.53
316.23
367.53
406.83
432.43
445.04
448.03
447.90
448.51
452.82
462.59
477.91
494.06
504.56
503.52
488.48
462.70
430.76
398.50
370.97
350.80
335.92
322.19
305.77
285.17
262.20
238.52
215.55
193.96
173.80
154.01
133.68
112.50
91.14
71.15
53.29
37.76
24.08
11.38
-1.41
-14.76
-28.13
-40.05
-48.66
-52.99
-53.10
-49.82
-43.98
-35.72
-24.28
-8.57
11.93
36.13
61.07
82.49
95.96
98.38
88.69
67.84
38.11
2.20
-37.09
-76.93
-114.05
-144.91
-166.38
-177.01
-177.89
-172.40
-165.06
-159.68
-158.13
-160.15
-164.18
-168.44
-171.84
-174.02
-174.97
-174.65
-172.80
-169.15
-163.69
-156.86
-149.35
-141.99
-135.45
-130.16
-126.45
-124.70
-125.36
-128.83
-135.18
-143.95
-153.97
-163.79
-172.03
-177.97
-181.77
-184.26
-186.45
-188.79
-190.60
-189.85
-183.73
-169.71
-146.66
-115.69
-80.03
-44.17
-12.59
11.44
26.67
34.08
36.35
37.07
39.50
45.61
55.51
67.67
79.79
89.88
97.08
101.64
104.26
105.20
104.13
100.59
94.79
87.90
81.75
77.74
75.87
74.72
72.00
66.16
57.32
47.35
39.07
34.71
34.96
38.87
44.59
50.43
55.47
59.66
63.28
66.50
69.21
71.27
72.71
73.80
74.58
74.73
73.35
69.65
63.55
55.92
48.18
41.62
36.71
32.94
29.24
24.72
19.05
12.58
6.04
-0.06
-5.48
-10.18
-13.98
-16.34
-16.52
-13.96
-8.84
-2.19
4.14
8.22
8.74
5.43
-0.83
-8.47
-15.79
-21.37
-24.29
-24.03
-20.44
-13.79
-4.91
4.91
14.09
21.17
25.38
26.95
27.04
27.28
28.98
32.53
37.39
42.48
47.03
51.05
55.26
60.44
66.80
73.59
79.43
82.95
83.36
80.64
75.39
68.54
61.08
53.98
48.10
43.86
40.97
38.28
34.12
26.92
15.96
1.73
-14.24
-30.09
-44.28
-56.00
-65.14
-72.01
-77.02
-80.54
-82.77
-83.84
-83.92
-83.34
-82.62
-82.48
-83.59
-86.29
-90.33
-94.73
-97.93
-98.42
-95.29
-88.73
-79.95
-70.72
-62.35
-55.27
-48.87
-42.09
-34.20
-25.36
-16.52
-8.89
-3.22
0.58
3.27
5.64
7.86
9.33
9.19
7.17
4.10
1.80
2.22
6.24
13.01
20.04
24.37
23.98
18.79
10.58
2.09
-4.30
-7.36
-7.14
-4.16
1.30
9.54
20.89
35.03
50.46
64.90
76.04
82.72
85.17
84.63
82.23
78.17
71.48
60.86
45.51
25.94
3.97
-18.00
-37.78
-53.94
-65.86
-73.44
-76.81
-76.28
-72.52
-66.66
-60.17
-54.52
-50.73
-49.18
-49.54
-51.16
-53.31
-55.37
-56.95
-57.73
-57.45
-55.75
-52.38
-47.32
-40.95
-33.99
-27.44
-22.35
-19.64
-19.87
-23.10
-28.78
-35.76
-42.34
-46.78
-47.76
-45.05
-39.84
-34.46
-31.56
-32.82
-38.09
-45.19
-50.85
-52.19
-48.17
-40.20
-31.52
-25.71
-25.01
-29.56
-37.60
-46.76
-55.29
-62.70
-69.52
-76.52
-83.74
-90.34
-94.95
-96.42
-94.44
-89.66
-83.34
-76.87
-71.33
-67.35
-65.13
-64.49
-64.87
-65.46
-65.19
-62.85
-57.29
-47.64
-33.71
-16.10
3.75
23.97
42.87
59.41
73.42
85.29
95.40
103.65
109.52
112.43
112.47
110.67
108.74
108.42
110.64
115.25
121.26
127.30
132.06
134.56
134.14
130.52
123.87
114.95
105.04
95.66
88.01
82.61
79.17
76.87
74.96
73.03
71.16
69.66
68.80
68.60
68.84
69.16
69.12
68.36
66.47
63.07
57.85
50.65
41.69
31.74
22.01
13.96
8.81
7.19
8.87
12.86
17.86
22.79
27.06
30.70
34.15
37.78
41.63
45.26
47.91
48.61
46.57
41.28
32.77
21.50
8.29
-5.88
-19.99
-33.12
-44.55
-53.71
-60.32
-64.44
-66.52
-67.36
-67.92
-69.07
-71.27
-74.51
-78.40
-82.37
-85.90
-88.55
-89.97
-89.80
-87.66
-83.30
-76.71
-68.35
-58.88
-49.20
-40.05
-31.96
-25.21
-20.05
-16.64
-15.05
-15.15
-16.40
-18.01
-19.15
-19.23
-18.13
-16.16
-13.78
-11.42
-9.24
-7.17
-5.13
-3.11
-1.33
-0.18
-0.09
-1.42
-4.31
-8.73
-14.26
-20.16
-25.47
-29.15
-30.44
-29.02
-25.15
-19.47
-12.81
-5.87
0.84
7.01
12.43
16.92
20.24
22.28
23.11
23.02
22.47
21.89
21.58
21.48
21.31
20.68
19.28
17.06
14.23
11.12
8.12
5.41
3.08
1.08
-0.68
-2.25
-3.73
-5.24
-6.85
-8.48
-9.87
-10.52
-9.80
-7.25
-2.72
3.52
10.79
18.21
24.81
29.80
32.68
33.31
31.92
28.96
24.96
20.44
15.87
11.64
8.08
5.50
4.02
3.54
3.76
4.24
4.64
4.79
4.71
4.52
4.26
3.86
3.10
1.80
-0.17
-2.86
-6.16
-9.82
-13.43
-16.35
-17.93
-17.59
-15.14
-10.78
-5.07
1.22
7.38
12.88
17.38
20.75
22.87
23.73
23.38
22.01
19.97
17.70
15.61
13.97
12.82
11.95
11.15
10.16
8.88
7.27
5.39
3.23
0.77
-1.96
-4.84
-7.64
-10.12
-12.21
-14.00
-15.75
-17.62
-19.51
-20.96
-21.32
-19.96
-16.58
-11.39
-5.00
1.73
8.00
13.16
16.93
19.27
20.28
20.21
19.29
17.82
15.98
13.96
11.89
9.91
8.06
6.36
4.75
3.03
1.04
-1.31
-3.96
-6.62
-8.92
-10.59
-11.53
-11.93
-12.16
-12.62
-13.59
-15.19
-17.34
-19.83
-22.39
-24.72
-26.45
-27.24
-26.83
-25.17
-22.49
-19.15
-15.64
-12.34
-9.60
-7.72
-7.10
-8.10
-10.95
-15.55
-21.39
-27.73
-33.70
-38.68
-42.34
-44.75
-46.31
-47.73
-49.89
-53.53
-58.83
-65.08
-70.71
-73.63
-72.16
-65.78
-55.46
-43.32
-31.68
-22.12
-15.08
-10.02
-5.97
-2.04
2.44
8.06
15.45
25.06
36.90
50.35
64.24
77.33
88.81
98.51
106.89
114.65
122.29
129.81
136.67
141.88
144.39
143.35
138.53
130.51
120.57
110.30
100.96
93.16
86.84
81.46
76.44
71.12
64.77
56.67
46.48
34.80
23.33
14.48
10.35
11.65
17.30
24.89
31.65
35.51
35.66
32.24
25.89
17.38
7.28
-3.73
-14.87
-25.19
-33.77
-39.83
-42.78
-42.23
-38.04
-30.53
-20.71
-10.37
-1.81
2.74
1.94
-4.15
-13.95
-24.79
-33.71
-38.44
-37.94
-32.60
-23.77
-13.03
-1.76
9.15
19.02
26.91
31.67
32.17
27.94
19.73
9.54
0.07
-6.18
-7.80
-4.88
1.26
8.79
16.10
22.24
26.87
29.90
31.17
30.44
27.44
22.18
15.20
7.44
-0.02
-6.27
-10.91
-14.05
-16.26
-18.21
-20.47
-23.34
-26.82
-30.66
-34.48
-37.97
-40.87
-43.15
-44.98
-46.59
-48.26
-50.16
-52.27
-54.37
-56.13
-57.20
-57.23
-55.98
-53.24
-48.94
-43.20
-36.41
-29.19
-22.32
-16.48
-12.07
-9.11
-7.33
-6.31
-5.59
-4.87
-4.00
-2.99
-1.96
-1.15
-0.73
-0.79
-1.18
-1.57
-1.58
-0.95
0.31
1.93
3.39
4.17
3.82
2.13
-0.90
-5.03
-9.78
-14.47
-18.34
-20.69
-21.16
-19.81
-17.11
-13.72
-10.20
-6.81
-3.59
-0.49
2.39
4.72
5.99
5.79
4.05
1.12
-2.28
-5.35
-7.45
-8.31
-8.02
-6.94
-5.52
-4.12
-2.98
-2.17
-1.62
-1.26
-0.98
-0.79
-0.77
-1.07
-1.86
-3.30
-5.45
-8.14
-10.98
-13.35
-14.57
-14.12
-11.84
-8.03
-3.37
1.29
5.18
7.75
8.85
8.63
7.41
5.61
3.66
2.01
1.04
1.05
2.17
4.23
6.84
9.46
11.55
12.80
13.14
12.71
11.71
10.25
8.31
5.73
2.38
-1.75
-6.43
-11.29
-15.90
-19.87
-22.82
-24.48
-24.60
-23.04
-19.83
-15.32
-10.12
-4.95
-0.50
2.81
4.87
5.87
6.06
5.68
4.88
3.79
2.63
1.65
1.11
1.09
1.41
1.76
1.79
1.36
0.58
-0.23
-0.72
-0.68
-0.09
0.80
1.61
1.92
1.38
-0.25
-3.04
-6.84
-11.24
-15.65
-19.29
-21.44
-21.53
-19.33
-15.09
-9.46
-3.28
2.60
7.58
11.47
14.33
16.38
17.73
18.39
18.27
17.33
15.69
13.68
11.71
10.15
9.15
8.66
8.49
8.40
8.27
8.08
7.94
7.93
8.08
8.36
8.65
8.75
8.45
7.51
5.75
3.09
-0.44
-4.54
-8.71
-12.18
-14.22
-14.24
-12.12
-8.26
-3.41
1.55
6.01
9.70
12.68
15.12
17.07
18.46
19.01
18.58
17.24
15.26
13.06
10.94
8.92
6.67
3.76
-0.07
-4.69
-9.57
-13.93
-17.15
-19.03
-19.82
-20.11
-20.42
-21.19
-22.55
-24.56
-27.22
-30.44
-33.87
-36.84
-38.51
-38.07
-35.15
-29.92
-23.03
-15.32
-7.46
0.18
7.50
14.56
21.34
27.64
33.08
37.26
39.98
41.28
41.53
41.28
40.97
40.82
40.67
40.25
39.27
37.62
35.42
32.92
30.37
27.85
25.28
22.52
19.38
15.74
11.45
6.39
0.53
-5.88
-12.28
-17.83
-21.65
-23.14
-22.15
-19.05
-14.58
-9.54
-4.56
-0.07
3.70
6.60
8.45
9.09
8.49
6.88
4.67
2.44
0.68
-0.32
-0.65
-0.63
-0.67
-1.06
-1.86
-2.92
-4.00
-4.98
-5.86
-6.77
-7.84
-9.15
-10.65
-12.26
-13.94
-15.76
-17.88
-20.38
-23.16
-25.79
-27.56
-27.70
-25.61
-21.09
-14.51
-6.66
1.38
8.59
14.15
17.65
19.02
18.54
16.70
14.11
11.33
8.85
6.99
5.81
5.21
4.94
4.73
4.43
3.95
3.27
2.46
1.60
0.79
0.12
-0.43
-0.98
-1.82
-3.28
-5.56
-8.64
-12.16
-15.65
-18.57
-20.53
-21.27
-20.73
-19.00
-16.24
-12.82
-9.13
-5.56
-2.36
0.45
3.02
5.49
7.88
9.97
11.40
11.84
11.21
9.71
7.84
6.16
5.16
4.98
5.41
5.94
6.03
5.30
3.80
1.97
0.42
-0.34
-0.18
0.60
1.37
1.49
0.51
-1.68
-4.88
-8.65
-12.38
-15.41
-17.16
-17.24
-15.61
-12.46
-8.16
-3.15
2.22
7.56
12.49
16.55
19.26
20.34
19.84
18.24
16.37
15.20
15.54
17.87
22.15
27.95
34.54
41.09
46.83
51.16
53.65
53.96
51.91
47.48
40.97
32.97
24.35
15.93
8.31
1.74
-3.87
-8.69
-12.77
-15.98
-18.08
-18.83
-18.23
-16.38
-13.48
-9.72
-5.32
-0.65
3.70
6.93
8.35
7.59
4.86
0.87
-3.44
-7.23
-10.10
-12.08
-13.60
-15.14
-17.00
-19.26
-21.74
-24.23
-26.61
-28.94
-31.36
-34.06
-37.03
-40.16
-43.25
-46.10
-48.57
-50.43
-51.35
-50.79
-48.24
-43.43
-36.51
-28.19
-19.51
-11.53
-5.02
-0.27
2.85
4.69
5.62
5.95
5.86
5.64
5.50
5.66
6.21
6.94
7.46
7.34
6.28
4.31
1.85
-0.55
-2.39
-3.44
-3.86
-4.07
-4.51
-5.54
-7.31
-9.82
-12.91
-16.27
-19.38
-21.58
-22.18
-20.69
-17.05
-11.72
-5.51
0.70
6.28
10.92
14.55
17.21
18.92
19.66
19.55
18.79
17.74
16.78
16.13
15.78
15.52
15.06
14.13
12.65
10.70
8.45
6.00
3.39
0.56
-2.54
-5.91
-9.48
-13.13
-16.76
-20.36
-23.88
-27.13
-29.74
-31.14
-30.83
-28.55
-24.42
-18.92
-12.69
-6.29
-0.10
5.61
10.60
14.53
17.03
17.86
17.07
15.16
12.89
11.05
10.14
10.18
10.75
11.23
11.02
9.79
7.62
4.80
1.76
-1.18
-3.85
-6.29
-8.71
-11.31
-14.24
-17.46
-20.75
-23.66
-25.67
-26.21
-24.92
-21.78
-17.06
-11.27
-5.05
1.09
6.75
11.68
15.62
18.28
19.35
18.71
16.54
13.37
10.05
7.36
5.82
5.47
6.00
6.93
7.87
8.64
9.24
9.74
10.14
10.32
10.09
9.26
7.72
5.42
2.28
-1.62
-6.08
-10.61
-14.53
-17.07
-17.71
-16.21
-12.78
-7.90
-2.20
3.74
9.45
14.75
19.88
25.36
31.97
40.32
50.54
62.00
73.47
83.45
90.66
94.35
94.41
91.19
85.28
77.33
67.99
57.92
47.74
37.96
28.84
20.30
11.92
3.19
-6.33
-16.72
-27.58
-38.00
-46.78
-52.80
-55.39
-54.55
-51.00
-45.86
-40.32
-35.31
-31.29
-28.39
-26.48
-25.38
-24.98
-25.16
-25.80
-26.59
-27.17
-27.21
-26.54
-25.16
-23.26
-21.03
-18.62
-16.14
-13.63
-11.25
-9.21
-7.76
-7.07
-7.15
-7.82
-8.83
-10.00
-11.27
-12.65
-14.10
-15.35
-15.86
-14.96
-12.06
-6.98
-0.08
7.73
15.25
21.36
25.47
27.60
28.42
28.85
29.80
31.84
35.36
40.84
49.08
60.82
76.02
93.37
110.49
124.99
135.57
142.64
147.55
151.49
154.32
154.56
150.64
142.50
132.22
123.30
118.63
118.55
120.20
118.71
109.39
90.00
61.50
27.55
-6.91
-37.31
-60.62
-75.76
-83.34
-85.09
-83.10
-79.30
-75.15
-71.63
-69.24
-68.17
-68.22
-68.78
-69.00
-67.93
-65.01
-60.38
-54.91
-49.90
-46.48
-45.17
-45.69
-47.20
-48.77
-49.67
-49.56
-48.41
-46.32
-43.46
-39.98
-36.00
-31.69
-27.09
-22.04
-16.36
-9.98
-3.14
3.66
9.88
15.09
19.08
21.95
23.90
25.00
25.09
23.69
20.35
14.89
7.65
-0.81
-9.63
-17.84
-24.72
-29.94
-33.71
-36.48
-38.78
-41.05
-44.17
-48.57
-54.11
-60.39
-67.02
-74.00
-81.28
-88.52
-94.79
-99.92
-103.06
-102.84
-98.10
-88.73
-76.05
-61.94
-48.20
-36.14
-28.30
-25.80
-27.80
-32.13
-36.65
-40.70
-44.72
-50.39
-59.67
-75.81
-98.86
-124.82
-147.27
-160.67
-163.26
-156.52
-144.58
-113.98
-58.96
15.51
95.36
166.80
222.51
259.92
278.08
279.17
264.40
232.84
185.60
125.72
56.08
-18.00
-94.49
-162.08
-210.87
-236.54
-244.54
-243.99
-241.24
-236.51
-224.92
-200.70
-160.19
-105.80
-45.68
8.51
47.59
68.39
74.08
71.49
66.98
64.49
63.84
62.86
59.34
53.50
47.62
44.47
45.48
49.99
56.13
61.14
62.99
60.98
56.06
50.02
44.66
41.04
39.30
38.90
39.23
39.72
40.06
40.15
39.95
39.34
38.29
36.93
35.68
35.05
35.40
36.69
38.46
40.09
41.24
42.05
43.32
46.05
51.05
58.74
69.17
81.90
95.87
108.91
117.49
117.34
105.20
81.13
49.84
19.71
-0.24
-4.14
8.11
30.82
55.32
73.14
78.78
71.72
55.37
34.65
13.60
-5.50
-21.26
-32.27
-37.02
-34.84
-27.17
-18.30
-14.22
-20.08
-37.81
-65.08
-96.36
-125.32
-147.38
-160.90
-167.10
-168.77
-168.45
-167.24
-164.50
-158.64
-148.30
-133.55
-116.22
-99.52
-86.57
-78.95
-75.86
-74.22
-70.08
-60.48
-44.88
-25.37
-5.47
11.68
24.92
35.43
45.80
58.33
74.00
91.57
108.01
120.13
126.48
128.02
127.15
126.11
125.83
125.58
123.70
118.78
110.66
100.42
90.29
82.51
78.43
78.05
79.97
82.07
82.42
80.06
75.16
69.21
64.12
60.99
59.73
58.96
56.50
50.30
39.03
22.11
-0.71
-28.67
-59.76
-90.28
-115.16
-129.18
-129.20
-114.03
-89.63
-63.95
-43.87
-32.69
-29.57
-30.96
-33.14
-34.07
-33.93
-34.22
-35.57
-37.35
-38.13
-36.83
-33.48
-29.26
-25.79
-24.53
-26.03
-29.49
-33.37
-36.19
-37.20
-36.63
-35.46
-34.91
-35.96
-38.95
-43.38
-48.21
-52.46
-55.57
-57.54
-58.75
-59.67
-60.57
-61.40
-61.64
-60.80
-58.10
-53.28
-46.46
-38.12
-29.02
-19.66
-10.52
-1.87
6.13
13.37
19.72
25.02
29.16
32.09
33.91
34.77
34.99
34.88
34.73
34.79
35.23
36.17
37.70
39.84
42.65
46.07
49.97
54.06
57.89
60.86
62.36
61.87
59.10
54.17
47.53
39.78
31.57
23.35
15.35
7.54
-0.14
-7.70
-14.71
-20.55
-24.64
-26.61
-26.61
-25.27
-23.59
-22.57
-22.82
-23.97
-25.07
-24.94
-22.63
-17.87
-11.26
-4.12
1.98
5.81
7.54
8.43
10.77
17.33
30.39
50.63
76.64
104.99
127.76
138.44
133.01
111.42
78.00
40.39
7.20
-14.51
-21.30
-14.12
3.02
24.35
44.36
59.40
68.28
72.02
73.18
74.57
77.87
83.09
88.03
89.05
82.61
66.73
41.88
11.03
-21.32
-50.91
-74.58
-90.81
-99.11
-98.85
-89.54
-71.98
-48.36
-22.02
3.24
24.35
39.60
48.97
53.87
56.61
58.92
62.12
66.56
71.27
74.26
73.34
66.96
54.88
38.30
19.13
-1.15
-21.28
-41.12
-61.62
-84.25
-110.27
-140.37
-171.14
-201.49
-229.47
-251.28
-261.76
-256.11
-232.33
-192.91
-144.86
-97.35
-58.86
-33.19
-18.67
-9.87
-0.41
14.23
34.99
58.87
81.42
97.00
101.38
93.12
73.89
47.90
20.49
-3.86
-22.40
-34.14
-39.54
-39.23
-33.85
-24.69
-14.05
-5.02
-0.41
-1.39
-6.77
-13.65
-18.50
-18.82
-14.23
-6.52
1.32
6.47
7.47
4.73
-0.18
-4.96
-7.59
-7.18
-4.17
-0.05
3.27
4.11
1.52
-4.53
-13.10
-22.56
-31.15
-37.49
-41.03
-42.04
-41.26
-39.39
-36.70
-32.95
-27.78
-21.13
-13.32
-4.80
4.16
13.55
23.38
33.26
42.31
49.45
54.02
56.25
57.34
58.75
61.47
65.50
69.93
73.59
75.64
75.95
74.90
72.95
70.24
66.55
61.50
54.89
46.91
38.16
29.42
21.37
14.41
8.61
3.83
-0.04
-2.98
-4.81
-5.34
-4.57
-2.80
-0.67
1.04
1.62
0.66
-1.77
-5.16
-8.72
-11.65
-13.46
-14.16
-14.19
-14.28
-15.09
-16.95
-19.72
-22.86
-25.73
-27.82
-29.03
-29.68
-30.41
-31.89
-34.47
-38.06
-42.09
-45.77
-48.38
-49.51
-49.17
-47.68
-45.52
-43.17
-41.03
-39.44
-38.74
-39.22
-40.99
-43.83
-47.09
-49.81
-50.91
-49.60
-45.72
-39.98
-33.67
-28.22
-24.45
-22.13
-20.01
-16.43
-10.16
-0.91
10.59
23.13
35.67
47.67
58.96
69.36
78.29
84.82
88.27
88.69
87.18
85.45
85.16
87.16
91.27
96.51
101.60
105.36
106.87
105.40
100.39
91.71
79.99
66.72
54.05
44.10
38.27
36.70
38.39
41.55
44.30
45.11
43.30
39.14
33.83
29.05
26.18
25.58
26.39
26.82
25.15
20.73
14.41
8.04
3.52
1.63
1.68
1.87
0.26
-4.33
-11.86
-21.36
-31.43
-40.90
-49.15
-56.08
-61.88
-66.65
-70.30
-72.51
-72.99
-71.71
-68.97
-65.39
-61.69
-58.43
-55.89
-54.05
-52.66
-51.50
-50.46
-49.65
-49.32
-49.70
-50.77
-52.20
-53.34
-53.42
-51.88
-48.67
-44.40
-40.14
-37.05
-35.95
-36.92
-39.30
-41.90
-43.37
-42.69
-39.29
-33.14
-24.53
-13.96
-2.05
10.37
22.31
32.65
40.43
45.17
47.01
46.67
45.17
43.47
42.32
42.09
42.92
44.72
47.18
49.76
51.75
52.48
51.62
49.31
46.08
42.55
39.12
35.79
32.37
28.65
24.72
20.90
17.48
14.48
11.62
8.42
4.60
0.24
-4.17
-7.98
-10.71
-12.24
-12.82
-12.97
-13.18
-13.80
-14.90
-16.33
-17.86
-19.26
-20.48
-21.62
-22.97
-24.86
-27.49
-30.80
-34.37
-37.50
-39.41
-39.45
-37.32
-33.18
-27.50
-20.95
-14.12
-7.47
-1.29
4.26
8.99
12.69
15.16
16.32
16.30
15.43
14.19
13.04
12.26
11.87
11.64
11.21
10.31
8.85
6.98
4.99
3.18
1.74
0.65
-0.27
-1.28
-2.68
-4.67
-7.28
-10.27
-13.16
-15.36
-16.31
-15.67
-13.45
-10.04
-5.96
-1.79
2.04
5.30
7.83
9.56
10.44
10.51
9.95
9.04
8.13
7.57
7.53
7.97
8.69
9.41
9.88
9.99
9.80
9.47
9.18
9.02
8.93
8.73
8.13
6.90
4.88
2.07
-1.32
-4.94
-8.26
-10.72
-11.87
-11.53
-9.84
-7.22
-4.25
-1.38
1.12
3.20
4.93
6.35
7.41
8.06
8.28
8.19
7.95
7.73
7.57
7.40
7.10
6.60
5.93
5.22
4.64
4.37
4.51
5.03
5.76
6.40
6.61
6.11
4.79
2.67
-0.06
-3.17
-6.42
-9.52
-12.14
-13.92
-14.50
-13.72
-11.62
-8.47
-4.67
-0.73
2.89
5.85
7.88
8.92
9.09
8.69
8.10
7.67
7.59
7.89
8.47
9.19
9.94
10.66
11.29
11.81
12.18
12.37
12.33
12.03
11.44
10.53
9.35
7.92
6.28
4.46
2.41
0.07
-2.55
-5.30
-7.85
-9.81
-10.84
-10.79
-9.69
-7.74
-5.18
-2.25
0.87
4.00
6.90
9.35
11.12
12.07
12.12
11.34
9.90
8.03
5.97
3.96
2.16
0.68
-0.46
-1.29
-1.89
-2.40
-2.96
-3.71
-4.69
-5.86
-7.07
-8.16
-9.03
-9.69
-10.35
-11.25
-12.67
-14.73
-17.35
-20.21
-22.83
-24.71
-25.50
-25.01
-23.31
-20.57
-17.06
-13.10
-8.99
-5.03
-1.50
1.35
3.39
4.60
5.07
5.03
4.73
4.42
4.31
4.48
4.92
5.50
6.07
6.55
6.90
7.12
7.22
7.16
6.88
6.36
5.61
4.69
3.63
2.41
0.90
-0.99
-3.30
-5.87
-8.38
-10.41
-11.56
-11.61
-10.56
-8.58
-5.95
-2.93
0.22
3.28
5.98
8.07
9.33
9.63
9.09
7.96
6.67
5.55
4.81
4.44
4.27
4.15
3.96
3.78
3.72
3.87
4.22
4.64
4.98
5.13
5.06
4.76
4.22
3.37
2.17
0.70
-0.80
-1.99
-2.58
-2.38
-1.44
0.12
2.17
4.65
7.55
10.82
14.24
17.42
19.89
21.24
21.30
20.20
18.28
15.97
13.62
11.46
9.58
7.95
6.50
5.16
3.80
2.33
0.68
-1.14
-3.03
-4.81
-6.35
-7.64
-8.78
-10.00
-11.55
-13.63
-16.29
-19.38
-22.57
-25.43
-27.55
-28.57
-28.37
-26.96
-24.53
-21.33
-17.67
-13.88
-10.27
-7.13
-4.58
-2.66
-1.25
-0.19
0.64
1.26
1.60
1.62
1.35
0.94
0.60
0.48
0.64
1.00
1.40
1.71
1.80
1.63
1.17
0.46
-0.43
-1.43
-2.49
-3.63
-4.96
-6.59
-8.50
-10.49
-12.19
-13.16
-13.09
-11.88
-9.70
-6.83
-3.56
-0.14
3.22
6.34
9.01
11.05
12.29
12.72
12.45
11.68
10.71
9.83
9.22
8.94
8.87
8.80
8.50
7.86
6.90
5.73
4.44
3.10
1.67
0.08
-1.69
-3.65
-5.79
-8.19
-10.93
-14.02
-17.27
-20.28
-22.54
-23.62
-23.31
-21.71
-19.09
-15.79
-12.12
-8.30
-4.55
-1.09
1.91
4.32
6.17
7.57
8.64
9.45
10.01
10.30
10.37
10.30
10.21
10.19
10.28
10.45
10.60
10.61
10.36
9.71
8.62
7.12
5.34
3.46
1.62
-0.20
-2.09
-4.16
-6.40
-8.62
-10.42
-11.45
-11.48
-10.54
-8.79
-6.50
-3.79
-0.70
2.76
6.46
10.08
13.15
15.21
16.06
15.78
14.79
13.59
12.58
11.92
11.51
11.16
10.69
10.12
9.54
9.10
8.83
8.56
8.02
6.96
5.29
3.12
0.72
-1.66
-3.91
-6.10
-8.30
-10.52
-12.60
-14.20
-14.99
-14.75
-13.51
-11.45
-8.83
-5.87
-2.70
0.55
3.70
6.54
8.85
10.49
11.42
11.72
11.47
10.76
9.71
8.44
7.12
5.90
4.93
4.21
3.71
3.36
3.11
2.92
2.74
2.44
1.85
0.74
-0.99
-3.28
-5.93
-8.61
-11.00
-12.92
-14.31
-15.18
-15.57
-15.43
-14.65
-13.13
-10.91
-8.07
-4.87
-1.58
1.52
4.18
6.23
7.60
8.30
8.48
8.35
8.10
7.83
7.52
7.07
6.45
5.69
4.92
4.25
3.72
3.25
2.72
2.09
1.38
0.62
-0.19
-1.21
-2.62
-4.56
-7.00
-9.71
-12.37
-14.62
-16.24
-17.11
-17.21
-16.56
-15.21
-13.24
-10.81
-8.09
-5.29
-2.58
-0.11
2.00
3.59
4.53
4.70
4.15
3.04
1.68
0.43
-0.38
-0.62
-0.34
0.25
0.82
1.11
0.99
0.54
-0.10
-0.74
-1.32
-1.91
-2.69
-3.84
-5.43
-7.38
-9.46
-11.43
-13.12
-14.43
-15.31
-15.68
-15.37
-14.20
-12.04
-8.92
-5.11
-1.02
2.90
6.26
8.86
10.63
11.58
11.76
11.21
10.07
8.55
7.00
5.71
4.92
4.63
4.69
4.80
4.70
4.25
3.48
2.53
1.56
0.69
-0.04
-0.68
-1.32
-2.08
-3.04
-4.22
-5.53
-6.82
-7.85
-8.41
-8.32
-7.49
-5.97
-3.85
-1.26
1.65
4.70
7.71
10.45
12.69
14.25
15.02
15.04
14.46
13.52
12.49
11.56
10.83
10.30
9.88
9.51
9.13
8.71
8.26
7.75
7.11
6.26
5.12
3.70
2.05
0.24
-1.73
-3.92
-6.39
-9.13
-11.93
-14.37
-15.99
-16.41
-15.55
-13.53
-10.71
-7.44
-3.97
-0.42
3.11
6.48
9.44
11.69
13.00
13.30
12.73
11.62
10.38
9.33
8.63
8.20
7.85
7.36
6.60
5.57
4.36
3.09
1.82
0.54
-0.84
-2.34
-3.98
-5.69
-7.43
-9.16
-10.90
-12.69
-14.51
-16.21
-17.46
-17.88
-17.15
-15.22
-12.37
-9.05
-5.78
-2.82
-0.21
2.21
4.57
6.83
8.80
10.23
11.04
11.27
11.13
10.80
10.38
9.85
9.17
8.34
7.46
6.60
5.82
5.09
4.27
3.19
1.73
-0.16
-2.40
-4.79
-7.13
-9.27
-11.26
-13.26
-15.47
-17.92
-20.35
-22.31
-23.29
-23.01
-21.46
-18.94
-15.86
-12.57
-9.31
-6.19
-3.32
-0.91
0.85
1.80
1.93
1.41
0.52
-0.40
-1.12
-1.52
-1.58
-1.34
-0.86
-0.16
0.67
1.52
2.19
2.46
2.15
1.26
-0.07
-1.59
-3.04
-4.28
-5.31
-6.27
-7.35
-8.67
-10.20
-11.75
-13.02
-13.63
-13.29
-11.85
-9.33
-5.94
-2.00
2.11
6.07
9.63
12.63
14.99
16.66
17.58
17.73
17.16
16.05
14.67
13.33
12.26
11.53
11.04
10.59
9.95
9.01
7.81
6.48
5.21
4.16
3.35
2.69
2.01
1.11
-0.11
-1.67
-3.44
-5.25
-6.89
-8.23
-9.16
-9.60
-9.44
-8.55
-6.87
-4.41
-1.33
2.12
5.60
8.80
11.48
13.42
14.51
14.73
14.14
12.97
11.54
10.23
9.33
8.94
8.94
8.97
8.62
7.60
5.88
3.75
1.66
0.03
-0.91
-1.29
-1.44
-1.78
-2.61
-3.97
-5.70
-7.51
-9.17
-10.48
-11.33
-11.56
-11.01
-9.54
-7.15
-4.01
-0.42
3.21
6.55
9.36
11.54
13.04
13.87
14.06
13.68
12.88
11.86
10.80
9.82
8.95
8.16
7.39
6.65
5.96
5.36
4.86
4.44
3.99
3.41
2.57
1.42
-0.05
-1.84
-3.90
-6.19
-8.63
-11.01
-13.09
-14.56
-15.15
-14.75
-13.38
-11.18
-8.38
-5.22
-1.92
1.28
4.14
6.42
7.99
8.84
9.11
9.01
8.73
8.41
8.09
7.73
7.28
6.74
6.13
5.50
4.88
4.22
3.50
2.64
1.65
0.52
-0.72
-2.09
-3.67
-5.54
-7.75
-10.27
-12.94
-15.56
-17.95
-19.96
-21.49
-22.47
-22.81
-22.46
-21.41
-19.70
-17.47
-14.87
-12.09
-9.32
-6.73
-4.47
-2.62
-1.23
-0.23
0.45
0.89
1.12
1.14
0.95
0.61
0.22
-0.09
-0.26
-0.29
-0.30
-0.48
-0.98
-1.91
-3.19
-4.62
-5.94
-6.91
-7.46
-7.70
-7.87
-8.26
-9.03
-10.17
-11.44
-12.52
-12.94
-12.32
-10.38
-7.06
-2.57
2.65
8.00
12.90
16.92
19.79
21.41
21.81
21.06
19.38
17.07
14.57
12.26
10.40
9.07
8.16
7.49
6.92
6.37
5.82
5.27
4.69
3.98
3.06
1.87
0.43
-1.19
-2.93
-4.78
-6.80
-9.01
-11.38
-13.70
-15.65
-16.90
-17.19
-16.52
-15.05
-13.01
-10.63
-8.04
-5.34
-2.66
-0.21
1.73
2.98
3.47
3.31
2.69
1.81
0.79
-0.33
-1.50
-2.61
-3.54
-4.14
-4.37
-4.31
-4.09
-3.85
-3.71
-3.71
-3.93
-4.47
-5.52
-7.28
-9.83
-13.11
-16.79
-20.40
-23.41
-25.40
-26.16
-25.80
-24.67
-23.20
-21.74
-20.46
-19.34
-18.36
-17.62
-17.39
-18.02
-19.76
-22.62
-26.28
-30.26
-34.03
-37.08
-38.93
-38.99
-36.54
-30.95
-22.05
-10.37
2.97
16.73
30.15
43.21
56.36
69.90
83.33
95.43
104.71
110.47
113.24
114.69
116.79
120.85
126.88
133.82
140.27
145.24
148.42
149.85
149.51
146.92
141.36
132.37
120.21
105.95
90.93
76.16
61.82
47.34
31.95
15.40
-1.59
-17.48
-30.50
-39.43
-44.16
-45.70
-45.77
-46.10
-47.81
-51.18
-55.84
-61.43
-68.14
-77.01
-89.49
-106.50
-127.56
-150.35
-171.16
-185.92
-191.32
-185.62
-168.93
-143.22
-112.26
-81.59
-58.14
-49.07
-59.41
-89.89
-135.58
-186.83
-232.26
-262.61
-273.29
-264.83
-241.21
-207.44
-168.18
-127.65
-90.11
-59.85
-40.10
-31.39
-30.90
-33.50
-34.07
-30.07
-22.16
-12.97
-4.71
2.49
10.65
21.91
36.34
50.68
59.19
56.33
39.70
11.48
-22.07
-53.18
-75.84
-87.55
-89.60
-85.31
-77.56
-66.90
-51.39
-28.14
3.90
41.60
77.54
102.74
110.72
100.78
78.08
50.52
24.50
1.83
-19.86
-43.93
-71.08
-98.02
-118.90
-129.12
-128.09
-119.23
-107.53
-96.13
-84.30
-68.08
-42.91
-6.64
38.45
85.72
126.22
152.15
160.32
154.20
142.82
136.91
143.96
164.53
192.20
216.99
230.40
229.31
216.66
198.99
182.81
171.78
166.19
164.16
163.24
161.31
156.62
147.51
132.38
110.64
83.50
53.97
25.85
2.15
-15.93
-29.08
-38.96
-46.98
-53.61
-58.11
-58.63
-52.26
-35.56
-5.94
36.58
87.68
138.99
180.38
203.99
207.43
194.57
173.12
150.81
132.05
117.12
103.84
90.06
75.14
59.78
44.58
28.97
11.20
-10.38
-36.11
-64.67
-93.93
-122.33
-150.61
-182.36
-223.06
-277.66
-347.64
-429.13
-513.04
-587.79
-643.50
-675.61
-686.14
-681.92
-670.86
-658.37
-645.46
-629.40
-605.99
-571.84
-525.72
-468.44
-401.93
-328.50
-250.38
-169.72
-88.43
-7.90
71.30
149.55
227.73
305.76
381.48
450.19
505.59
541.48
553.81
542.33
511.10
468.22
424.26
389.99
373.58
378.15
400.56
432.28
462.39
481.52
484.81
472.72
449.44
420.21
389.13
358.26
328.44
300.53
275.95
256.13
241.40
230.25
220.05
208.82
195.77
181.85
169.34
160.76
157.40
158.65
161.79
163.79
164.04
163.29
163.72
167.85
177.34
191.81
208.98
224.93
236.87
246.27
255.91
269.07
288.16
313.53
342.92
372.37
396.76
413.19
423.85
431.39
438.16
445.61
454.49
465.38
479.53
496.89
494.41
454.35
364.03
221.97
40.39
-158.58
-350.75
-509.67
-631.83
-720.61
-778.56
-809.44
-817.33
-806.83
-780.64
-743.69
-701.89
-662.01
-627.27
-595.70
-564.09
-529.18
-488.90
-443.28
-394.83
-347.14
-304.66
-269.43
-240.28
-215.31
-192.46
-170.18
-147.94
-126.43
-106.76
-90.42
-77.45
-66.45
-55.93
-44.85
-32.77
-20.06
-7.80
2.79
10.66
15.83
19.35
22.51
26.17
30.32
34.02
35.89
34.73
30.27
23.21
14.83
6.22
-2.35
-11.31
-21.28
-32.17
-43.21
-50.82
-51.69
-44.18
-29.38
-11.19
5.42
14.81
14.72
4.36
-16.26
-46.78
-85.89
-129.29
-170.89
-203.88
-223.48
-229.30
-226.47
-223.33
-227.31
-240.67
-258.81
-272.65
-273.05
-255.34
-220.87
-175.87
-127.95
-83.48
-46.64
-20.21
-6.38
-6.29
-18.74
-39.29
-60.95
-76.37
-80.59
-72.71
-55.77
-34.86
-14.81
1.44
13.28
21.71
28.71
36.58
47.63
63.86
86.31
114.68
146.98
179.89
209.79
234.02
252.17
266.26
280.04
297.36
320.42
348.64
378.79
406.23
426.60
437.32
438.02
430.22
416.22
398.08
377.02
353.23
326.34
296.00
262.43
226.64
190.17
154.50
120.49
88.05
56.32
24.27
-8.53
-41.46
-72.97
-101.16
-124.65
-143.25
-158.01
-170.82
-183.59
-197.39
-212.02
-226.24
-238.33
-246.97
-251.69
-252.70
-250.76
-246.68
-240.95
-233.51
-223.87
-211.36
-195.50
-176.24
-153.58
-128.04
-100.59
-72.41
-44.48
-17.29
8.98
34.06
57.10
77.44
93.89
105.24
110.87
111.18
107.79
103.16
100.13
101.34
109.85
127.25
152.85
183.42
213.89
239.25
256.44
265.28
261.07
242.78
211.87
171.91
127.49
82.85
41.67
6.78
-20.24
-39.40
-51.25
-57.63
-60.81
-62.59
-64.10
-65.07
-64.51
-62.16
-58.94
-56.11
-55.65
-59.47
-68.53
-82.77
-100.91
-120.91
-141.31
-161.70
-182.20
-203.50
-226.44
-248.96
-271.39
-293.72
-314.47
-330.59
-337.12
-328.55
-301.55
-257.35
-202.16
-145.77
-98.05
-62.55
-39.26
-25.35
-17.06
-11.80
-8.91
-8.86
-12.30
-18.32
-24.93
-30.63
-34.92
-38.43
-42.47
-48.37
-56.53
-66.45
-76.31
-84.10
-88.77
-90.24
-89.19
-86.56
-82.82
-77.38
-71.27
-63.93
-54.58
-43.07
-29.92
-16.11
-2.76
9.31
19.87
29.13
37.93
46.93
56.20
65.34
73.73
80.87
86.66
91.47
95.95
101.01
107.14
114.29
122.01
129.77
137.27
144.65
152.51
161.81
173.99
190.56
212.71
240.64
272.95
306.31
335.99
357.03
365.78
361.02
344.04
317.72
285.32
249.52
212.14
174.59
138.45
105.58
77.71
55.71
39.28
27.15
17.70
9.61
2.05
-5.45
-13.29
-21.95
-31.80
-42.80
-54.41
-65.73
-75.87
-84.27
-90.75
-95.36
-98.15
-99.14
-98.47
-96.60
-94.36
-92.73
-92.42
-93.57
-95.74
-98.02
-99.46
-99.35
-97.40
-93.74
-88.75
-82.86
-76.41
-69.58
-62.46
-55.18
-47.98
-41.28
-35.54
-31.14
-28.13
-26.24
-24.92
-23.55
-21.67
-19.12
-15.97
-12.37
-8.49
-4.43
-0.26
3.97
8.21
12.34
16.29
19.97
23.26
25.91
27.64
28.07
26.94
24.24
20.30
15.75
11.43
8.19
6.73
7.37
9.93
13.76
17.89
21.35
23.43
23.95
23.16
21.63
19.91
18.40
17.17
16.13
15.10
13.93
12.57
10.98
9.13
6.96
4.44
1.60
-1.41
-4.39
-7.12
-9.44
-11.36
-13.03
-14.75
-16.79
-19.38
-22.50
-25.99
-29.49
-32.64
-35.04
-36.41
-36.54
-35.35
-32.90
-29.38
-25.14
-20.57
-16.06
-11.93
-8.37
-5.43
-3.09
-1.27
0.13
1.19
1.90
2.22
2.03
1.24
-0.14
-1.95
-3.93
-5.78
-7.27
-8.33
-9.00
-9.44
-9.78
-10.13
-10.53
-11.02
-11.74
-12.90
-14.72
-17.37
-20.75
-24.53
-28.14
-30.91
-32.26
-31.84
-29.65
-25.92
-21.13
-15.81
-10.48
-5.59
-1.45
1.86
4.49
6.67
8.63
10.44
12.03
13.19
13.78
13.77
13.23
12.32
11.17
9.87
8.47
7.07
5.80
4.70
3.75
2.78
1.64
0.21
-1.50
-3.42
-5.43
-7.48
-9.62
-11.94
-14.49
-17.21
-19.86
-22.05
-23.30
-23.23
-21.62
-18.53
-14.25
-9.28
-4.13
0.73
4.99
8.46
11.04
12.73
13.57
13.70
13.27
12.49
11.55
10.65
9.91
9.40
9.13
9.02
8.93
8.72
8.25
7.44
6.26
4.75
2.92
0.87
-1.29
-3.37
-5.18
-6.62
-7.79
-8.99
-10.64
-13.03
-16.08
-19.29
-21.84
-22.94
-22.15
-19.55
-15.70
-11.34
-7.09
-3.24
0.16
3.18
5.76
7.75
8.89
9.14
8.70
8.04
7.65
7.82
8.50
9.32
9.79
9.59
8.75
7.59
6.59
6.06
6.00
6.10
5.98
5.34
4.14
2.62
1.09
-0.22
-1.26
-2.21
-3.31
-4.83
-6.85
-9.33
-12.00
-14.51
-16.41
-17.25
-16.69
-14.56
-10.98
-6.40
-1.44
3.22
7.08
9.88
11.62
12.48
12.67
12.32
11.52
10.33
8.86
7.27
5.77
4.56
3.73
3.31
3.20
3.19
3.09
2.70
1.92
0.73
-0.78
-2.49
-4.28
-6.01
-7.60
-8.97
-10.11
-11.07
-11.95
-12.85
-13.81
-14.75
-15.41
-15.47
-14.62
-12.65
-9.55
-5.53
-0.97
3.67
7.92
11.38
13.78
15.05
15.26
14.61
13.40
11.92
10.50
9.37
8.69
8.44
8.46
8.46
8.19
7.51
6.50
5.36
4.33
3.51
2.85
2.19
1.37
0.38
-0.68
-1.72
-2.73
-3.86
-5.29
-7.08
-9.07
-10.87
-12.02
-12.16
-11.14
-9.06
-6.16
-2.70
1.03
4.75
8.08
10.60
11.96
12.03
10.98
9.25
7.40
5.86
4.82
4.23
3.89
3.67
3.53
3.51
3.61
3.71
3.60
3.13
2.30
1.33
0.40
-0.40
-1.23
-2.37
-4.01
-6.05
-8.18
-10.00
-11.33
-12.26
-13.08
-13.92
-14.67
-14.87
-14.03
-11.92
-8.71
-4.90
-1.10
2.22
4.84
6.71
7.86
8.30
8.04
7.13
5.74
4.13
2.65
1.57
1.09
1.23
1.79
2.44
2.82
2.69
1.98
0.83
-0.50
-1.81
-2.98
-4.04
-5.07
-6.13
-7.27
-8.53
-9.97
-11.61
-13.45
-15.35
-17.05
-18.25
-18.69
-18.25
-16.95
-14.92
-12.30
-9.27
-5.96
-2.53
0.78
3.70
5.97
7.40
7.98
7.86
7.32
6.63
5.97
5.40
4.97
4.69
4.61
4.74
5.06
5.44
5.78
5.96
6.00
5.93
5.81
5.65
5.39
4.97
4.37
3.57
2.61
1.46
0.07
-1.58
-3.43
-5.28
-6.82
-7.72
-7.73
-6.70
-4.66
-1.74
1.76
5.40
8.71
11.27
12.83
13.36
13.11
12.37
11.42
10.46
9.59
8.85
8.33
8.08
8.08
8.17
8.04
7.43
6.25
4.65
2.99
1.68
0.91
0.60
0.46
0.14
-0.56
-1.62
-2.84
-4.03
-5.16
-6.36
-7.84
-9.72
-11.88
-13.93
-15.37
-15.70
-14.66
-12.30
-8.97
-5.19
-1.44
1.92
4.75
7.07
8.93
10.35
11.26
11.57
11.28
10.52
9.52
8.55
7.76
7.23
6.96
6.93
7.10
7.43
7.75
7.82
7.41
6.39
4.80
2.91
1.06
-0.43
-1.45
-2.11
-2.69
-3.55
-4.92
-6.75
-8.79
-10.57
-11.63
-11.64
-10.50
-8.34
-5.47
-2.23
1.00
3.91
6.17
7.57
8.02
7.62
6.67
5.57
4.66
4.15
4.02
4.15
4.37
4.61
4.85
5.14
5.47
5.78
5.91
5.74
5.24
4.49
3.63
2.80
2.06
1.31
0.41
-0.81
-2.45
-4.57
-7.00
-9.48
-11.56
-12.79
-12.87
-11.74
-9.62
-6.89
-3.95
-1.03
1.77
4.46
7.01
9.26
11.01
12.05
12.37
12.13
11.59
10.99
10.49
10.12
9.86
9.68
9.51
9.28
8.90
8.29
7.40
6.23
4.84
3.33
1.80
0.31
-1.10
-2.42
-3.70
-4.98
-6.36
-7.95
-9.79
-11.78
-13.62
-14.86
-15.09
-14.04
-11.76
-8.56
-4.94
-1.36
1.86
4.54
6.66
8.22
9.19
9.57
9.38
8.74
7.81
6.77
5.74
4.77
3.88
3.05
2.33
1.75
1.35
1.12
0.96
0.74
0.32
-0.37
-1.31
-2.41
-3.60
-4.82
-6.12
-7.55
-9.18
-10.98
-12.80
-14.40
-15.48
-15.78
-15.04
-13.22
-10.41
-6.90
-3.14
0.38
3.27
5.32
6.58
7.23
7.53
7.66
7.72
7.66
7.45
7.07
6.62
6.19
5.90
5.80
5.90
6.11
6.30
6.29
5.86
4.92
3.46
1.68
-0.19
-1.95
-3.56
-5.12
-6.76
-8.54
-10.42
-12.25
-13.89
-15.28
-16.31
-16.84
-16.66
-15.57
-13.53
-10.72
-7.50
-4.29
-1.40
1.08
3.15
4.86
6.16
6.94
7.11
6.71
5.91
4.98
4.17
3.64
3.37
3.24
3.12
2.92
2.64
2.33
1.96
1.49
0.80
-0.17
-1.37
-2.69
-3.95
-5.09
-6.15
-7.28
-8.62
-10.21
-11.94
-13.55
-14.74
-15.20
-14.74
-13.29
-10.92
-7.86
-4.47
-1.13
1.78
4.04
5.52
6.21
6.19
5.61
4.66
3.60
2.67
2.11
2.07
2.51
3.26
4.07
4.71
5.12
5.35
5.58
5.94
6.46
7.00
7.35
7.35
6.93
6.13
5.03
3.68
2.03
0.00
-2.31
-4.65
-6.55
-7.50
-7.14
-5.43
-2.64
0.74
4.19
7.31
9.87
11.79
13.07
13.70
13.68
13.06
11.92
10.42
8.76
7.14
5.69
4.46
3.41
2.42
1.37
0.23
-0.96
-2.08
-2.99
-3.62
-3.96
-4.08
-4.11
-4.19
-4.47
-5.08
-6.10
-7.52
-9.21
-10.92
-12.42
-13.49
-13.98
-13.86
-13.10
-11.72
-9.83
-7.57
-5.20
-2.93
-0.94
0.65
1.83
2.62
3.12
3.43
3.69
4.03
4.50
5.04
5.49
5.67
5.45
4.90
4.14
3.31
2.46
1.49
0.27
-1.33
-3.30
-5.50
-7.70
-9.78
-11.71
-13.56
-15.50
-17.59
-19.74
-21.72
-23.26
-24.12
-24.24
-23.60
-22.28
-20.30
-17.69
-14.48
-10.79
-6.81
-2.81
0.96
4.36
7.31
9.82
11.90
13.60
14.88
15.75
16.19
16.26
16.07
15.78
15.57
15.56
15.84
16.44
17.35
18.51
19.76
20.83
21.30
20.77
18.95
15.94
12.17
8.29
4.89
2.25
0.22
-1.57
-3.49
-5.64
-7.76
-9.34
-9.93
-9.34
-7.77
-5.66
-3.52
-1.67
-0.15
1.19
2.55
3.94
5.25
6.19
6.60
6.52
6.17
5.89
5.91
6.24
6.66
6.90
6.69
5.99
4.91
3.66
2.45
1.36
0.37
-0.62
-1.72
-2.99
-4.39
-5.81
-7.11
-8.20
-9.03
-9.59
-9.86
-9.71
-9.01
-7.63
-5.54
-2.92
-0.06
2.73
5.22
7.34
9.12
10.67
12.00
13.03
13.67
13.89
13.79
13.57
13.43
13.45
13.54
13.49
13.11
12.30
11.10
9.61
7.93
6.05
3.90
1.40
-1.43
-4.42
-7.36
-9.96
-12.03
-13.48
-14.39
-14.96
-15.43
-15.97
-16.57
-17.05
-17.10
-16.48
-15.10
-13.10
-10.82
-8.60
-6.72
-5.25
-4.10
-3.12
-2.18
-1.25
-0.41
0.26
0.69
0.92
1.10
1.39
1.85
2.38
2.76
2.77
2.31
1.54
0.72
0.07
-0.39
-0.78
-1.31
-2.06
-2.97
-3.84
-4.56
-5.18
-5.88
-6.86
-8.15
-9.59
-10.85
-11.55
-11.46
-10.54
-8.91
-6.80
-4.54
-2.40
-0.64
0.65
1.48
1.89
1.99
1.79
1.29
0.54
-0.35
-1.15
-1.64
-1.69
-1.32
-0.67
0.10
0.86
1.56
2.19
2.68
2.90
2.74
2.16
1.28
0.31
-0.53
-1.19
-1.78
-2.56
-3.79
-5.61
-7.94
-10.47
-12.76
-14.34
-14.82
-14.05
-12.14
-9.41
-6.36
-3.44
-1.00
0.78
1.91
2.53
2.82
2.98
3.16
3.45
3.85
4.29
4.64
4.81
4.78
4.63
4.47
4.40
4.43
4.45
4.36
4.03
3.46
2.65
1.66
0.49
-0.88
-2.48
-4.27
-6.21
-8.19
-10.05
-11.63
-12.76
-13.25
-12.96
-11.83
-9.95
-7.49
-4.81
-2.25
-0.14
1.37
2.27
2.64
2.65
2.42
2.01
1.48
0.87
0.36
0.13
0.29
0.83
1.48
1.90
1.78
1.06
-0.02
-1.10
-1.85
-2.18
-2.23
-2.32
-2.69
-3.46
-4.56
-5.86
-7.22
-8.55
-9.76
-10.69
-11.15
-10.93
-9.94
-8.24
-6.04
-3.59
-1.13
1.21
3.32
5.10
6.41
7.14
7.31
7.10
6.82
6.72
6.95
7.44
7.95
8.24
8.19
7.82
7.23
6.55
5.86
5.18
4.52
3.84
3.15
2.38
1.44
0.27
-1.17
-2.80
-4.50
-6.06
-7.35
-8.22
-8.58
-8.35
-7.49
-6.02
-4.09
-1.89
0.32
2.34
4.03
5.36
6.36
7.04
7.39
7.36
6.96
6.27
5.46
4.75
4.33
4.26
4.50
4.85
5.11
5.08
4.69
3.97
3.05
2.09
1.16
0.34
-0.38
-1.00
-1.57
-2.16
-2.91
-3.93
-5.29
-6.86
-8.36
-9.36
-9.53
-8.72
-7.09
-5.01
-2.87
-0.96
0.64
2.01
3.29
4.53
5.65
6.51
6.95
6.93
6.57
6.10
5.76
5.69
5.88
6.17
6.30
6.10
5.47
4.51
3.44
2.48
1.80
1.42
1.21
0.92
0.33
-0.64
-1.98
-3.58
-5.30
-7.07
-8.80
-10.36
-11.56
-12.14
-11.94
-10.95
-9.32
-7.34
-5.26
-3.29
-1.50
0.09
1.43
2.50
3.24
3.67
3.85
3.92
3.99
4.14
4.35
4.57
4.66
4.52
4.06
3.29
2.35
1.48
0.92
0.83
1.17
1.66
1.97
1.79
1.04
-0.16
-1.58
-3.00
-4.38
-5.73
-7.07
-8.30
-9.13
-9.28
-8.60
-7.18
-5.27
-3.18
-1.18
0.63
2.21
3.52
4.57
5.33
5.84
6.14
6.32
6.42
6.51
6.67
6.99
7.49
8.08
8.47
8.33
7.41
5.70
3.50
1.26
-0.62
-1.94
-2.79
-3.42
-4.11
-4.99
-6.06
-7.22
-8.40
-9.54
-10.64
-11.67
-12.49
-12.90
-12.75
-11.91
-10.39
-8.31
-5.76
-2.87
0.27
3.51
6.63
9.33
11.33
12.45
12.72
12.36
11.66
10.85
10.07
9.34
8.60
7.80
6.98
6.15
5.36
4.64
4.00
3.50
3.15
2.96
2.85
2.65
2.17
1.23
-0.18
-1.92
-3.76
-5.41
-6.66
-7.38
-7.55
-7.18
-6.27
-4.88
-3.06
-1.00
1.08
2.88
4.21
4.91
5.01
4.60
3.86
2.92
1.93
0.96
0.07
-0.70
-1.23
-1.43
-1.28
-0.89
-0.52
-0.48
-0.98
-2.10
-3.68
-5.42
-7.01
-8.23
-9.06
-9.61
-10.08
-10.60
-11.21
-11.85
-12.40
-12.76
-12.82
-12.56
-11.88
-10.68
-8.80
-6.10
-2.61
1.43
5.58
9.31
12.18
13.97
14.70
14.58
13.93
13.03
12.10
11.27
10.61
10.12
9.78
9.47
8.96
8.05
6.54
4.43
1.85
-0.89
-3.48
-5.66
-7.34
-8.63
-9.73
-10.82
-11.96
-13.04
-13.86
-14.27
-14.19
-13.67
-12.81
-11.72
-10.45
-9.05
-7.61
-6.20
-4.96
-3.96
-3.18
-2.52
-1.90
-1.24
-0.55
0.13
0.76
1.37
2.00
2.73
3.58
4.50
5.34
5.87
5.94
5.44
4.44
3.13
1.71
0.32
-1.06
-2.53
-4.21
-6.07
-7.99
-9.78
-11.28
-12.45
-13.28
-13.73
-13.68
-12.98
-11.56
-9.52
-7.12
-4.69
-2.46
-0.40
1.66
3.98
6.65
9.53
12.26
14.42
15.73
16.11
15.74
14.95
14.11
13.49
13.22
13.23
13.34
13.30
12.89
11.94
10.42
8.38
5.98
3.43
0.95
-1.29
-3.30
-5.21
-7.29
-9.76
-12.61
-15.53
-17.96
-19.24
-18.93
-16.97
-13.71
-9.76
-5.77
-2.24
0.63
2.83
4.54
5.97
7.33
8.72
10.12
11.38
12.24
12.53
12.18
11.27
10.00
8.58
7.12
5.67
4.24
2.87
1.59
0.49
-0.32
-0.69
-0.52
0.23
1.38
2.59
3.38
3.38
2.56
1.27
0.03
-0.70
-0.80
-0.44
0.04
0.46
0.90
1.58
2.63
3.91
4.95
5.31
4.79
3.62
2.30
1.33
0.92
0.90
0.88
0.57
-0.07
-0.74
-1.07
-0.77
0.08
1.16
2.05
2.44
2.31
1.78
1.08
0.34
-0.45
-1.37
-2.49
-3.84
-5.36
-6.93
-8.39
-9.49
-9.89
-9.14
-6.78
-2.51
3.67
11.35
19.76
27.89
34.77
39.64
42.14
42.35
40.70
37.82
34.32
30.68
27.10
23.60
20.07
16.41
12.58
8.67
4.75
0.86
-3.05
-7.07
-11.22
-15.38
-19.29
-22.66
-25.29
-27.19
-28.58
-29.72
-30.80
-31.85
-32.72
-33.20
-33.08
-32.28
-30.81
-28.76
-26.25
-23.40
-20.34
-17.25
-14.29
-11.63
-9.41
-7.66
-6.39
-5.54
-5.03
-4.72
-4.51
-4.26
-3.90
-3.40
-2.80
-2.20
-1.70
-1.34
-1.10
-0.89
-0.61
-0.23
0.22
0.65
1.00
1.25
1.41
1.50
1.54
1.49
1.40
1.35
1.49
2.01
3.07
4.72
6.94
9.68
12.80
16.14
19.45
22.42
24.75
26.25
26.96
27.12
27.15
27.44
28.31
29.83
31.89
34.20
36.30
37.64
37.69
36.04
32.57
27.52
21.49
15.24
9.52
4.85
1.35
-1.21
-3.32
-5.46
-7.95
-10.81
-13.81
-16.54
-18.60
-19.77
-20.05
-19.62
-18.76
-17.72
-16.65
-15.66
-14.80
-14.14
-13.72
-13.53
-13.47
-13.36
-12.96
-12.11
-10.80
-9.18
-7.52
-6.14
-5.30
-5.17
-5.73
-6.80
-8.03
-9.00
-9.33
-8.77
-7.33
-5.32
-3.27
-1.74
-1.17
-1.62
-2.83
-4.28
-5.43
-5.91
-5.64
-4.75
-3.52
-2.20
-0.95
0.25
1.47
2.75
4.05
5.22
6.00
6.18
5.73
4.79
3.72
2.89
2.51
2.56
2.78
2.85
2.54
1.85
0.95
0.03
-0.83
-1.65
-2.59
-3.79
-5.25
-6.95
-8.80
-10.75
-12.76
-14.75
-16.58
-17.98
-18.64
-18.39
-17.19
-15.27
-13.02
-10.85
-9.08
-7.80
-6.93
-6.31
-5.84
-5.57
-5.67
-6.35
-7.74
-9.75
-12.13
-14.54
-16.67
-18.40
-19.86
-21.37
-23.35
-26.10
-29.71
-33.93
-38.29
-42.24
-45.29
-47.08
-47.49
-46.55
-44.47
-41.60
-38.32
-34.95
-31.69
-28.54
-25.23
-21.33
-16.30
-9.63
-1.09
9.16
20.41
31.53
41.31
48.83
53.85
56.74
58.34
59.47
60.73
62.37
64.49
67.12
70.25
73.77
77.40
80.67
83.04
84.14
83.81
82.14
79.40
75.92
71.91
67.43
62.34
56.34
49.20
40.86
31.53
21.60
11.41
1.10
-9.36
-19.95
-30.35
-39.82
-47.28
-51.74
-52.56
-49.80
-44.10
-36.60
-28.63
-21.42
-15.87
-12.37
-10.73
-10.28
-10.17
-9.67
-8.48
-6.81
-5.21
-4.34
-4.70
-6.52
-9.72
-13.97
-18.73
-23.40
-27.35
-30.09
-31.34
-31.01
-29.24
-26.18
-22.10
-17.35
-12.43
-7.94
-4.43
-2.15
-0.99
-0.53
-0.26
0.20
0.91
1.70
2.26
2.31
1.70
0.40
-1.55
-4.08
-7.09
-10.43
-13.89
-17.18
-20.05
-22.29
-23.80
-24.56
-24.58
-23.86
-22.38
-20.09
-17.00
-13.22
-9.02
-4.74
-0.74
2.74
5.64
8.03
10.03
11.66
12.85
13.46
13.37
12.57
11.23
9.61
7.99
6.57
5.37
4.29
3.18
1.97
0.67
-0.64
-1.88
-3.05
-4.30
-5.83
-7.85
-10.41
-13.33
-16.19
-18.49
-19.79
-19.89
-18.93
-17.29
-15.44
-13.74
-12.36
-11.25
-10.30
-9.38
-8.43
-7.44
-6.36
-5.10
-3.64
-2.03
-0.45
0.85
1.66
1.86
1.48
0.66
-0.36
-1.37
-2.14
-2.61
-2.86
-3.11
-3.63
-4.58
-5.95
-7.47
-8.74
-9.32
-8.91
-7.37
-4.75
-1.25
2.86
7.26
11.60
15.61
19.08
21.95
24.22
25.94
27.16
27.92
28.27
28.33
28.19
27.91
27.48
26.79
25.70
24.10
22.05
19.71
17.28
14.89
12.51
10.03
7.33
4.40
1.33
-1.73
-4.67
-7.47
-10.11
-12.49
-14.30
-15.15
-14.70
-12.91
-10.06
-6.72
-3.45
-0.56
1.90
4.10
6.20
8.21
9.96
11.21
11.80
11.78
11.46
11.24
11.46
12.21
13.27
14.24
14.70
14.45
13.51
12.16
10.72
9.44
8.34
7.28
6.04
4.40
2.29
-0.29
-3.19
-6.19
-9.00
-11.31
-12.86
-13.47
-13.08
-11.78
-9.69
-7.01
-3.99
-0.91
2.00
4.54
6.67
8.42
9.91
11.20
12.32
13.21
13.80
14.08
14.09
13.92
13.69
13.44
13.17
12.79
12.15
11.11
9.61
7.65
5.35
2.84
0.23
-2.45
-5.16
-7.89
-10.55
-13.07
-15.45
-17.79
-20.23
-22.83
-25.40
-27.52
-28.67
-28.46
-26.79
-23.86
-20.09
-15.85
-11.46
-7.13
-3.08
0.40
3.04
4.67
5.33
5.30
5.00
4.82
4.99
5.49
6.12
6.60
6.76
6.56
6.11
5.63
5.28
5.09
4.99
4.81
4.46
3.93
3.28
2.60
1.89
1.09
0.08
-1.16
-2.60
-4.18
-5.86
-7.70
-9.69
-11.71
-13.45
-14.49
-14.43
-13.07
-10.54
-7.19
-3.48
0.25
3.79
7.03
9.89
12.27
14.11
15.43
16.37
17.09
17.71
18.22
18.52
18.54
18.25
17.79
17.34
17.04
16.84
16.57
15.96
14.84
13.17
11.09
8.82
6.59
4.56
2.82
1.36
0.14
-0.99
-2.19
-3.64
-5.46
-7.63
-9.89
-11.81
-12.91
-12.87
-11.68
-9.63
-7.18
-4.74
-2.45
-0.21
2.22
4.95
7.87
10.63
12.83
14.24
14.82
14.76
14.26
13.46
12.40
11.09
9.60
8.06
6.64
5.42
4.43
3.54
2.64
1.62
0.47
-0.79
-2.11
-3.44
-4.77
-6.07
-7.31
-8.46
-9.48
-10.36
-11.15
-11.95
-12.90
-14.12
-15.61
-17.19
-18.50
-19.10
-18.66
-17.05
-14.44
-11.22
-7.83
-4.61
-1.73
0.76
2.86
4.53
5.69
6.31
6.48
6.41
6.33
6.42
6.69
7.04
7.32
7.43
7.43
7.48
7.76
8.32
9.04
9.65
9.89
9.59
8.78
7.60
6.20
4.70
3.07
1.33
-0.48
-2.23
-3.80
-5.15
-6.42
-7.82
-9.50
-11.44
-13.46
-15.27
-16.56
-17.10
-16.82
-15.75
-14.03
-11.86
-9.47
-7.11
-4.97
-3.17
-1.77
-0.72
0.03
0.64
1.22
1.86
2.55
3.19
3.66
3.87
3.84
3.72
3.69
3.85
4.15
4.45
4.58
4.42
3.96
3.29
2.47
1.59
0.70
-0.14
-0.87
-1.51
-2.11
-2.77
-3.57
-4.52
-5.55
-6.51
-7.25
-7.60
-7.45
-6.74
-5.47
-3.73
-1.68
0.44
2.40
4.01
5.20
5.98
6.41
6.60
6.62
6.54
6.39
6.19
5.95
5.70
5.51
5.39
5.37
5.43
5.53
5.61
5.70
5.80
5.88
5.89
5.71
5.28
4.59
3.71
2.72
1.69
0.56
-0.74
-2.35
-4.31
-6.47
-8.58
-10.26
-11.20
-11.20
-10.31
-8.71
-6.69
-4.47
-2.20
0.04
2.19
4.16
5.81
7.01
7.66
7.77
7.46
6.98
6.55
6.39
6.57
6.99
7.46
7.74
7.71
7.44
7.13
6.99
7.07
7.28
7.42
7.31
6.89
6.22
5.40
4.52
3.62
2.65
1.54
0.24
-1.27
-2.89
-4.42
-5.70
-6.62
-7.25
-7.75
-8.28
-8.84
-9.23
-9.12
-8.34
-6.94
-5.29
-3.81
-2.82
-2.34
-2.17
-2.06
-1.91
-1.77
-1.74
-1.86
-2.04
-2.14
-2.06
-1.84
-1.60
-1.44
-1.40
-1.41
-1.38
-1.30
-1.20
-1.14
-1.18
-1.35
-1.69
-2.29
-3.29
-4.77
-6.72
-8.95
-11.20
-13.14
-14.51
-15.11
-14.85
-13.79
-12.08
-9.98
-7.75
-5.60
-3.63
-1.86
-0.25
1.20
2.40
3.26
3.73
3.85
3.78
3.68
3.70
3.90
4.22
4.55
4.73
4.64
4.25
3.61
2.87
2.21
1.70
1.34
0.96
0.38
-0.51
-1.74
-3.18
-4.65
-6.00
-7.16
-8.18
-9.18
-10.26
-11.40
-12.45
-13.11
-13.09
-12.19
-10.43
-8.04
-5.43
-3.00
-1.03
0.38
1.34
2.05
2.72
3.46
4.24
4.95
5.49
5.80
5.90
5.86
5.74
5.58
5.39
5.16
4.93
4.71
4.52
4.31
4.00
3.49
2.74
1.77
0.66
-0.46
-1.45
-2.24
-2.81
-3.25
-3.74
-4.41
-5.26
-6.07
-6.49
-6.16
-4.93
-2.92
-0.50
1.86
3.84
5.33
6.40
7.19
7.75
8.04
8.03
7.74
7.39
7.26
7.58
8.40
9.48
10.42
10.82
10.47
9.49
8.22
7.09
6.35
5.99
5.82
5.55
4.96
3.97
2.59
0.91
-1.01
-3.08
-5.19
-7.19
-8.90
-10.14
-10.78
-10.74
-10.06
-8.81
-7.21
-5.51
-3.97
-2.72
-1.77
-1.00
-0.24
0.58
1.47
2.35
3.13
3.78
4.28
4.58
4.61
4.27
3.56
2.57
1.52
0.65
0.10
-0.14
-0.24
-0.41
-0.83
-1.49
-2.27
-2.99
-3.61
-4.23
-5.11
-6.48
-8.33
-10.30
-11.88
-12.54
-12.07
-10.65
-8.75
-6.88
-5.37
-4.20
-3.14
-1.95
-0.51
1.11
2.67
3.94
4.78
5.19
5.28
5.24
5.20
5.24
5.39
5.57
5.74
5.81
5.73
5.45
4.92
4.10
3.05
1.83
0.56
-0.65
-1.78
-2.86
-3.95
-5.18
-6.57
-8.15
-9.81
-11.36
-12.54
-13.11
-12.89
-11.85
-10.14
-8.07
-5.99
-4.20
-2.85
-1.87
-1.11
-0.37
0.43
1.20
1.74
1.87
1.51
0.80
-0.03
-0.71
-1.12
-1.23
-1.13
-0.86
-0.46
0.07
0.62
1.00
0.97
0.41
-0.58
-1.69
-2.53
-2.88
-2.76
-2.49
-2.47
-2.98
-4.06
-5.48
-6.90
-7.97
-8.53
-8.51
-7.96
-6.95
-5.53
-3.75
-1.71
0.45
2.50
4.24
5.52
6.29
6.62
6.69
6.67
6.70
6.80
6.90
6.89
6.69
6.28
5.67
4.93
4.11
3.25
2.44
1.79
1.39
1.26
1.28
1.27
1.01
0.30
-0.90
-2.54
-4.42
-6.26
-7.73
-8.52
-8.43
-7.47
-5.83
-3.86
-1.91
-0.20
1.22
2.43
3.55
4.69
5.85
6.96
7.94
8.67
9.14
9.34
9.35
9.25
9.08
8.85
8.56
8.17
7.67
7.05
6.37
5.65
4.89
4.08
3.22
2.34
1.42
0.43
-0.70
-2.05
-3.60
-5.22
-6.71
-7.88
-8.59
-8.80
-8.52
-7.78
-6.58
-4.97
-3.10
-1.15
0.65
2.16
3.33
4.26
5.07
5.84
6.57
7.20
7.64
7.79
7.63
7.19
6.58
5.94
5.45
5.17
5.07
5.03
4.86
4.46
3.81
3.00
2.13
1.25
0.33
-0.73
-2.00
-3.50
-5.14
-6.80
-8.35
-9.67
-10.65
-11.20
-11.26
-10.83
-9.98
-8.79
-7.36
-5.75
-3.98
-2.08
-0.12
1.79
3.52
4.90
5.83
6.31
6.37
6.19
5.96
5.84
5.93
6.15
6.35
6.35
6.12
5.74
5.35
5.02
4.70
4.25
3.52
2.53
1.43
0.38
-0.50
-1.27
-2.05
-3.00
-4.17
-5.52
-6.93
-8.27
-9.41
-10.23
-10.60
-10.45
-9.82
-8.79
-7.53
-6.20
-4.87
-3.56
-2.17
-0.64
1.06
2.84
4.53
5.89
6.70
6.85
6.38
5.49
4.41
3.43
2.68
2.23
2.03
1.99
2.00
1.97
1.80
1.45
0.90
0.19
-0.59
-1.36
-2.07
-2.75
-3.46
-4.29
-5.31
-6.52
-7.88
-9.30
-10.64
-11.75
-12.47
-12.73
-12.46
-11.72
-10.56
-9.06
-7.29
-5.27
-3.11
-0.92
1.09
2.75
3.97
4.78
5.26
5.53
5.62
5.52
5.23
4.86
4.57
4.56
4.88
5.43
5.94
6.17
6.02
5.53
4.88
4.22
3.61
3.00
2.30
1.47
0.53
-0.46
-1.49
-2.60
-3.88
-5.32
-6.84
-8.18
-9.03
-9.12
-8.35
-6.88
-4.99
-3.05
-1.28
0.26
1.68
3.11
4.57
5.96
7.08
7.80
8.11
8.15
8.09
8.02
7.89
7.58
7.02
6.27
5.51
4.95
4.66
4.53
4.37
4.00
3.40
2.64
1.87
1.12
0.36
-0.54
-1.63
-2.88
-4.18
-5.43
-6.59
-7.66
-8.62
-9.39
-9.78
-9.54
-8.55
-6.83
-4.62
-2.29
-0.14
1.62
2.99
4.12
5.14
6.08
6.85
7.29
7.28
6.84
6.13
5.40
4.88
4.69
4.82
5.07
5.23
5.08
4.50
3.52
2.29
0.98
-0.24
-1.34
-2.30
-3.10
-3.71
-4.05
-4.18
-4.30
-4.70
-5.59
-6.98
-8.62
-10.09
-11.00
-11.14
-10.49
-9.20
-7.48
-5.54
-3.54
-1.61
0.11
1.61
2.90
4.06
5.17
6.23
7.15
7.82
8.11
8.00
7.56
6.96
6.41
6.06
5.91
5.86
5.76
5.44
4.85
4.02
3.02
1.92
0.76
-0.44
-1.60
-2.62
-3.40
-3.96
-4.44
-5.14
-6.31
-8.06
-10.21
-12.35
-13.99
-14.75
-14.49
-13.35
-11.62
-9.60
-7.51
-5.47
-3.52
-1.73
-0.15
1.13
2.10
2.75
3.14
3.28
3.19
2.90
2.48
2.05
1.76
1.72
1.90
2.20
2.44
2.47
2.22
1.69
0.97
0.15
-0.69
-1.50
-2.24
-2.94
-3.64
-4.43
-5.43
-6.75
-8.44
-10.40
-12.33
-13.85
-14.62
-14.43
-13.35
-11.62
-9.56
-7.46
-5.51
-3.76
-2.22
-0.83
0.45
1.68
2.90
4.15
5.39
6.56
7.55
8.30
8.73
8.79
8.44
7.71
6.72
5.69
4.87
4.40
4.23
4.17
3.94
3.38
2.51
1.49
0.46
-0.51
-1.55
-2.81
-4.41
-6.29
-8.23
-9.93
-11.11
-11.58
-11.24
-10.11
-8.33
-6.07
-3.57
-1.07
1.29
3.44
5.36
7.08
8.58
9.79
10.67
11.19
11.34
11.20
10.81
10.23
9.46
8.53
7.53
6.59
5.84
5.40
5.26
5.32
5.34
5.10
4.42
3.27
1.75
0.10
-1.48
-2.91
-4.29
-5.78
-7.46
-9.23
-10.76
-11.69
-11.79
-11.03
-9.58
-7.74
-5.70
-3.59
-1.47
0.59
2.47
4.05
5.23
6.03
6.57
6.96
7.28
7.55
7.72
7.72
7.52
7.10
6.52
5.87
5.19
4.52
3.80
3.00
2.13
1.30
0.61
0.15
-0.14
-0.39
-0.83
-1.60
-2.80
-4.41
-6.35
-8.48
-10.61
-12.50
-13.86
-14.41
-14.01
-12.71
-10.76
-8.47
-6.14
-3.91
-1.83
0.10
1.88
3.41
4.57
5.29
5.57
5.59
5.54
5.59
5.77
5.97
6.04
5.87
5.44
4.87
4.31
3.92
3.72
3.61
3.39
2.87
1.97
0.77
-0.63
-2.07
-3.51
-5.02
-6.71
-8.65
-10.80
-12.98
-14.91
-16.31
-16.97
-16.84
-16.00
-14.64
-12.96
-11.08
-8.99
-6.59
-3.84
-0.79
2.28
4.99
6.96
7.94
7.95
7.18
5.97
4.71
3.65
2.95
2.64
2.62
2.70
2.74
2.65
2.40
2.06
1.67
1.24
0.72
0.04
-0.85
-1.94
-3.16
-4.43
-5.71
-6.99
-8.29
-9.56
-10.61
-11.23
-11.18
-10.39
-8.93
-7.02
-4.91
-2.78
-0.66
1.47
3.68
5.90
7.98
9.69
10.84
11.32
11.18
10.59
9.73
8.79
7.89
7.08
6.32
5.59
4.82
3.98
3.08
2.16
1.31
0.61
0.14
-0.09
-0.16
-0.15
-0.19
-0.39
-0.88
-1.75
-3.07
-4.77
-6.63
-8.28
-9.32
-9.41
-8.43
-6.51
-3.98
-1.27
1.25
3.37
5.03
6.34
7.43
8.46
9.50
10.51
11.35
11.87
11.92
11.51
10.75
9.81
8.91
8.18
7.61
7.11
6.51
5.70
4.67
3.56
2.56
1.86
1.54
1.58
1.86
2.19
2.42
2.37
1.89
0.88
-0.73
-2.83
-5.14
-7.17
-8.43
-8.53
-7.44
-5.43
-3.04
-0.79
0.99
2.25
3.16
3.90
4.56
5.09
5.35
5.29
4.96
4.51
4.08
3.73
3.46
3.22
3.01
2.88
2.86
2.96
3.11
3.27
3.39
3.49
3.54
3.46
3.09
2.29
0.98
-0.74
-2.71
-4.73
-6.73
-8.73
-10.82
-12.96
-14.92
-16.38
-17.01
-16.69
-15.52
-13.78
-11.78
-9.75
-7.76
-5.85
-4.00
-2.25
-0.67
0.71
1.87
2.85
3.65
4.29
4.79
5.22
5.67
6.21
6.86
7.58
8.22
8.66
8.77
8.49
7.81
6.84
5.66
4.39
3.09
1.78
0.48
-0.81
-2.00
-3.04
-3.91
-4.71
-5.63
-6.84
-8.35
-9.94
-11.22
-11.83
-11.59
-10.60
-9.12
-7.37
-5.46
-3.37
-1.07
1.31
3.46
5.09
6.04
6.43
6.57
6.83
7.39
8.21
9.03
9.55
9.61
9.23
8.65
8.14
7.86
7.82
7.83
7.67
7.22
6.46
5.54
4.55
3.55
2.55
1.65
1.14
1.44
2.89
5.47
8.72
11.86
14.15
15.16
14.91
13.80
12.30
10.76
9.31
7.92
6.56
5.25
4.12
3.28
2.81
2.64
2.61
2.53
2.21
1.61
0.76
-0.18
-1.07
-1.87
-2.65
-3.52
-4.59
-5.88
-7.26
-8.60
-9.78
-10.85
-11.93
-13.13
-14.42
-15.60
-16.29
-16.12
-14.87
-12.59
-9.57
-6.25
-3.05
-0.24
2.08
3.95
5.49
6.78
7.87
8.74
9.38
9.79
10.02
10.16
10.27
10.34
10.32
10.13
9.74
9.23
8.73
8.35
8.11
7.88
7.50
6.79
5.71
4.33
2.81
1.24
-0.37
-2.11
-4.08
-6.23
-8.40
-10.27
-11.52
-11.91
-11.38
-10.06
-8.24
-6.27
-4.47
-3.05
-2.10
-1.64
-1.64
-2.07
-2.91
-4.08
-5.48
-6.92
-8.20
-9.14
-9.68
-9.88
-9.91
-9.98
-10.24
-10.70
-11.24
-11.68
-11.87
-11.80
-11.58
-11.37
-11.24
-11.16
-11.03
-10.80
-10.54
-10.43
-10.66
-11.20
-11.79
-12.02
-11.48
-10.03
-7.78
-5.05
-2.20
0.50
2.90
5.01
6.84
8.40
9.64
10.44
10.70
10.36
9.51
8.40
7.38
6.76
6.69
7.05
7.52
7.76
7.52
6.79
5.73
4.54
3.39
2.29
1.18
-0.04
-1.35
-2.72
-4.04
-5.24
-6.30
-7.22
-7.96
-8.43
-8.44
-7.86
-6.67
-4.92
-2.80
-0.47
1.98
4.50
6.99
9.31
11.26
12.64
13.41
13.66
13.59
13.38
13.11
12.74
12.24
11.57
10.81
10.08
9.47
8.93
8.33
7.51
6.36
4.82
2.98
0.97
-1.07
-3.07
-4.98
-6.84
-8.67
-10.39
-11.82
-12.70
-12.80
-12.03
-10.46
-8.33
-5.93
-3.46
-1.05
1.24
3.35
5.22
6.77
7.94
8.81
9.46
10.00
10.47
10.83
11.00
10.94
10.66
10.21
9.66
9.00
8.17
7.08
5.72
4.18
2.67
1.42
0.59
0.14
-0.17
-0.72
-1.86
-3.69
-6.10
-8.71
-11.08
-12.86
-13.83
-13.97
-13.35
-12.15
-10.53
-8.69
-6.78
-4.96
-3.31
-1.89
-0.72
0.21
0.89
1.34
1.61
1.79
1.99
2.30
2.75
3.27
3.74
4.03
4.06
3.83
3.41
2.89
2.32
1.69
0.94
0.02
-1.05
-2.21
-3.35
-4.47
-5.66
-7.02
-8.63
-10.42
-12.08
-13.26
-13.61
-12.98
-11.42
-9.20
-6.65
-4.04
-1.60
0.52
2.20
3.34
3.95
4.20
4.33
4.60
5.11
5.74
6.24
6.35
5.91
4.99
3.79
2.56
1.54
0.85
0.48
0.36
0.32
0.18
-0.26
-1.11
-2.32
-3.76
-5.22
-6.58
-7.83
-9.07
-10.35
-11.63
-12.68
-13.28
-13.23
-12.47
-11.11
-9.31
-7.21
-4.89
-2.43
0.01
2.22
3.98
5.17
5.78
5.92
5.70
5.23
4.64
4.12
3.90
4.16
4.96
6.09
7.18
7.81
7.77
7.08
5.97
4.71
3.45
2.26
1.11
0.05
-0.83
-1.51
-2.09
-2.79
-3.80
-5.16
-6.65
-7.87
-8.43
-8.10
-6.92
-5.05
-2.72
-0.12
2.66
5.55
8.44
11.23
13.80
16.00
17.69
18.73
18.94
18.30
16.91
15.04
13.00
11.02
9.17
7.39
5.60
3.79
2.07
0.56
-0.63
-1.53
-2.26
-2.98
-3.87
-5.04
-6.59
-8.49
-10.68
-13.04
-15.37
-17.42
-18.93
-19.66
-19.39
-17.99
-15.41
-11.72
-7.11
-1.91
3.46
8.53
12.89
16.24
18.51
19.87
20.60
21.04
21.44
21.88
22.35
22.80
23.20
23.50
23.65
23.56
23.12
22.29
21.14
19.80
18.40
16.96
15.36
13.37
10.71
7.18
2.73
-2.43
-7.91
-13.14
-17.59
-20.92
-23.06
-24.26
-24.89
-25.24
-25.37
-25.07
-24.08
-22.24
-19.71
-16.92
-14.39
-12.49
-11.33
-10.71
-10.34
-10.01
-9.68
-9.45
-9.42
-9.59
-9.77
-9.75
-9.37
-8.67
-7.89
-7.29
-7.05
-7.15
-7.43
-7.67
-7.76
-7.77
-7.86
-8.22
-8.92
-9.86
-10.83
-11.60
-12.00
-11.94
-11.39
-10.34
-8.79
-6.79
-4.48
-2.08
0.16
2.03
3.45
4.45
5.15
5.66
6.00
6.16
6.07
5.69
5.06
4.28
3.50
2.88
2.52
2.37
2.29
2.04
1.43
0.39
-0.95
-2.34
-3.47
-4.17
-4.43
-4.46
-4.56
-4.96
-5.72
-6.75
-7.82
-8.65
-9.01
-8.74
-7.81
-6.24
-4.16
-1.76
0.73
3.11
5.19
6.86
8.04
8.76
9.03
8.98
8.77
8.56
8.43
8.36
8.19
7.76
6.96
5.86
4.64
3.51
2.65
2.04
1.52
0.86
-0.17
-1.69
-3.68
-5.94
-8.16
-10.00
-11.15
-11.44
-10.85
-9.47
-7.53
-5.29
-3.01
-0.93
0.80
2.15
3.13
3.83
4.30
4.47
4.20
3.31
1.76
-0.29
-2.51
-4.58
-6.28
-7.64
-8.80
-9.94
-11.07
-12.09
-12.81
-13.06
-12.75
-11.91
-10.57
-8.87
-7.08
-5.59
-4.83
-5.08
-6.32
-8.20
-10.11
-11.43
-11.70
-10.71
-8.51
-5.27
-1.26
3.26
8.08
13.11
18.37
23.97
29.97
36.19
42.15
47.19
50.61
51.96
51.08
48.21
43.78
38.26
32.01
25.12
17.50
9.05
-0.11
-9.41
-17.85
-24.32
-28.04
-28.82
-27.15
-23.88
-19.77
-15.26
-10.41
-5.09
0.69
6.64
12.31
17.33
21.56
25.14
28.12
30.26
31.07
30.02
27.21
23.94
22.57
25.74
35.24
50.46
68.36
84.60
94.88
96.77
90.59
79.34
67.54
59.79
58.28
62.16
68.34
72.68
72.13
66.12
56.59
46.70
39.36
34.50
29.53
21.25
7.21
-13.29
-39.72
-71.55
-109.04
-152.14
-200.61
-252.04
-297.53
-325.81
-327.41
-299.31
-246.80
-185.76
-126.59
-75.37
-34.59
-4.05
17.90
33.00
43.24
50.71
57.21
64.73
73.60
83.28
93.27
102.85
111.01
116.36
117.32
112.80
103.52
90.92
76.98
63.74
52.34
42.73
34.22
26.22
18.91
13.59
11.31
12.40
16.21
21.24
25.61
27.86
27.38
24.46
20.10
15.21
10.38
5.92
1.89
-1.72
-4.93
-7.73
-10.21
-12.42
-14.60
-17.00
-19.80
-22.98
-26.34
-29.55
-32.33
-34.53
-36.20
-37.45
-38.32
-38.72
-38.37
-36.99
-34.44
-30.85
-26.62
-22.31
-18.40
-15.22
-12.82
-11.11
-9.96
-9.33
-9.28
-9.91
-11.25
-13.15
-15.34
-17.42
-19.03
-19.91
-19.95
-19.23
-17.94
-16.38
-14.83
-13.52
-12.57
-11.97
-11.69
-11.70
-12.07
-12.89
-14.13
-15.59
-16.81
-17.25
-16.38
-13.97
-10.12
-5.27
-0.07
4.75
8.50
10.63
10.80
8.98
5.53
1.16
-3.25
-6.80
-8.87
-9.19
-7.84
-5.18
-1.71
2.02
5.50
8.32
10.24
11.21
11.42
11.18
10.78
10.43
10.10
9.58
8.58
6.85
4.31
1.16
-2.18
-5.09
-6.93
-7.21
-5.70
-2.46
2.15
7.58
13.19
18.36
22.56
25.41
26.66
26.17
23.93
20.06
14.88
8.96
3.07
-1.99
-5.62
-7.64
-8.41
-8.58
-8.85
-9.63
-10.91
-12.30
-13.31
-13.52
-12.76
-11.14
-8.97
-6.76
-5.00
-4.12
-4.27
-5.25
-6.57
-7.59
-7.72
-6.64
-4.26
-0.73
3.65
8.44
13.04
16.70
18.61
18.14
15.09
9.89
3.56
-2.59
-7.39
-10.24
-11.20
-10.90
-10.11
-9.38
-8.84
-8.31
-7.49
-6.26
-4.70
-3.00
-1.39
-0.01
1.08
1.80
2.06
1.89
1.38
0.81
0.54
0.90
2.08
4.07
6.67
9.54
12.24
14.39
15.72
16.12
15.67
14.50
12.77
10.58
8.01
5.20
2.42
0.14
-1.16
-1.03
0.75
4.08
8.57
13.59
18.44
22.48
25.22
26.30
25.44
22.45
17.32
10.30
2.01
-6.66
-14.78
-21.63
-26.90
-30.62
-33.01
-34.22
-34.19
-32.79
-29.94
-25.86
-21.02
-16.05
-11.58
-8.04
-5.66
-4.51
-4.50
-5.40
-6.76
-8.01
-8.54
-7.89
-5.94
-3.01
0.29
3.32
5.62
7.12
8.06
8.76
9.49
10.22
10.77
10.91
10.48
9.52
8.19
6.68
5.09
3.40
1.54
-0.50
-2.59
-4.47
-5.88
-6.64
-6.80
-6.64
-6.48
-6.65
-7.28
-8.34
-9.69
-11.17
-12.60
-13.83
-14.72
-15.15
-15.06
-14.46
-13.43
-12.00
-10.21
-8.12
-5.90
-3.83
-2.26
-1.45
-1.44
-2.07
-3.00
-3.95
-4.77
-5.46
-6.10
-6.81
-7.59
-8.36
-8.92
-9.06
-8.58
-7.33
-5.32
-2.63
0.56
3.98
7.40
10.63
13.50
15.81
17.37
18.01
17.71
16.63
15.17
13.78
12.88
12.64
12.99
13.66
14.32
14.71
14.67
14.19
13.27
11.99
10.43
8.65
6.79
4.95
3.21
1.62
0.19
-1.12
-2.35
-3.52
-4.62
-5.56
-6.18
-6.29
-5.78
-4.69
-3.16
-1.43
0.33
2.02
3.58
4.98
6.09
6.79
6.93
6.48
5.52
4.29
3.06
2.07
1.44
1.13
0.94
0.63
0.03
-0.92
-2.08
-3.22
-4.21
-5.05
-5.86
-6.83
-8.04
-9.44
-10.84
-12.02
-12.79
-13.01
-12.53
-11.27
-9.16
-6.33
-3.06
0.27
3.36
6.02
8.28
10.25
11.98
13.35
14.13
14.12
13.25
11.70
9.82
8.01
6.51
5.44
4.73
4.27
3.92
3.56
3.13
2.61
1.98
1.29
0.56
-0.19
-0.97
-1.86
-2.93
-4.20
-5.58
-6.89
-7.86
-8.23
-7.79
-6.44
-4.27
-1.48
1.62
4.67
7.35
9.45
10.87
11.65
11.88
11.69
11.18
10.46
9.64
8.85
8.24
7.86
7.67
7.56
7.32
6.85
6.10
5.13
4.06
2.99
1.97
1.03
0.19
-0.53
-1.15
-1.73
-2.40
-3.25
-4.33
-5.54
-6.63
-7.30
-7.28
-6.50
-5.05
-3.17
-1.09
1.00
2.99
4.77
6.20
7.06
7.17
6.46
5.07
3.28
1.41
-0.28
-1.56
-2.28
-2.30
-1.53
-0.00
2.08
4.35
6.43
8.01
9.00
9.40
9.28
8.65
7.46
5.66
3.30
0.54
-2.31
-4.96
-7.11
-8.60
-9.35
-9.36
-8.68
-7.36
-5.45
-3.08
-0.43
2.27
4.74
6.82
8.41
9.61
10.54
11.28
11.82
12.05
11.85
11.20
10.16
8.92
7.66
6.49
5.43
4.47
3.62
2.98
2.65
2.69
3.07
3.64
4.18
4.43
4.17
3.24
1.54
-0.85
-3.70
-6.58
-9.02
-10.63
-11.27
-11.03
-10.17
-8.97
-7.59
-6.12
-4.59
-2.99
-1.34
0.44
2.44
4.77
7.40
10.11
12.50
14.14
14.82
14.59
13.77
12.80
11.98
11.42
11.05
10.66
10.08
9.23
8.12
6.81
5.32
3.57
1.51
-0.91
-3.53
-6.01
-7.90
-8.83
-8.67
-7.57
-5.97
-4.39
-3.26
-2.75
-2.78
-3.18
-3.71
-4.26
-4.79
-5.30
-5.81
-6.32
-6.81
-7.30
-7.83
-8.40
-9.02
-9.64
-10.18
-10.59
-10.86
-11.02
-11.08
-11.09
-11.04
-10.96
-10.93
-11.04
-11.38
-11.98
-12.74
-13.51
-14.12
-14.43
-14.37
-13.88
-12.88
-11.30
-9.07
-6.26
-3.04
0.28
3.40
6.07
8.15
9.59
10.46
10.82
10.77
10.46
10.04
9.66
9.44
9.39
9.46
9.55
9.54
9.34
8.87
8.09
6.98
5.59
4.01
2.37
0.76
-0.78
-2.29
-3.87
-5.57
-7.38
-9.15
-10.68
-11.75
-12.17
-11.85
-10.71
-8.75
-6.04
-2.80
0.67
4.00
6.86
9.02
10.39
11.01
10.99
10.52
9.84
9.18
8.75
8.59
8.64
8.69
8.54
8.08
7.37
6.57
5.86
5.32
4.85
4.32
3.58
2.56
1.27
-0.25
-1.96
-3.82
-5.70
-7.41
-8.68
-9.27
-9.09
-8.21
-6.83
-5.12
-3.17
-0.93
1.61
4.38
7.10
9.43
11.09
11.93
12.02
11.56
10.79
9.86
8.89
7.96
7.11
6.41
5.86
5.43
5.02
4.56
4.01
3.46
3.03
2.88
3.06
3.45
3.77
3.65
2.84
1.31
-0.70
-2.70
-4.19
-4.87
-4.70
-3.84
-2.55
-1.02
0.73
2.71
4.91
7.18
9.28
10.88
11.77
11.89
11.33
10.31
9.02
7.63
6.24
4.89
3.61
2.44
1.42
0.52
-0.33
-1.28
-2.44
-3.78
-5.14
-6.20
-6.68
-6.46
-5.74
-4.93
-4.53
-4.84
-5.83
-7.13
-8.22
-8.63
-8.14
-6.85
-5.03
-2.96
-0.83
1.33
3.54
5.78
7.89
9.60
10.65
10.93
10.56
9.82
9.07
8.56
8.38
8.46
8.68
8.91
9.12
9.31
9.51
9.67
9.69
9.45
8.84
7.81
6.44
4.89
3.34
1.97
0.82
-0.21
-1.29
-2.55
-4.00
-5.45
-6.58
-7.11
-6.84
-5.78
-4.10
-2.06
0.02
1.88
3.34
4.28
4.71
4.73
4.45
4.00
3.48
2.94
2.42
1.95
1.54
1.22
0.97
0.73
0.47
0.11
-0.40
-1.07
-1.91
-2.84
-3.77
-4.58
-5.22
-5.70
-6.14
-6.67
-7.36
-8.19
-9.02
-9.69
-10.06
-10.05
-9.64
-8.78
-7.45
-5.63
-3.41
-0.99
1.39
3.45
5.04
6.11
6.72
6.94
6.83
6.47
5.95
5.39
4.91
4.59
4.36
4.12
3.70
3.02
2.10
1.07
0.08
-0.74
-1.33
-1.69
-1.90
-2.02
-2.14
-2.33
-2.68
-3.21
-3.94
-4.79
-5.70
-6.65
-7.66
-8.74
-9.77
-10.52
-10.64
-9.86
-8.13
-5.68
-2.96
-0.42
1.67
3.30
4.56
5.55
6.20
6.42
6.15
5.52
4.82
4.28
4.00
3.85
3.59
3.07
2.34
1.70
1.52
2.06
3.28
4.92
6.53
7.68
8.02
7.42
5.94
3.78
1.25
-1.35
-3.77
-5.82
-7.30
-8.06
-7.91
-6.81
-4.82
-2.16
0.89
4.04
7.04
9.74
12.03
13.88
15.29
16.28
16.84
16.91
16.44
15.38
13.77
11.75
9.56
7.46
5.63
4.16
3.00
2.08
1.28
0.53
-0.21
-0.96
-1.75
-2.67
-3.84
-5.43
-7.52
-10.08
-12.88
-15.57
-17.82
-19.38
-20.19
-20.34
-19.98
-19.18
-17.94
-16.21
-14.03
-11.51
-8.89
-6.39
-4.21
-2.41
-0.93
0.37
1.65
3.07
4.72
6.65
8.84
11.16
13.41
15.34
16.72
17.37
17.25
16.38
14.89
12.93
10.68
8.30
5.93
3.63
1.42
-0.77
-3.03
-5.43
-7.97
-10.51
-12.85
-14.77
-16.09
-16.67
-16.49
-15.58
-14.09
-12.24
-10.28
-8.43
-6.78
-5.29
-3.87
-2.47
-1.13
-0.02
0.77
1.22
1.51
1.91
2.61
3.62
4.78
5.89
6.81
7.54
8.21
8.93
9.73
10.46
10.90
10.82
10.13
8.85
7.12
5.10
2.86
0.32
-2.68
-6.27
-10.38
-14.68
-18.63
-21.55
-22.96
-22.66
-20.81
-17.88
-14.44
-10.99
-7.82
-5.07
-2.76
-0.96
0.29
0.89
0.82
0.15
-0.92
-2.10
-3.12
-3.77
-4.03
-4.06
-4.16
-4.64
-5.68
-7.23
-9.05
-10.73
-11.93
-12.45
-12.38
-11.95
-11.48
-11.22
-11.22
-11.39
-11.53
-11.41
-10.85
-9.72
-8.00
-5.75
-3.14
-0.40
2.21
4.50
6.37
7.82
8.87
9.61
10.05
10.25
10.25
10.12
9.94
9.77
9.65
9.58
9.59
9.71
10.00
10.42
10.87
11.18
11.20
10.83
10.12
9.17
8.11
6.99
5.79
4.50
3.18
1.92
0.86
0.09
-0.38
-0.61
-0.68
-0.60
-0.32
0.25
1.08
2.06
3.03
3.84
4.46
4.90
5.18
5.25
5.06
4.55
3.82
3.03
2.33
1.76
1.23
0.62
-0.13
-0.98
-1.85
-2.66
-3.46
-4.32
-5.34
-6.54
-7.91
-9.43
-11.15
-13.16
-15.44
-17.80
-19.86
-21.19
-21.45
-20.52
-18.52
-15.72
-12.44
-9.03
-5.80
-3.00
-0.76
0.93
2.23
3.34
4.46
5.66
6.88
7.98
8.86
9.50
9.96
10.32
10.61
10.81
10.85
10.72
10.47
10.25
10.14
10.15
10.13
9.83
8.99
7.52
5.47
3.10
0.71
-1.46
-3.23
-4.58
-5.53
-6.12
-6.35
-6.24
-5.77
-4.91
-3.69
-2.22
-0.65
0.83
2.08
3.04
3.69
4.01
3.93
3.35
2.29
0.95
-0.28
-0.97
-0.83
0.10
1.48
2.84
3.74
4.00
3.67
2.96
2.09
1.18
0.25
-0.70
-1.69
-2.71
-3.70
-4.65
-5.58
-6.52
-7.53
-8.61
-9.65
-10.47
-10.81
-10.46
-9.36
-7.63
-5.51
-3.31
-1.24
0.60
2.22
3.61
4.70
5.30
5.28
4.64
3.55
2.39
1.50
1.08
1.11
1.39
1.64
1.67
1.42
0.93
0.26
-0.50
-1.34
-2.19
-2.97
-3.58
-3.96
-4.13
-4.21
-4.42
-4.92
-5.81
-6.99
-8.27
-9.34
-9.87
-9.56
-8.26
-5.91
-2.65
1.19
5.11
8.55
11.05
12.37
12.53
11.74
10.30
8.47
6.46
4.44
2.62
1.26
0.59
0.71
1.55
2.89
4.45
5.97
7.21
7.98
8.13
7.54
6.23
4.37
2.26
0.20
-1.60
-3.09
-4.36
-5.55
-6.68
-7.69
-8.37
-8.50
-7.92
-6.60
-4.64
-2.27
0.26
2.67
4.78
6.51
7.89
9.00
9.91
10.60
11.00
11.00
10.58
9.84
8.96
8.17
7.64
7.41
7.41
7.55
7.82
8.23
8.84
9.61
10.38
10.85
10.72
9.79
8.03
5.52
2.39
-1.20
-5.07
-8.94
-12.38
-14.87
-15.98
-15.57
-13.81
-11.15
-8.16
-5.32
-2.94
-1.15
0.05
0.68
0.78
0.39
-0.43
-1.54
-2.80
-4.00
-4.89
-5.27
-5.06
-4.41
-3.67
-3.26
-3.47
-4.31
-5.43
-6.35
-6.65
-6.20
-5.24
-4.23
-3.62
-3.66
-4.26
-5.17
-6.05
-6.73
-7.21
-7.62
-8.11
-8.73
-9.34
-9.66
-9.34
-8.16
-6.08
-3.31
-0.19
2.84
5.40
7.17
7.95
7.64
6.32
4.28
2.11
0.46
-0.03
0.93
3.20
6.21
9.22
11.58
12.95
13.33
12.94
12.05
10.84
9.34
7.46
5.15
2.41
-0.62
-3.71
-6.63
-9.23
-11.46
-13.42
-15.25
-17.02
-18.66
-19.96
-20.66
-20.57
-19.68
-18.15
-16.21
-14.03
-11.67
-9.12
-6.38
-3.61
-1.04
1.03
2.45
3.25
3.62
3.83
4.08
4.48
5.02
5.66
6.36
7.11
7.89
8.67
9.33
9.78
9.96
9.87
9.64
9.37
9.15
8.97
8.75
8.38
7.77
6.90
5.84
4.69
3.54
2.49
1.64
1.12
1.03
1.45
2.29
3.34
4.29
4.83
4.83
4.34
3.62
3.01
2.79
3.02
3.52
3.92
3.83
2.99
1.43
-0.59
-2.70
-4.57
-6.02
-7.05
-7.76
-8.18
-8.31
-8.12
-7.67
-7.13
-6.77
-6.82
-7.35
-8.25
-9.33
-10.35
-11.18
-11.76
-12.08
-12.15
-11.96
-11.51
-10.82
-9.91
-8.81
-7.50
-5.90
-3.90
-1.47
1.34
4.28
7.01
9.16
10.49
11.03
11.03
10.84
10.76
10.85
10.99
10.93
10.53
9.81
8.98
8.29
7.89
7.72
7.59
7.30
6.73
5.93
4.99
3.97
2.84
1.54
0.02
-1.62
-3.21
-4.52
-5.37
-5.63
-5.25
-4.25
-2.71
-0.80
1.23
3.08
4.51
5.39
5.75
5.77
5.62
5.40
5.09
4.60
3.87
2.98
2.16
1.73
1.96
2.85
4.13
5.33
5.94
5.70
4.67
3.19
1.68
0.44
-0.48
-1.32
-2.40
-4.01
-6.24
-8.93
-11.72
-14.19
-15.97
-16.88
-16.94
-16.31
-15.23
-13.86
-12.29
-10.51
-8.48
-6.22
-3.80
-1.43
0.63
2.12
2.79
2.45
0.97
-1.59
-4.89
-8.26
-10.85
-11.79
-10.55
-7.14
-2.12
3.57
9.00
13.38
16.21
17.10
15.73
11.91
5.75
-2.10
-10.51
-18.02
-23.26
-25.27
-23.64
-18.53
-10.62
-0.92
9.32
18.77
26.30
31.31
33.88
34.78
35.12
35.88
37.55
40.06
42.91
45.51
47.29
47.72
46.26
42.28
35.47
26.13
15.28
4.47
-4.78
-11.65
-16.27
-19.47
-22.13
-24.51
-26.16
-26.18
-23.97
-19.74
-14.53
-9.70
-6.27
-4.41
-3.51
-2.75
-1.71
-0.74
-0.86
-3.23
-8.50
-16.35
-25.42
-33.64
-38.85
-39.38
-34.48
-24.55
-10.94
4.52
19.97
34.03
45.96
55.63
63.25
69.03
73.07
75.40
76.13
75.56
74.23
72.64
71.14
69.68
67.85
65.14
61.16
55.99
50.18
44.50
39.55
35.41
31.57
27.30
22.09
16.06
10.00
5.00
1.92
1.06
2.06
4.10
6.26
7.70
7.78
6.09
2.43
-3.02
-9.78
-17.15
-24.41
-31.13
-37.16
-42.51
-47.14
-50.71
-52.75
-52.84
-50.84
-46.89
-41.29
-34.21
-25.71
-15.70
-4.28
8.15
20.78
32.60
42.67
50.38
55.52
58.12
58.38
56.53
52.90
47.99
42.47
37.00
31.96
27.10
21.58
14.20
3.90
-9.71
-26.19
-44.47
-63.27
-81.54
-98.61
-113.97
-127.08
-137.18
-143.54
-145.82
-144.44
-140.53
-135.58
-130.76
-126.56
-122.63
-118.24
-112.67
-105.70
-97.55
-88.74
-79.77
-70.92
-62.29
-53.91
-45.86
-38.24
-31.16
-24.56
-18.27
-12.05
-5.66
1.13
8.44
16.36
24.88
33.84
42.97
51.83
59.97
66.92
72.28
75.80
77.51
77.75
77.16
76.42
76.02
75.98
75.83
74.77
72.08
67.44
61.13
53.94
46.85
40.66
35.69
31.69
28.04
23.96
18.91
12.80
5.96
-1.02
-7.63
-13.62
-19.02
-23.97
-28.40
-32.04
-34.42
-35.16
-34.23
-32.01
-29.17
-26.40
-24.07
-22.15
-20.31
-18.18
-15.62
-12.84
-10.34
-8.61
-7.89
-7.99
-8.37
-8.45
-7.87
-6.69
-5.31
-4.24
-3.79
-3.99
-4.64
-5.45
-6.28
-7.09
-7.81
-8.24
-7.95
-6.51
-3.67
0.41
5.25
10.25
14.91
19.02
22.61
25.72
28.36
30.38
31.60
32.00
31.70
31.03
30.33
29.85
29.67
29.72
29.81
29.73
29.30
28.40
26.89
24.62
21.33
16.72
10.55
2.81
-6.15
-15.57
-24.52
-32.16
-38.02
-42.17
-45.08
-47.35
-49.41
-51.39
-53.17
-54.50
-55.20
-55.11
-54.15
-52.26
-49.53
-46.26
-42.92
-40.03
-37.89
-36.33
-34.81
-32.67
-29.48
-25.28
-20.60
-16.08
-12.24
-9.23
-6.92
-5.08
-3.63
-2.66
-2.30
-2.57
-3.23
-3.86
-4.06
-3.62
-2.66
-1.56
-0.79
-0.69
-1.33
-2.56
-4.05
-5.45
-6.52
-7.19
-7.53
-7.70
-7.95
-8.44
-9.31
-10.57
-12.17
-13.92
-15.58
-16.85
-17.44
-17.12
-15.80
-13.56
-10.64
-7.37
-4.12
-1.24
1.06
2.65
3.54
3.86
3.84
3.76
3.81
4.11
4.59
5.06
5.35
5.38
5.23
5.02
4.93
5.04
5.30
5.65
5.97
6.23
6.39
6.44
6.33
5.98
5.34
4.44
3.35
2.17
0.90
-0.50
-2.10
-3.86
-5.58
-6.93
-7.53
-7.12
-5.67
-3.38
-0.59
2.37
5.25
7.94
10.42
12.67
14.64
16.26
17.45
18.20
18.59
18.74
18.82
18.92
19.06
19.12
18.95
18.41
17.44
16.12
14.61
13.09
11.65
10.29
8.89
7.27
5.33
3.09
0.72
-1.59
-3.70
-5.61
-7.49
-9.57
-12.07
-15.11
-18.59
-22.23
-25.56
-28.10
-29.49
-29.66
-28.84
-27.58
-26.51
-26.12
-26.53
-27.43
-28.23
-28.24
-26.89
-23.97
-19.71
-14.84
-10.33
-7.03
-5.29
-4.62
-3.68
-0.80
5.34
15.01
27.07
39.34
49.42
55.43
56.56
53.30
47.22
40.48
35.25
33.07
34.47
39.08
45.44
51.39
54.96
55.23
52.70
49.18
46.78
47.12
51.06
57.89
65.57
71.77
74.78
74.15
70.65
65.64
60.77
58.15
59.11
63.32
69.21
74.14
75.14
69.88
57.01
37.18
13.67
-9.64
-30.23
-47.45
-62.57
-77.91
-92.25
-103.29
-113.36
-122.62
-128.44
-130.38
-129.72
-128.62
-128.91
-131.34
-135.76
-141.08
-144.78
-144.38
-138.35
-125.76
-106.74
-82.66
-55.89
-29.73
-7.23
10.08
21.62
27.19
27.17
22.42
14.26
4.47
-5.24
-13.44
-19.02
-21.91
-23.08
-23.51
-23.44
-21.95
-17.08
-6.91
9.50
31.56
56.70
81.04
100.79
113.43
118.29
116.40
109.71
100.60
91.50
84.72
82.18
85.03
92.93
103.80
114.10
119.99
118.74
109.71
94.51
76.15
57.81
41.67
28.54
18.12
9.69
2.68
-3.12
-7.68
-10.94
-13.09
-14.54
-15.68
-16.70
-17.57
-18.06
-18.02
-17.46
-16.59
-15.67
-14.90
-14.36
-14.03
-13.97
-14.34
-15.43
-17.52
-20.72
-24.91
-29.66
-34.29
-37.97
-39.92
-39.58
-36.74
-31.66
-25.09
-18.21
-12.35
-8.70
-7.83
-9.48
-12.59
-15.69
-17.53
-17.59
-16.23
-14.43
-13.15
-12.84
-13.32
-14.01
-14.44
-14.54
-14.73
-15.66
-17.75
-21.03
-25.07
-29.17
-32.60
-34.83
-35.65
-35.15
-33.62
-31.39
-28.69
-25.57
-21.97
-17.88
-13.51
-9.33
-5.98
-3.94
-3.32
-3.71
-4.27
-4.06
-2.45
0.63
4.67
8.76
11.91
13.36
12.82
10.47
6.93
3.05
-0.34
-2.69
-3.86
-4.14
-4.10
-4.27
-4.89
-5.86
-6.83
-7.43
-7.53
-7.29
-7.05
-7.17
-7.83
-8.97
-10.40
-11.83
-12.98
-13.64
-13.61
-12.77
-11.05
-8.54
-5.44
-2.06
1.20
4.01
6.13
7.51
8.26
8.68
9.08
9.73
10.71
11.89
13.01
13.75
13.88
13.26
11.88
9.82
7.31
4.63
2.17
0.26
-0.89
-1.41
-1.70
-2.30
-3.68
-5.96
-8.83
-11.64
-13.64
-14.26
-13.28
-10.89
-7.54
-3.80
-0.12
3.22
6.05
8.34
10.05
11.15
11.65
11.63
11.19
10.48
9.63
8.73
7.81
6.93
6.15
5.55
5.13
4.84
4.53
4.06
3.37
2.57
1.83
1.33
1.09
0.99
0.73
0.06
-1.15
-2.79
-4.58
-6.19
-7.33
-7.87
-7.78
-7.06
-5.70
-3.67
-0.99
2.20
5.58
8.74
11.27
12.87
13.41
13.01
11.92
10.49
9.09
8.00
7.46
7.52
8.11
8.97
9.83
10.41
10.55
10.27
9.66
8.83
7.83
6.64
5.19
3.47
1.56
-0.39
-2.23
-3.90
-5.41
-6.81
-8.13
-9.25
-9.95
-9.97
-9.16
-7.55
-5.35
-2.86
-0.36
2.00
4.15
6.06
7.62
8.68
9.11
8.89
8.13
7.05
5.87
4.76
3.80
3.07
2.63
2.53
2.79
3.34
4.04
4.79
5.51
6.18
6.80
7.33
7.68
7.81
7.68
7.32
6.71
5.86
4.73
3.41
2.13
1.30
1.35
2.54
4.86
7.99
11.37
14.44
16.80
18.28
19.00
19.20
19.17
19.14
19.19
19.31
19.39
19.32
19.07
18.70
18.39
18.38
18.97
20.38
22.61
25.33
27.80
29.05
28.10
24.48
18.46
11.10
3.88
-1.83
-5.25
-6.48
-6.33
-5.82
-5.73
-6.24
-6.95
-7.19
-6.43
-4.57
-2.01
0.61
2.69
3.93
4.41
4.39
4.11
3.59
2.61
0.82
-2.02
-5.87
-10.48
-15.45
-20.43
-25.15
-29.41
-32.91
-35.28
-36.15
-35.32
-32.93
-29.47
-25.58
-21.83
-18.44
-15.35
-12.36
-9.37
-6.54
-4.19
-2.55
-1.57
-0.84
0.20
1.96
4.50
7.52
10.56
13.25
15.46
17.26
18.78
20.05
20.90
21.09
20.39
18.72
16.22
13.18
10.06
7.34
5.40
4.40
4.18
4.34
4.38
3.95
2.97
1.65
0.35
-0.70
-1.48
-2.19
-3.08
-4.26
-5.62
-6.89
-7.86
-8.47
-8.81
-9.06
-9.27
-9.32
-8.94
-7.87
-6.09
-3.84
-1.50
0.53
2.05
3.09
3.85
4.59
5.41
6.25
6.88
7.07
6.66
5.69
4.40
3.14
2.24
1.86
1.97
2.34
2.71
2.89
2.88
2.82
2.92
3.31
3.97
4.76
5.45
5.81
5.72
5.16
4.17
2.85
1.36
-0.04
-1.08
-1.44
-0.92
0.51
2.64
5.15
7.59
9.61
11.01
11.76
12.01
11.94
11.65
11.13
10.31
9.15
7.74
6.29
5.07
4.23
3.76
3.47
3.13
2.60
1.83
0.87
-0.24
-1.50
-2.90
-4.43
-5.92
-7.24
-8.29
-9.15
-10.01
-11.17
-12.82
-14.98
-17.38
-19.58
-21.09
-21.58
-20.91
-19.18
-16.62
-13.54
-10.22
-6.89
-3.73
-0.93
1.37
3.01
3.91
4.08
3.67
2.93
2.15
1.64
1.59
2.03
2.83
3.73
4.49
4.92
4.99
4.77
4.40
4.05
3.83
3.80
3.90
4.01
3.92
3.42
2.31
0.51
-1.89
-4.65
-7.40
-9.74
-11.30
-11.83
-11.23
-9.61
-7.21
-4.33
-1.28
1.69
4.41
6.81
8.82
10.40
11.50
12.14
12.39
12.38
12.23
12.03
11.81
11.54
11.17
10.65
9.94
9.02
7.89
6.61
5.29
4.07
3.06
2.22
1.36
0.27
-1.25
-3.21
-5.46
-7.74
-9.83
-11.57
-12.90
-13.74
-14.05
-13.76
-12.85
-11.39
-9.53
-7.48
-5.42
-3.47
-1.70
-0.15
1.15
2.18
2.87
3.21
3.18
2.88
2.48
2.23
2.30
2.79
3.63
4.61
5.50
6.11
6.40
6.42
6.27
6.05
5.78
5.43
4.91
4.14
3.04
1.58
-0.24
-2.30
-4.40
-6.20
-7.32
-7.44
-6.38
-4.25
-1.39
1.73
4.64
7.03
8.80
9.97
10.61
10.82
10.64
10.20
9.66
9.19
8.85
8.58
8.22
7.58
6.64
5.52
4.41
3.48
2.73
2.03
1.16
-0.01
-1.41
-2.86
-4.16
-5.24
-6.20
-7.27
-8.66
-10.43
-12.42
-14.27
-15.58
-15.96
-15.21
-13.29
-10.39
-6.85
-3.14
0.31
3.15
5.19
6.43
7.01
7.15
7.02
6.76
6.50
6.33
6.35
6.58
6.95
7.32
7.49
7.30
6.70
5.74
4.62
3.56
2.74
2.21
1.88
1.58
1.08
0.23
-1.01
-2.58
-4.34
-6.15
-7.87
-9.35
-10.40
-10.84
-10.47
-9.25
-7.25
-4.69
-1.85
1.00
3.68
6.05
7.97
9.36
10.13
10.26
9.85
9.06
8.11
7.20
6.44
5.85
5.38
4.95
4.49
3.95
3.31
2.60
1.84
1.06
0.25
-0.60
-1.51
-2.47
-3.47
-4.51
-5.61
-6.85
-8.34
-10.10
-12.06
-13.96
-15.40
-15.98
-15.49
-13.97
-11.72
-9.15
-6.57
-4.13
-1.81
0.47
2.69
4.72
6.36
7.41
7.79
7.56
6.85
5.86
4.81
3.90
3.30
3.09
3.26
3.70
4.21
4.61
4.78
4.67
4.32
3.81
3.18
2.40
1.42
0.17
-1.40
-3.24
-5.25
-7.28
-9.20
-10.86
-12.11
-12.78
-12.71
-11.84
-10.16
-7.90
-5.29
-2.66
-0.25
1.80
3.38
4.47
5.06
5.22
5.07
4.81
4.62
4.62
4.85
5.24
5.72
6.22
6.71
7.19
7.63
7.97
8.13
8.08
7.85
7.52
7.13
6.67
6.04
5.11
3.78
2.04
-0.00
-2.14
-4.08
-5.58
-6.37
-6.35
-5.51
-4.01
-2.12
-0.13
1.72
3.31
4.62
5.68
6.54
7.22
7.67
7.85
7.68
7.16
6.34
5.35
4.37
3.52
2.86
2.33
1.81
1.15
0.27
-0.79
-1.90
-2.89
-3.59
-3.93
-3.98
-3.90
-3.90
-4.19
-4.93
-6.20
-7.92
-9.96
-12.01
-13.72
-14.74
-14.87
-14.07
-12.50
-10.44
-8.21
-6.04
-4.10
-2.48
-1.29
-0.59
-0.47
-0.91
-1.82
-3.00
-4.25
-5.41
-6.35
-6.97
-7.16
-6.78
-5.68
-3.84
-1.38
1.41
4.10
6.32
7.77
8.41
8.34
7.77
6.91
5.84
4.57
3.09
1.42
-0.33
-1.96
-3.26
-4.04
-4.24
-3.90
-3.16
-2.17
-1.06
0.08
1.20
2.20
2.94
3.34
3.41
3.29
3.27
3.61
4.44
5.72
7.29
8.95
10.55
12.01
13.26
14.19
14.68
14.64
14.03
12.90
11.32
9.32
6.94
4.24
1.41
-1.28
-3.57
-5.40
-6.92
-8.47
-10.31
-12.53
-14.92
-17.12
-18.74
-19.57
-19.57
-18.90
-17.73
-16.20
-14.39
-12.41
-10.39
-8.49
-6.88
-5.62
-4.71
-4.06
-3.57
-3.14
-2.71
-2.18
-1.44
-0.38
1.05
2.80
4.74
6.67
8.46
10.02
11.32
12.35
13.06
13.41
13.40
13.08
12.56
11.88
11.02
9.84
8.28
6.43
4.57
3.05
2.12
1.78
1.82
1.93
1.87
1.63
1.27
0.84
0.25
-0.71
-2.25
-4.38
-6.92
-9.56
-12.02
-14.12
-15.77
-16.96
-17.63
-17.73
-17.24
-16.25
-14.96
-13.60
-12.32
-11.14
-10.03
-8.97
-7.97
-7.08
-6.33
-5.65
-4.92
-4.08
-3.12
-2.17
-1.30
-0.50
0.37
1.50
3.02
4.91
6.96
8.94
10.62
11.96
12.98
13.75
14.33
14.68
14.72
14.38
13.63
12.56
11.37
10.31
9.58
9.30
9.42
9.76
10.09
10.22
10.00
9.38
8.39
7.11
5.71
4.38
3.28
2.49
1.96
1.55
1.13
0.68
0.31
0.13
0.21
0.43
0.55
0.27
-0.61
-2.16
-4.31
-6.91
-9.73
-12.54
-15.03
-16.91
-17.92
-17.97
-17.09
-15.45
-13.27
-10.77
-8.12
-5.48
-3.00
-0.83
0.94
2.27
3.21
3.89
4.51
5.28
6.37
7.87
9.76
11.93
14.19
16.38
18.48
20.54
22.63
24.71
26.50
27.54
27.34
25.55
22.10
17.21
11.26
4.68
-2.16
-8.92
-15.21
-20.57
-24.54
-26.76
-27.10
-25.75
-23.17
-19.90
-16.44
-13.13
-10.14
-7.46
-5.09
-3.03
-1.41
-0.36
0.04
-0.17
-0.80
-1.65
-2.57
-3.51
-4.51
-5.60
-6.70
-7.71
-8.52
-9.12
-9.59
-10.04
-10.47
-10.84
-11.03
-11.03
-10.92
-10.86
-11.03
-11.50
-12.25
-13.14
-13.98
-14.54
-14.57
-13.87
-12.31
-9.93
-6.97
-3.86
-1.00
1.34
3.18
4.71
6.11
7.36
8.23
8.45
7.87
6.69
5.34
4.28
3.80
3.85
4.12
4.20
3.83
2.97
1.76
0.44
-0.75
-1.68
-2.30
-2.70
-2.98
-3.29
-3.70
-4.28
-5.04
-5.99
-7.10
-8.28
-9.32
-9.94
-9.88
-9.04
-7.52
-5.60
-3.53
-1.49
0.51
2.49
4.45
6.26
7.72
8.69
9.13
9.13
8.85
8.43
8.01
7.67
7.49
7.48
7.60
7.72
7.65
7.27
6.52
5.47
4.23
2.96
1.78
0.76
-0.10
-0.86
-1.61
-2.47
-3.54
-4.81
-6.12
-7.28
-8.02
-8.19
-7.72
-6.66
-5.16
-3.39
-1.54
0.30
2.03
3.64
5.06
6.23
7.05
7.44
7.42
7.10
6.68
6.34
6.19
6.22
6.36
6.50
6.59
6.59
6.49
6.25
5.86
5.31
4.63
3.85
2.95
1.88
0.53
-1.15
-3.17
-5.41
-7.64
-9.64
-11.19
-12.10
-12.30
-11.76
-10.55
-8.83
-6.81
-4.74
-2.85
-1.34
-0.29
0.31
0.60
0.79
1.10
1.70
2.58
3.57
4.45
4.96
4.99
4.59
3.94
3.25
2.71
2.44
2.44
2.61
2.76
2.69
2.27
1.47
0.33
-1.01
-2.40
-3.77
-5.08
-6.34
-7.53
-8.62
-9.50
-10.04
-10.10
-9.55
-8.32
-6.47
-4.19
-1.78
0.45
2.30
3.71
4.74
5.53
6.15
6.61
6.84
6.76
6.37
5.73
5.01
4.42
4.13
4.23
4.64
5.19
5.61
5.74
5.49
4.93
4.17
3.31
2.36
1.29
0.06
-1.36
-2.91
-4.53
-6.10
-7.56
-8.85
-9.88
-10.59
-10.88
-10.69
-10.00
-8.86
-7.41
-5.77
-4.06
-2.38
-0.73
0.91
2.55
4.12
5.48
6.43
6.81
6.60
5.95
5.12
4.38
3.87
3.61
3.49
3.39
3.25
3.06
2.83
2.52
2.10
1.48
0.70
-0.17
-1.01
-1.72
-2.33
-2.95
-3.69
-4.61
-5.67
-6.65
-7.37
-7.64
-7.40
-6.62
-5.38
-3.71
-1.73
0.42
2.52
4.31
5.58
6.27
6.46
6.39
6.31
6.32
6.39
6.39
6.21
5.84
5.45
5.29
5.56
6.36
7.53
8.81
9.92
10.68
11.12
11.37
11.55
11.72
11.77
11.58
11.07
10.27
9.28
8.19
7.06
5.89
4.70
3.61
2.85
2.62
3.08
4.21
5.84
7.69
9.43
10.81
11.64
11.87
11.55
10.82
9.81
8.67
7.50
6.34
5.22
4.13
3.07
2.00
0.93
-0.17
-1.29
-2.50
-3.84
-5.36
-7.09
-8.92
-10.68
-12.13
-13.10
-13.57
-13.72
-13.89
-14.36
-15.24
-16.37
-17.37
-17.81
-17.40
-16.09
-14.05
-11.58
-8.96
-6.39
-4.01
-1.94
-0.28
0.91
1.59
1.83
1.76
1.50
1.16
0.83
0.56
0.45
0.52
0.77
1.10
1.34
1.37
1.14
0.71
0.24
-0.13
-0.34
-0.41
-0.45
-0.60
-0.98
-1.70
-2.83
-4.38
-6.27
-8.30
-10.11
-11.36
-11.75
-11.18
-9.77
-7.77
-5.48
-3.16
-0.98
1.00
2.73
4.18
5.33
6.16
6.66
6.87
6.79
6.45
5.89
5.18
4.45
3.86
3.54
3.50
3.63
3.66
3.37
2.61
1.43
0.02
-1.39
-2.62
-3.68
-4.65
-5.63
-6.68
-7.72
-8.71
-9.61
-10.47
-11.34
-12.16
-12.70
-12.71
-11.96
-10.47
-8.46
-6.32
-4.39
-2.81
-1.56
-0.45
0.67
1.83
2.96
3.93
4.62
5.03
5.18
5.08
4.76
4.22
3.54
2.85
2.32
2.06
2.09
2.26
2.34
2.10
1.43
0.38
-0.88
-2.15
-3.35
-4.50
-5.69
-6.99
-8.34
-9.58
-10.51
-11.00
-11.06
-10.78
-10.33
-9.76
-9.07
-8.18
-7.07
-5.78
-4.46
-3.26
-2.33
-1.73
-1.43
-1.35
-1.34
-1.30
-1.14
-0.89
-0.65
-0.57
-0.75
-1.28
-2.09
-3.08
-4.08
-4.98
-5.76
-6.45
-7.13
-7.87
-8.69
-9.54
-10.38
-11.24
-12.19
-13.31
-14.57
-15.76
-16.59
-16.72
-16.02
-14.62
-12.84
-11.09
-9.58
-8.30
-7.03
-5.61
-4.00
-2.43
-1.25
-0.73
-0.91
-1.60
-2.51
-3.41
-4.21
-4.96
-5.70
-6.38
-6.77
-6.61
-5.78
-4.37
-2.65
-0.94
0.52
1.66
2.53
3.18
3.65
3.92
3.94
3.67
3.08
2.23
1.26
0.44
0.06
0.42
1.63
3.62
6.11
8.74
11.17
13.16
14.62
15.52
15.85
15.69
15.16
14.41
13.60
12.84
12.13
11.45
10.77
10.11
9.49
8.93
8.38
7.79
7.14
6.43
5.71
4.99
4.20
3.31
2.26
1.07
-0.22
-1.57
-2.96
-4.36
-5.69
-6.82
-7.54
-7.68
-7.12
-5.90
-4.13
-1.98
0.38
2.83
5.27
7.62
9.83
11.83
13.56
14.91
15.81
16.24
16.23
15.90
15.40
14.91
14.51
14.22
13.93
13.51
12.86
11.97
10.92
9.88
8.99
8.29
7.77
7.33
6.87
6.26
5.39
4.14
2.38
0.08
-2.61
-5.38
-7.72
-9.20
-9.51
-8.63
-6.80
-4.41
-1.85
0.57
2.68
4.40
5.70
6.59
7.07
7.16
6.89
6.28
5.32
3.97
2.20
0.04
-2.36
-4.79
-7.03
-8.92
-10.48
-11.81
-13.06
-14.24
-15.21
-15.74
-15.62
-14.86
-13.67
-12.38
-11.32
-10.57
-10.07
-9.56
-8.83
-7.76
-6.34
-4.66
-2.78
-0.74
1.43
3.71
6.02
8.27
10.33
12.09
13.48
14.44
14.97
15.02
14.54
13.52
12.01
10.19
8.37
6.90
5.98
5.63
5.64
5.66
5.41
4.74
3.71
2.50
1.27
0.10
-1.07
-2.34
-3.83
-5.56
-7.47
-9.43
-11.21
-12.59
-13.33
-13.25
-12.24
-10.31
-7.59
-4.35
-0.92
2.32
5.01
6.91
7.93
8.07
7.49
6.45
5.23
4.12
3.37
3.07
3.21
3.64
4.11
4.40
4.37
4.02
3.43
2.79
2.19
1.70
1.25
0.73
0.02
-0.92
-2.07
-3.35
-4.67
-5.92
-6.97
-7.61
-7.64
-6.91
-5.38
-3.21
-0.74
1.69
3.80
5.46
6.69
7.49
7.82
7.61
6.77
5.36
3.56
1.65
-0.13
-1.62
-2.78
-3.63
-4.21
-4.57
-4.82
-5.09
-5.49
-6.04
-6.62
-7.06
-7.23
-7.19
-7.10
-7.22
-7.68
-8.49
-9.50
-10.52
-11.37
-11.93
-12.07
-11.66
-10.53
-8.63
-6.01
-2.88
0.49
3.79
6.79
9.32
11.29
12.65
13.38
13.47
12.99
12.07
10.85
9.48
8.15
7.02
6.21
5.79
5.70
5.77
5.80
5.63
5.21
4.62
3.99
3.39
2.78
2.01
0.89
-0.68
-2.63
-4.73
-6.66
-8.17
-9.15
-9.62
-9.72
-9.53
-9.06
-8.20
-6.82
-4.92
-2.58
-0.04
2.45
4.65
6.44
7.71
8.45
8.66
8.37
7.65
6.60
5.38
4.14
3.03
2.23
1.85
1.97
2.48
3.20
3.83
4.10
3.84
3.07
1.93
0.65
-0.61
-1.79
-2.94
-4.16
-5.55
-7.08
-8.67
-10.10
-11.10
-11.44
-10.93
-9.49
-7.20
-4.34
-1.30
1.51
3.69
5.08
5.66
5.58
5.05
4.29
3.49
2.82
2.41
2.33
2.49
2.76
2.92
2.79
2.31
1.52
0.56
-0.37
-1.15
-1.67
-1.91
-1.94
-1.94
-2.17
-2.85
-4.09
-5.81
-7.70
-9.37
-10.41
-10.56
-9.72
-8.01
-5.72
-3.26
-1.02
0.72
1.92
2.75
3.50
4.38
5.42
6.42
7.13
7.42
7.34
7.11
6.95
6.93
6.98
6.90
6.55
5.93
5.13
4.29
3.48
2.67
1.81
0.83
-0.26
-1.42
-2.56
-3.64
-4.64
-5.58
-6.51
-7.41
-8.20
-8.75
-8.90
-8.52
-7.54
-6.02
-4.02
-1.71
0.67
2.83
4.45
5.32
5.38
4.83
4.01
3.26
2.79
2.62
2.56
2.42
2.09
1.61
1.11
0.73
0.57
0.62
0.79
0.96
1.01
0.86
0.45
-0.24
-1.21
-2.41
-3.80
-5.30
-6.76
-7.94
-8.60
-8.59
-7.87
-6.57
-4.90
-3.06
-1.18
0.65
2.39
3.93
5.16
6.02
6.52
6.77
6.91
7.04
7.11
7.03
6.67
6.01
5.12
4.16
3.28
2.58
2.07
1.66
1.24
0.71
0.01
-0.83
-1.74
-2.64
-3.51
-4.37
-5.30
-6.38
-7.67
-9.19
-10.78
-12.23
-13.24
-13.55
-13.02
-11.68
-9.67
-7.23
-4.61
-1.94
0.64
3.06
5.12
6.61
7.29
7.07
6.10
4.73
3.39
2.43
1.97
1.94
2.12
2.35
2.50
2.58
2.58
2.51
2.38
2.14
1.82
1.40
0.87
0.20
-0.57
-1.39
-2.17
-2.88
-3.54
-4.28
-5.18
-6.26
-7.35
-8.22
-8.63
-8.42
-7.56
-6.12
-4.26
-2.23
-0.25
1.42
2.64
3.34
3.57
3.43
3.07
2.63
2.24
2.02
2.03
2.26
2.56
2.73
2.56
1.92
0.88
-0.38
-1.60
-2.61
-3.39
-4.04
-4.71
-5.48
-6.37
-7.24
-8.00
-8.63
-9.18
-9.78
-10.48
-11.19
-11.66
-11.54
-10.61
-8.86
-6.57
-4.22
-2.29
-1.08
-0.60
-0.63
-0.85
-1.04
-1.18
-1.41
-1.88
-2.60
-3.43
-4.17
-4.62
-4.69
-4.39
-3.79
-2.97
-2.03
-1.13
-0.40
0.04
0.12
-0.12
-0.64
-1.35
-2.27
-3.40
-4.73
-6.20
-7.68
-9.00
-9.94
-10.29
-9.83
-8.36
-5.85
-2.38
1.76
6.17
10.45
14.20
17.19
19.38
20.87
21.90
22.73
23.50
24.18
24.58
24.46
23.66
22.19
20.27
18.14
16.03
14.06
12.27
10.72
9.45
8.50
7.79
7.10
6.09
4.57
2.55
0.33
-1.61
-2.92
-3.50
-3.56
-3.50
-3.60
-3.86
-3.99
-3.53
-2.18
0.07
2.93
5.98
8.92
11.68
14.38
17.09
19.73
21.93
23.26
23.42
22.45
20.76
18.90
17.31
16.12
15.18
14.26
13.19
12.11
11.20
10.61
10.20
9.58
8.34
6.21
3.29
-0.02
-3.23
-5.97
-8.16
-9.91
-11.40
-12.67
-13.66
-14.21
-14.20
-13.66
-12.69
-11.48
-10.19
-8.93
-7.77
-6.69
-5.66
-4.65
-3.61
-2.61
-1.79
-1.39
-1.56
-2.40
-3.78
-5.44
-7.07
-8.46
-9.50
-10.22
-10.73
-11.10
-11.36
-11.47
-11.38
-11.05
-10.45
-9.68
-8.87
-8.24
-7.98
-8.17
-8.78
-9.66
-10.65
-11.61
-12.54
-13.48
-14.44
-15.31
-15.88
-15.89
-15.12
-13.52
-11.21
-8.50
-5.76
-3.31
-1.29
0.28
1.55
2.60
3.50
4.23
4.74
4.98
4.93
4.61
4.01
3.18
2.17
1.10
0.16
-0.47
-0.66
-0.45
0.01
0.47
0.71
0.65
0.37
0.08
0.05
0.45
1.31
2.50
3.80
5.05
6.15
7.14
8.09
9.04
9.96
10.80
11.58
12.34
13.21
14.22
15.23
15.92
15.88
14.85
12.86
10.26
7.61
5.46
4.14
3.70
3.96
4.53
4.98
4.87
3.83
1.68
-1.51
-5.34
-9.22
-12.50
-14.68
-15.54
-15.19
-14.03
-12.65
-11.59
-11.23
-11.66
-12.57
-13.47
-13.80
-13.21
-11.69
-9.55
-7.28
-5.35
-4.02
-3.32
-3.11
-3.15
-3.22
-3.20
-3.08
-2.92
-2.86
-3.04
-3.58
-4.48
-5.59
-6.66
-7.41
-7.67
-7.46
-7.01
-6.66
-6.70
-7.24
-8.16
-9.19
-10.05
-10.58
-10.86
-11.12
-11.62
-12.50
-13.76
-15.21
-16.66
-17.90
-18.85
-19.45
-19.67
-19.39
-18.51
-16.95
-14.78
-12.20
-9.48
-6.81
-4.21
-1.56
1.26
4.18
6.87
8.84
9.63
9.13
7.60
5.65
3.94
2.87
2.44
2.26
1.79
0.69
-1.11
-3.31
-5.52
-7.44
-9.01
-10.31
-11.52
-12.63
-13.46
-13.66
-12.91
-11.06
-8.26
-4.86
-1.24
2.29
5.60
8.64
11.31
13.39
14.60
14.72
13.75
11.95
9.80
7.73
6.00
4.65
3.57
2.66
1.93
1.50
1.47
1.94
2.91
4.36
6.20
8.21
10.02
11.19
11.33
10.35
8.52
6.38
4.50
3.25
2.63
2.30
1.73
0.49
-1.63
-4.33
-6.86
-8.15
-7.23
-3.69
1.99
8.47
13.90
16.68
16.01
12.15
6.26
-0.14
-5.65
-9.35
-10.90
-10.43
-8.39
-5.39
-2.10
0.90
3.15
4.41
4.61
3.88
2.47
0.77
-0.74
-1.61
-1.57
-0.64
0.82
2.26
3.08
2.88
1.54
-0.78
-3.72
-6.75
-9.30
-10.77
-10.65
-8.63
-4.76
0.50
6.45
12.34
17.63
22.06
25.59
28.29
30.16
31.06
30.81
29.33
26.71
23.25
19.40
15.59
12.12
9.12
6.55
4.30
2.27
0.40
-1.29
-2.78
-4.15
-5.61
-7.40
-9.71
-12.58
-15.81
-19.08
-21.95
-24.04
-25.13
-25.14
-24.18
-22.50
-20.44
-18.32
-16.39
-14.71
-13.19
-11.64
-9.89
-7.87
-5.71
-3.69
-2.06
-1.02
-0.59
-0.56
-0.59
-0.36
0.33
1.48
2.91
4.37
5.61
6.51
7.03
7.22
7.17
6.95
6.67
6.39
6.11
5.75
5.20
4.37
3.31
2.17
1.22
0.65
0.58
0.99
1.84
3.02
4.49
6.21
8.06
9.90
11.49
12.62
13.17
13.19
12.85
12.43
12.18
12.17
12.25
12.22
11.86
11.22
10.51
10.05
10.04
10.37
10.70
10.60
9.77
8.20
6.09
3.77
1.50
-0.63
-2.62
-4.52
-6.32
-7.90
-9.10
-9.75
-9.80
-9.32
-8.49
-7.49
-6.43
-5.30
-4.01
-2.51
-0.86
0.71
1.93
2.63
2.79
2.60
2.23
1.86
1.50
1.09
0.59
0.02
-0.56
-1.08
-1.53
-1.94
-2.35
-2.75
-3.06
-3.20
-3.16
-3.02
-2.95
-3.17
-3.83
-4.96
-6.50
-8.23
-9.83
-10.98
-11.38
-10.89
-9.54
-7.54
-5.16
-2.68
-0.28
1.94
3.95
5.67
7.02
7.92
8.37
8.40
8.13
7.66
7.04
6.28
5.38
4.36
3.28
2.21
1.15
0.05
-1.14
-2.46
-3.87
-5.27
-6.56
-7.70
-8.67
-9.49
-10.17
-10.76
-11.28
-11.77
-12.26
-12.75
-13.14
-13.30
-13.03
-12.16
-10.62
-8.44
-5.82
-3.04
-0.42
1.81
3.53
4.76
5.61
6.23
6.71
7.07
7.26
7.19
6.85
6.26
5.55
4.82
4.13
3.49
2.85
2.14
1.38
0.62
-0.11
-0.84
-1.66
-2.76
-4.22
-6.06
-8.11
-10.13
-11.91
-13.24
-14.04
-14.18
-13.57
-12.14
-9.89
-6.98
-3.66
-0.27
2.85
5.45
7.40
8.70
9.45
9.81
9.93
9.91
9.77
9.48
9.02
8.44
7.83
7.37
7.13
7.12
7.14
6.95
6.33
5.25
3.89
2.54
1.46
0.72
0.16
-0.49
-1.45
-2.76
-4.22
-5.54
-6.44
-6.78
-6.54
-5.80
-4.67
-3.24
-1.60
0.14
1.88
3.51
4.93
6.04
6.74
6.97
6.77
6.28
5.71
5.26
5.03
5.01
5.07
5.04
4.76
4.14
3.17
1.91
0.53
-0.80
-1.88
-2.67
-3.23
-3.75
-4.45
-5.43
-6.62
-7.82
-8.77
-9.22
-9.10
-8.44
-7.38
-6.04
-4.59
-3.15
-1.80
-0.58
0.51
1.52
2.52
3.50
4.36
4.93
5.07
4.70
3.83
2.54
0.92
-0.89
-2.72
-4.30
-5.39
-5.78
-5.49
-4.66
-3.59
-2.55
-1.68
-1.01
-0.49
-0.11
0.11
0.08
-0.24
-0.82
-1.57
-2.33
-2.98
-3.34
-3.27
-2.63
-1.37
0.45
2.65
4.90
6.83
8.08
8.39
7.72
6.24
4.34
2.49
1.11
0.46
0.61
1.42
2.65
4.04
5.40
6.59
7.55
8.26
8.68
8.76
8.46
7.79
6.83
5.80
5.01
4.79
5.42
6.94
9.23
12.01
15.00
18.02
21.06
24.25
27.69
31.42
35.37
39.46
43.52
47.42
50.92
53.67
55.22
55.08
52.94
48.72
42.59
34.91
26.04
16.29
5.97
-4.40
-14.04
-21.86
-26.88
-28.58
-27.23
-23.92
-20.20
-17.54
-16.86
-18.28
-21.31
-25.18
-29.19
-32.90
-36.05
-38.47
-39.88
-39.88
-38.10
-34.33
-28.65
-21.55
-13.85
-6.57
-0.66
3.20
4.82
4.50
2.86
0.63
-1.59
-3.46
-4.86
-5.79
-6.26
-6.25
-5.72
-4.70
-3.35
-1.92
-0.71
0.12
0.55
0.75
0.87
0.86
0.46
-0.71
-2.87
-5.86
-9.12
-11.91
-13.65
-14.20
-13.83
-13.02
-12.19
-11.46
-10.84
-10.33
-10.10
-10.43
-11.51
-13.25
-15.19
-16.66
-16.96
-15.66
-12.76
-8.78
-4.58
-1.04
1.24
2.20
2.28
2.26
2.84
4.42
6.95
10.06
13.27
16.14
18.36
19.76
20.28
19.93
18.78
16.97
14.57
11.58
7.93
3.56
-1.34
-6.31
-10.65
-13.70
-15.17
-15.32
-14.86
-14.64
-15.14
-16.21
-17.14
-17.04
-15.33
-12.09
-8.00
-4.07
-1.25
-0.11
-0.81
-3.18
-6.75
-10.81
-14.41
-16.49
-16.24
-13.45
-8.78
-3.56
0.64
2.75
2.65
1.12
-0.64
-1.63
-1.58
-0.91
-0.38
-0.50
-1.27
-2.28
-3.03
-3.33
-3.34
-3.48
-4.00
-4.81
-5.56
-5.81
-5.31
-4.10
-2.44
-0.52
1.59
4.08
7.24
11.28
16.15
21.38
26.11
29.22
29.66
26.84
20.96
13.04
4.68
-2.48
-7.27
-9.29
-8.86
-6.71
-3.64
-0.22
3.15
6.22
8.81
10.75
12.00
12.67
12.92
12.90
12.68
12.22
11.49
10.50
9.35
8.19
7.13
6.19
5.37
4.57
3.70
2.59
1.12
-0.79
-3.09
-5.56
-7.83
-9.55
-10.51
-10.72
-10.39
-9.84
-9.36
-9.10
-9.09
-9.22
-9.30
-9.12
-8.49
-7.32
-5.61
-3.48
-1.11
1.25
3.35
4.97
5.97
6.32
6.11
5.51
4.76
4.03
3.43
3.02
2.83
2.84
3.08
3.50
4.05
4.61
5.09
5.39
5.55
5.61
5.68
5.84
6.09
6.33
6.41
6.19
5.63
4.83
3.97
3.28
2.96
3.06
3.57
4.41
5.51
6.83
8.34
9.94
11.39
12.40
12.71
12.16
10.85
9.03
7.11
5.44
4.27
3.61
3.35
3.31
3.35
3.34
3.17
2.74
1.93
0.74
-0.70
-2.18
-3.52
-4.65
-5.72
-6.98
-8.60
-10.65
-12.94
-15.21
-17.21
-18.86
-20.15
-21.08
-21.60
-21.51
-20.60
-18.74
-15.99
-12.71
-9.38
-6.52
-4.43
-3.12
-2.31
-1.60
-0.68
0.55
1.95
3.25
4.31
5.19
6.11
7.36
9.08
11.15
13.27
15.02
16.07
16.29
15.75
14.65
13.20
11.49
9.54
7.30
4.81
2.20
-0.40
-2.90
-5.29
-7.62
-9.87
-11.83
-13.18
-13.61
-13.00
-11.49
-9.48
-7.40
-5.57
-4.10
-2.94
-2.01
-1.26
-0.67
-0.23
0.09
0.36
0.65
0.98
1.31
1.63
1.89
2.10
2.24
2.33
2.37
2.38
2.39
2.36
2.20
1.78
0.94
-0.41
-2.22
-4.31
-6.47
-8.52
-10.37
-12.01
-13.52
-14.90
-16.05
-16.77
-16.74
-15.72
-13.60
-10.52
-6.82
-2.93
0.73
3.88
6.40
8.28
9.60
10.49
11.12
11.71
12.41
13.26
14.14
14.84
15.14
14.98
14.42
13.57
12.54
11.34
9.97
8.49
7.11
6.07
5.50
5.28
4.99
4.12
2.33
-0.36
-3.56
-6.66
-9.13
-10.77
-11.67
-12.14
-12.47
-12.79
-13.11
-13.32
-13.37
-13.20
-12.76
-12.00
-10.86
-9.37
-7.72
-6.28
-5.53
-5.85
-7.36
-9.81
-12.61
-15.00
-16.24
-15.88
-13.81
-10.35
-6.12
-1.83
1.92
4.83
6.94
8.56
10.06
11.67
13.29
14.61
15.26
15.01
13.92
12.29
10.45
8.67
7.03
5.61
4.53
3.98
4.08
4.75
5.59
6.11
5.94
5.02
3.60
2.16
1.10
0.70
1.07
2.17
3.86
5.86
7.80
9.31
10.10
10.10
9.47
8.46
7.35
6.32
5.45
4.67
3.81
2.58
0.71
-1.95
-5.29
-8.93
-12.35
-15.01
-16.62
-17.10
-16.59
-15.34
-13.53
-11.29
-8.72
-5.90
-2.95
0.00
2.79
5.32
7.51
9.35
10.83
11.94
12.64
12.89
12.69
12.16
11.54
11.09
10.99
11.21
11.57
11.76
11.49
10.66
9.31
7.65
5.95
4.44
3.26
2.45
1.93
1.54
1.12
0.53
-0.24
-1.05
-1.60
-1.53
-0.65
1.02
3.20
5.45
7.41
8.88
9.83
10.30
10.28
9.67
8.34
6.25
3.52
0.41
-2.76
-5.81
-8.67
-11.37
-14.02
-16.62
-19.10
-21.28
-22.95
-24.02
-24.59
-24.89
-25.16
-25.48
-25.67
-25.45
-24.62
-23.27
-21.74
-20.45
-19.64
-19.21
-18.82
-18.14
-17.02
-15.55
-13.87
-12.00
-9.77
-6.90
-3.27
0.98
5.51
9.85
13.70
16.91
19.49
21.53
23.07
24.15
24.74
24.82
24.42
23.61
22.52
21.33
20.15
19.02
17.87
16.53
14.87
12.89
10.72
8.63
6.83
5.42
4.25
3.07
1.54
-0.56
-3.27
-6.41
-9.62
-12.47
-14.57
-15.73
-15.95
-15.46
-14.59
-13.68
-12.90
-12.29
-11.76
-11.18
-10.52
-9.86
-9.38
-9.26
-9.54
-10.03
-10.40
-10.22
-9.23
-7.40
-4.98
-2.35
0.16
2.37
4.23
5.78
7.00
7.82
8.10
7.72
6.68
5.09
3.11
0.91
-1.34
-3.52
-5.52
-7.18
-8.31
-8.65
-7.97
-6.16
-3.36
0.07
3.61
6.81
9.42
11.46
13.10
14.47
15.57
16.26
16.46
16.25
15.90
15.68
15.72
15.92
15.98
15.55
14.43
12.58
10.10
7.12
3.85
0.53
-2.48
-4.83
-6.27
-6.84
-6.84
-6.70
-6.84
-7.48
-8.64
-10.23
-12.08
-13.97
-15.61
-16.62
-16.64
-15.44
-13.07
-9.82
-6.23
-2.82
-0.04
1.84
2.72
2.62
1.76
0.42
-1.00
-2.17
-2.86
-3.00
-2.68
-2.05
-1.29
-0.52
0.14
0.62
0.84
0.77
0.40
-0.24
-1.06
-1.92
-2.71
-3.34
-3.83
-4.29
-4.87
-5.71
-6.84
-8.17
-9.54
-10.73
-11.52
-11.71
-11.16
-9.74
-7.45
-4.41
-0.85
2.93
6.67
10.19
13.40
16.28
18.78
20.80
22.23
23.01
23.18
22.93
22.51
22.15
21.92
21.78
21.48
20.77
19.49
17.57
15.15
12.38
9.46
6.53
3.67
0.97
-1.48
-3.65
-5.54
-7.24
-8.90
-10.60
-12.33
-13.94
-15.19
-15.87
-15.84
-15.10
-13.79
-12.12
-10.30
-8.49
-6.83
-5.48
-4.58
-4.27
-4.67
-5.74
-7.33
-9.10
-10.66
-11.64
-11.86
-11.35
-10.32
-9.09
-7.88
-6.83
-5.90
-5.00
-4.04
-2.98
-1.88
-0.83
0.05
0.72
1.16
1.48
1.76
2.11
2.52
2.90
3.09
3.01
2.69
2.31
2.11
2.33
3.02
4.10
5.38
6.70
8.05
9.48
11.03
12.60
13.89
14.56
14.38
13.37
11.85
10.26
8.98
8.22
7.91
7.89
7.89
7.69
7.14
6.17
4.79
3.11
1.28
-0.54
-2.29
-3.97
-5.63
-7.29
-8.92
-10.43
-11.79
-13.02
-14.08
-14.88
-15.16
-14.64
-13.17
-10.91
-8.19
-5.42
-2.83
-0.40
2.03
4.55
7.04
9.13
10.46
10.87
10.50
9.79
9.18
8.94
9.05
9.26
9.29
8.95
8.25
7.34
6.36
5.39
4.38
3.29
2.10
0.91
-0.16
-1.08
-1.97
-3.10
-4.73
-6.95
-9.54
-12.06
-14.01
-15.04
-15.11
-14.39
-13.17
-11.61
-9.72
-7.44
-4.79
-1.93
0.81
3.15
4.88
5.95
6.44
6.44
6.02
5.27
4.28
3.19
2.14
1.25
0.57
0.06
-0.27
-0.49
-0.65
-0.85
-1.16
-1.64
-2.22
-2.77
-3.10
-3.11
-2.85
-2.45
-2.15
-2.12
-2.46
-3.11
-3.92
-4.64
-5.01
-4.82
-3.85
-2.07
0.44
3.45
6.63
9.61
12.14
14.06
15.36
16.16
16.56
16.62
16.32
15.61
14.51
13.07
11.43
9.78
8.26
7.00
6.01
5.22
4.50
3.66
2.58
1.22
-0.36
-2.06
-3.76
-5.38
-6.84
-8.09
-9.09
-9.88
-10.65
-11.60
-12.96
-14.72
-16.67
-18.42
-19.58
-19.90
-19.34
-18.06
-16.27
-14.14
-11.84
-9.54
-7.45
-5.76
-4.53
-3.70
-3.05
-2.43
-1.84
-1.44
-1.41
-1.83
-2.50
-3.03
-3.08
-2.48
-1.49
-0.59
-0.31
-0.97
-2.52
-4.60
-6.71
-8.49
-9.81
-10.84
-11.95
-13.66
-16.43
-20.61
-26.21
-32.80
-39.57
-45.34
-48.93
-49.51
-46.95
-42.05
-36.23
-31.16
-28.05
-27.21
-27.87
-28.51
-27.48
-23.77
-17.36
-9.25
-0.99
6.03
11.04
14.00
15.42
15.96
16.14
16.22
16.25
16.28
16.44
16.82
17.44
18.06
18.29
17.83
16.65
15.13
13.92
13.56
14.32
16.00
18.12
20.22
22.09
23.89
26.20
29.91
36.20
46.32
61.06
80.03
101.17
120.95
135.27
140.92
136.67
123.60
104.17
81.11
56.62
32.38
10.09
-8.11
-19.97
-24.04
-20.54
-11.49
0.18
11.82
21.99
30.36
37.07
41.93
44.24
43.29
39.05
32.44
25.01
18.16
12.50
7.75
3.11
-2.10
-8.06
-14.34
-20.26
-25.19
-28.75
-30.80
-31.30
-30.39
-28.31
-25.60
-22.89
-20.89
-20.07
-20.52
-21.93
-23.68
-25.09
-25.63
-25.05
-23.41
-20.95
-18.03
-14.96
-11.95
-9.15
-6.70
-4.72
-3.33
-2.62
-2.60
-3.27
-4.62
-6.64
-9.25
-12.28
-15.45
-18.47
-21.12
-23.41
-25.52
-27.76
-30.39
-33.47
-36.88
-40.30
-43.33
-45.63
-46.95
-47.26
-46.65
-45.28
-43.33
-40.93
-38.18
-35.14
-31.90
-28.52
-25.10
-21.67
-18.25
-14.74
-10.99
-6.79
-1.98
3.43
9.27
15.13
20.63
25.51
29.96
34.67
40.70
49.11
60.58
74.91
90.94
106.69
119.82
128.36
131.19
128.33
120.68
109.62
96.54
82.50
68.25
54.39
41.46
29.99
20.44
13.04
7.84
4.65
3.15
2.95
3.61
4.72
5.96
7.10
8.07
8.93
9.73
10.53
11.33
12.04
12.61
12.97
13.12
13.12
13.14
13.45
14.24
15.57
17.21
18.66
19.47
19.37
18.55
17.58
17.17
17.88
19.83
22.60
25.47
27.64
28.54
27.90
25.76
22.30
17.69
12.04
5.54
-1.61
-9.13
-16.86
-24.80
-33.05
-41.69
-50.45
-58.77
-65.88
-71.17
-74.48
-76.12
-76.62
-76.41
-75.59
-74.00
-71.45
-68.00
-64.01
-59.96
-56.20
-52.82
-49.73
-46.87
-44.26
-42.02
-40.19
-38.65
-37.15
-35.57
-34.03
-32.92
-32.82
-34.14
-37.01
-41.19
-46.21
-51.58
-56.96
-62.09
-66.76
-70.72
-73.64
-75.18
-75.11
-73.31
-69.89
-65.16
-59.58
-53.61
-47.61
-41.67
-35.62
-29.17
-22.14
-14.62
-7.04
-0.13
5.40
9.03
10.60
10.31
8.60
6.03
3.16
0.53
-1.45
-2.38
-1.99
-0.12
3.19
7.66
12.82
18.03
22.67
26.27
28.62
29.79
30.07
29.84
29.41
28.94
28.43
27.76
26.74
25.20
23.00
20.08
16.51
12.46
8.25
4.27
0.83
-1.89
-3.99
-5.64
-7.08
-8.37
-9.41
-10.04
-10.18
-9.99
-9.81
-10.04
-10.87
-12.25
-13.87
-15.35
-16.36
-16.74
-16.41
-15.36
-13.60
-11.16
-8.13
-4.75
-1.34
1.76
4.25
5.98
6.96
7.28
7.08
6.52
5.76
4.97
4.32
3.90
3.72
3.71
3.67
3.48
3.08
2.50
1.86
1.21
0.50
-0.40
-1.62
-3.17
-4.92
-6.75
-8.54
-10.31
-12.13
-14.09
-16.14
-18.12
-19.72
-20.63
-20.60
-19.56
-17.58
-14.90
-11.83
-8.72
-5.85
-3.40
-1.44
0.09
1.27
2.16
2.79
3.12
3.13
2.86
2.43
2.02
1.83
2.00
2.53
3.27
3.98
4.41
4.39
3.91
3.08
2.06
1.01
0.04
-0.82
-1.57
-2.29
-3.04
-3.91
-5.01
-6.31
-7.66
-8.75
-9.24
-8.84
-7.50
-5.41
-2.92
-0.39
1.94
3.97
5.71
7.14
8.22
8.91
9.16
9.05
8.67
8.19
7.73
7.35
7.04
6.71
6.28
5.69
4.98
4.23
3.59
3.13
2.84
2.60
2.25
1.66
0.76
-0.37
-1.67
-3.13
-4.81
-6.82
-9.15
-11.56
-13.62
-14.84
-14.80
-13.39
-10.79
-7.41
-3.79
-0.35
2.65
5.11
7.05
8.57
9.74
10.60
11.17
11.47
11.51
11.30
10.85
10.14
9.19
8.02
6.77
5.61
4.73
4.24
4.09
4.11
4.07
3.76
3.07
2.01
0.69
-0.76
-2.25
-3.75
-5.29
-6.85
-8.41
-9.78
-10.73
-10.98
-10.31
-8.68
-6.19
-3.16
0.06
3.10
5.65
7.54
8.65
8.95
8.52
7.53
6.22
4.88
3.80
3.20
3.09
3.30
3.51
3.33
2.54
1.23
-0.26
-1.43
-1.89
-1.59
-0.76
0.12
0.60
0.48
-0.17
-1.09
-2.02
-2.70
-2.89
-2.34
-0.95
1.10
3.19
4.36
3.60
0.29
-5.39
-12.51
-19.69
-25.79
-30.14
-32.63
-33.39
-32.32
-29.15
-23.62
-16.16
-8.15
-2.00
-0.28
-4.78
-15.81
-31.94
-50.60
-68.79
-83.77
-93.41
-96.56
-92.79
-82.35
-66.25
-46.17
-24.45
-3.62
14.25
29.25
41.89
53.27
64.60
76.08
87.97
99.80
110.70
119.58
125.72
128.88
129.36
127.75
124.72
121.13
117.77
115.11
112.89
109.94
104.33
94.57
80.71
64.74
50.04
39.71
35.18
35.57
38.32
40.49
40.30
37.72
34.16
31.50
30.96
32.57
35.41
38.22
40.01
40.46
39.82
38.63
37.26
35.79
34.09
32.32
31.11
31.47
34.19
39.11
44.82
49.02
49.53
45.29
36.77
25.61
13.48
1.19
-11.83
-27.07
-45.90
-68.60
-93.90
-119.29
-141.82
-158.93
-168.90
-170.94
-165.13
-152.34
-134.32
-113.69
-93.54
-76.60
-64.53
-57.49
-54.46
-53.80
-53.77
-52.94
-50.18
-44.70
-36.25
-25.46
-13.86
-3.51
4.01
8.38
10.73
12.92
16.44
21.58
27.42
32.61
36.21
38.13
38.78
38.55
37.41
34.99
30.98
25.61
19.78
14.74
11.53
10.51
11.23
12.63
13.44
12.54
9.41
4.34
-1.53
-6.49
-8.86
-7.63
-3.05
3.35
9.16
12.06
10.72
5.37
-2.40
-10.45
-17.05
-21.62
-24.81
-28.21
-33.65
-42.54
-55.31
-71.04
-87.57
-102.06
-111.97
-116.08
-115.04
-111.22
-107.81
-107.71
-112.47
-121.96
-134.64
-148.28
-160.69
-170.25
-176.21
-178.79
-179.00
-178.34
-178.17
-179.09
-180.40
-180.09
-175.27
-162.81
-140.08
-105.62
-59.67
-4.61
55.14
113.70
165.02
204.27
229.11
240.08
240.04
233.04
222.86
212.09
201.87
192.38
183.39
174.79
166.64
158.98
151.63
144.22
136.35
127.86
118.84
109.68
100.77
92.29
84.19
76.22
68.15
59.91
51.71
43.94
37.02
31.20
26.48
22.54
18.93
15.18
11.00
6.40
1.67
-2.68
-6.08
-8.10
-8.54
-7.49
-5.29
-2.37
0.79
3.75
6.15
7.80
8.70
9.06
9.22
9.47
9.92
10.49
10.93
11.01
10.57
9.61
8.26
6.75
5.38
4.46
4.20
4.60
5.42
6.18
6.32
5.48
3.60
0.99
-1.86
-4.47
-6.53
-7.88
-8.54
-8.64
-8.43
-8.29
-8.62
-9.67
-11.38
-13.44
-15.43
-17.07
-18.40
-19.77
-21.59
-24.07
-27.03
-29.97
-32.24
-33.33
-33.04
-31.49
-29.01
-25.99
-22.79
-19.67
-16.86
-14.50
-12.75
-11.74
-11.51
-12.00
-13.04
-14.39
-15.83
-17.18
-18.27
-18.98
-19.19
-18.86
-18.03
-16.84
-15.49
-14.09
-12.67
-11.21
-9.81
-8.69
-8.23
-8.80
-10.49
-13.06
-15.92
-18.46
-20.29
-21.44
-22.22
-23.08
-24.33
-26.02
-28.00
-30.05
-31.91
-33.31
-33.91
-33.18
-30.64
-26.05
-19.58
-11.86
-3.68
4.26
11.62
18.25
24.06
28.78
32.01
33.50
33.34
31.99
30.15
28.36
26.85
25.49
24.09
22.55
21.00
19.66
18.68
18.05
17.66
17.34
16.94
16.37
15.49
14.20
12.46
10.35
8.10
5.97
4.17
2.77
1.67
0.64
-0.51
-1.94
-3.65
-5.49
-7.19
-8.44
-9.00
-8.75
-7.72
-6.09
-4.07
-1.84
0.41
2.50
4.18
5.25
5.61
5.37
4.79
4.22
3.88
3.85
3.96
4.05
3.94
3.58
2.94
2.05
0.92
-0.33
-1.46
-2.13
-2.01
-0.99
0.75
2.76
4.55
5.72
6.11
5.80
5.03
4.17
3.59
3.67
4.68
6.74
9.76
13.49
17.59
21.81
26.01
30.09
33.89
37.11
39.29
40.02
39.01
36.25
31.95
26.45
20.19
13.63
7.26
1.60
-2.95
-6.21
-8.31
-9.68
-10.82
-12.11
-13.70
-15.52
-17.38
-19.14
-20.77
-22.33
-23.89
-25.41
-26.81
-27.90
-28.56
-28.67
-28.16
-27.02
-25.28
-23.04
-20.42
-17.61
-14.77
-12.05
-9.51
-7.19
-5.13
-3.36
-1.96
-1.01
-0.54
-0.47
-0.63
-0.79
-0.80
-0.62
-0.38
-0.26
-0.37
-0.71
-1.17
-1.64
-2.10
-2.60
-3.23
-4.08
-5.13
-6.34
-7.69
-9.20
-10.86
-12.58
-14.14
-15.21
-15.45
-14.68
-12.93
-10.49
-7.72
-4.95
-2.34
0.08
2.31
4.30
5.94
7.13
7.79
8.00
7.90
7.66
7.44
7.31
7.25
7.20
7.00
6.52
5.66
4.44
3.00
1.61
0.49
-0.29
-0.86
-1.52
-2.60
-4.30
-6.60
-9.26
-11.91
-14.14
-15.63
-16.16
-15.69
-14.34
-12.33
-9.95
-7.47
-5.05
-2.76
-0.57
1.58
3.72
5.74
7.44
8.55
8.94
8.61
7.78
6.80
6.01
5.63
5.69
6.03
6.41
6.56
6.35
5.76
4.92
3.97
3.06
2.25
1.45
0.54
-0.66
-2.23
-4.13
-6.22
-8.29
-10.16
-11.62
-12.49
-12.52
-11.55
-9.49
-6.50
-2.94
0.69
3.89
6.32
7.89
8.70
8.97
8.91
8.65
8.22
7.65
6.97
6.27
5.67
5.25
5.00
4.85
4.69
4.40
3.92
3.25
2.43
1.54
0.65
-0.20
-1.03
-1.93
-3.04
-4.51
-6.41
-8.70
-11.20
-13.65
-15.77
-17.24
-17.80
-17.23
-15.40
-12.41
-8.65
-4.69
-1.17
1.43
3.02
3.85
4.42
5.20
6.41
7.93
9.41
10.43
10.76
10.41
9.62
8.74
8.05
7.70
7.72
8.04
8.58
9.15
9.51
9.36
8.47
6.81
4.56
2.07
-0.29
-2.28
-3.86
-5.15
-6.38
-7.75
-9.31
-11.03
-12.69
-14.02
-14.71
-14.48
-13.24
-11.03
-8.09
-4.73
-1.31
1.88
4.58
6.63
7.93
8.51
8.49
8.09
7.50
6.86
6.29
5.82
5.49
5.34
5.35
5.45
5.52
5.44
5.17
4.74
4.21
3.62
2.98
2.23
1.35
0.37
-0.61
-1.55
-2.52
-3.72
-5.40
-7.69
-10.51
-13.45
-15.94
-17.39
-17.41
-15.92
-13.17
-9.60
-5.73
-2.02
1.17
3.64
5.32
6.27
6.64
6.66
6.58
6.57
6.65
6.71
6.60
6.27
5.83
5.49
5.47
5.81
6.35
6.76
6.71
6.02
4.74
3.07
1.26
-0.52
-2.23
-3.92
-5.63
-7.35
-8.98
-10.45
-11.76
-13.08
-14.59
-16.39
-18.35
-20.04
-20.85
-20.21
-17.83
-13.85
-8.84
-3.53
1.37
5.39
8.38
10.38
11.54
11.98
11.81
11.15
10.15
9.00
7.87
6.85
5.95
5.14
4.38
3.73
3.27
3.10
3.17
3.35
3.44
3.24
2.72
1.90
0.91
-0.14
-1.16
-2.17
-3.18
-4.32
-5.71
-7.49
-9.68
-12.11
-14.43
-16.12
-16.66
-15.68
-13.17
-9.41
-4.99
-0.59
3.17
5.88
7.44
8.10
8.32
8.63
9.42
10.81
12.62
14.57
16.39
17.88
18.97
19.61
19.70
19.15
17.92
16.09
13.88
11.58
9.43
7.52
5.83
4.18
2.44
0.46
-1.86
-4.60
-7.78
-11.34
-15.01
-18.36
-20.81
-21.83
-21.15
-18.86
-15.42
-11.49
-7.72
-4.55
-2.18
-0.55
0.58
1.44
2.23
3.10
4.02
4.88
5.54
5.87
5.80
5.38
4.72
3.91
3.01
2.04
0.99
-0.11
-1.17
-2.09
-2.83
-3.39
-3.86
-4.36
-5.00
-5.90
-7.12
-8.74
-10.76
-13.11
-15.59
-17.83
-19.30
-19.47
-18.02
-14.99
-10.86
-6.34
-2.21
0.99
3.14
4.45
5.32
6.09
6.95
7.84
8.66
9.38
10.02
10.71
11.50
12.30
12.86
12.94
12.35
11.12
9.48
7.73
6.11
4.69
3.35
1.85
0.01
-2.25
-4.85
-7.60
-10.28
-12.70
-14.72
-16.25
-17.22
-17.51
-17.03
-15.68
-13.47
-10.51
-7.01
-3.30
0.32
3.60
6.41
8.70
10.42
11.53
12.00
11.84
11.19
10.30
9.46
8.88
8.65
8.65
8.67
8.50
8.04
7.32
6.40
5.38
4.24
2.91
1.35
-0.46
-2.46
-4.58
-6.75
-8.97
-11.22
-13.41
-15.31
-16.56
-16.79
-15.79
-13.61
-10.55
-7.06
-3.53
-0.25
2.68
5.25
7.52
9.49
11.12
12.35
13.15
13.51
13.49
13.16
12.61
11.92
11.15
10.36
9.61
8.90
8.27
7.67
7.01
6.17
5.04
3.61
1.94
0.17
-1.57
-3.23
-4.87
-6.62
-8.62
-10.87
-13.14
-15.07
-16.21
-16.22
-14.93
-12.49
-9.26
-5.74
-2.34
0.68
3.32
5.74
8.10
10.47
12.71
14.51
15.57
15.72
15.08
13.94
12.68
11.60
10.87
10.52
10.48
10.60
10.65
10.38
9.57
8.13
6.18
4.04
2.05
0.40
-0.92
-2.20
-3.74
-5.78
-8.34
-11.25
-14.21
-16.87
-18.85
-19.85
-19.66
-18.21
-15.61
-12.13
-8.11
-3.91
0.17
3.88
6.97
9.24
10.59
11.06
10.93
10.56
10.27
10.24
10.40
10.59
10.64
10.49
10.17
9.80
9.42
8.98
8.36
7.45
6.24
4.79
3.25
1.68
0.12
-1.49
-3.17
-4.92
-6.75
-8.67
-10.77
-13.10
-15.63
-18.11
-20.09
-21.05
-20.64
-18.76
-15.67
-11.81
-7.64
-3.53
0.29
3.69
6.55
8.80
10.41
11.45
12.08
12.42
12.53
12.42
12.07
11.54
10.97
10.56
10.44
10.57
10.79
10.85
10.56
9.84
8.72
7.26
5.51
3.49
1.21
-1.22
-3.69
-6.01
-8.11
-9.99
-11.81
-13.71
-15.76
-17.80
-19.45
-20.19
-19.58
-17.44
-13.93
-9.56
-4.98
-0.73
2.88
5.80
8.10
9.92
11.29
12.22
12.77
13.06
13.21
13.30
13.31
13.17
12.80
12.24
11.63
11.08
10.62
10.17
9.56
8.71
7.60
6.32
4.95
3.48
1.80
-0.20
-2.55
-5.15
-7.86
-10.53
-13.08
-15.49
-17.68
-19.48
-20.61
-20.77
-19.76
-17.57
-14.42
-10.68
-6.76
-3.00
0.41
3.42
6.03
8.23
9.98
11.20
11.87
12.06
11.94
11.73
11.56
11.51
11.54
11.63
11.78
12.02
12.30
12.51
12.41
11.79
10.55
8.80
6.77
4.71
2.82
1.10
-0.53
-2.24
-4.14
-6.30
-8.72
-11.39
-14.24
-17.12
-19.73
-21.65
-22.43
-21.78
-19.66
-16.36
-12.34
-8.07
-3.89
0.04
3.66
6.91
9.71
11.93
13.42
14.14
14.12
13.50
12.49
11.36
10.43
9.98
10.18
10.95
11.97
12.79
12.97
12.33
10.98
9.27
7.57
6.11
4.88
3.71
2.44
1.00
-0.55
-2.16
-3.90
-5.95
-8.58
-11.88
-15.64
-19.31
-22.16
-23.55
-23.16
-21.10
-17.83
-13.93
-9.89
-6.01
-2.38
0.98
4.04
6.71
8.85
10.38
11.29
11.61
11.52
11.19
10.82
10.60
10.60
10.79
10.99
10.99
10.66
10.01
9.17
8.31
7.50
6.66
5.67
4.42
2.89
1.16
-0.66
-2.50
-4.30
-6.01
-7.67
-9.34
-11.15
-13.21
-15.49
-17.70
-19.37
-19.98
-19.23
-17.14
-14.10
-10.56
-6.93
-3.36
0.12
3.47
6.55
9.09
10.82
11.64
11.68
11.19
10.51
9.84
9.31
8.98
8.87
8.99
9.28
9.58
9.67
9.29
8.33
6.82
4.99
3.09
1.36
-0.14
-1.47
-2.73
-4.09
-5.64
-7.44
-9.44
-11.57
-13.71
-15.76
-17.59
-19.11
-20.17
-20.58
-20.08
-18.46
-15.66
-11.82
-7.32
-2.64
1.74
5.46
8.33
10.32
11.55
12.19
12.50
12.68
12.82
12.93
12.91
12.68
12.25
11.71
11.20
10.83
10.54
10.16
9.55
8.65
7.52
6.32
5.16
4.04
2.81
1.28
-0.69
-3.06
-5.70
-8.42
-11.12
-13.83
-16.59
-19.34
-21.77
-23.38
-23.62
-22.17
-19.05
-14.71
-9.81
-5.00
-0.73
2.83
5.71
8.02
9.81
11.08
11.80
12.04
11.92
11.71
11.61
11.73
12.06
12.41
12.59
12.46
12.04
11.44
10.80
10.19
9.51
8.60
7.29
5.55
3.50
1.36
-0.70
-2.59
-4.41
-6.32
-8.50
-11.10
-14.11
-17.39
-20.67
-23.54
-25.48
-26.04
-24.97
-22.33
-18.53
-14.16
-9.79
-5.79
-2.26
0.84
3.63
6.09
8.15
9.70
10.72
11.28
11.52
11.60
11.63
11.65
11.72
11.84
11.99
12.12
12.10
11.80
11.12
10.03
8.61
6.98
5.29
3.63
2.03
0.45
-1.18
-2.93
-4.76
-6.63
-8.49
-10.37
-12.39
-14.66
-17.15
-19.55
-21.31
-21.83
-20.67
-17.86
-13.88
-9.47
-5.31
-1.74
1.26
3.93
6.46
8.82
10.77
11.98
12.35
12.04
11.42
10.84
10.50
10.31
10.11
9.74
9.23
8.73
8.43
8.37
8.43
8.30
7.67
6.33
4.32
1.90
-0.55
-2.66
-4.18
-5.13
-5.74
-6.43
-7.61
-9.61
-12.47
-15.98
-19.66
-22.88
-25.00
-25.52
-24.21
-21.17
-16.81
-11.73
-6.59
-1.96
1.79
4.54
6.42
7.69
8.63
9.41
10.07
10.53
10.72
10.63
10.38
10.10
9.91
9.77
9.56
9.20
8.70
8.16
7.70
7.35
6.95
6.31
5.24
3.70
1.81
-0.19
-2.13
-3.94
-5.71
-7.61
-9.79
-12.31
-15.05
-17.71
-19.83
-20.93
-20.60
-18.65
-15.22
-10.76
-5.88
-1.16
3.01
6.44
9.13
11.11
12.38
12.92
12.74
12.02
11.05
10.17
9.66
9.61
9.92
10.36
10.65
10.63
10.26
9.57
8.67
7.58
6.29
4.78
3.07
1.29
-0.40
-1.80
-2.92
-3.93
-5.16
-6.95
-9.48
-12.62
-15.99
-19.05
-21.24
-22.15
-21.61
-19.65
-16.54
-12.65
-8.42
-4.23
-0.36
3.05
5.96
8.43
10.53
12.22
13.44
14.05
14.00
13.36
12.39
11.44
10.79
10.59
10.78
11.15
11.46
11.55
11.36
10.89
10.13
9.00
7.46
5.51
3.28
0.98
-1.14
-2.95
-4.48
-5.93
-7.54
-9.54
-11.98
-14.72
-17.43
-19.64
-20.87
-20.75
-19.14
-16.14
-12.12
-7.59
-3.12
0.84
4.03
6.40
8.03
9.03
9.54
9.70
9.70
9.78
10.12
10.76
11.53
12.11
12.18
11.65
10.66
9.58
8.80
8.49
8.55
8.69
8.51
7.74
6.29
4.26
1.89
-0.54
-2.83
-4.89
-6.78
-8.64
-10.63
-12.88
-15.36
-17.88
-20.10
-21.57
-21.85
-20.67
-18.05
-14.33
-10.08
-5.88
-2.13
0.99
3.55
5.63
7.22
8.26
8.70
8.69
8.51
8.49
8.82
9.42
10.04
10.36
10.27
9.85
9.38
9.05
8.90
8.74
8.29
7.31
5.77
3.84
1.80
-0.07
-1.67
-3.04
-4.44
-6.18
-8.48
-11.39
-14.69
-17.95
-20.61
-22.15
-22.19
-20.68
-17.84
-14.13
-10.08
-6.11
-2.47
0.78
3.63
6.09
8.08
9.49
10.24
10.36
10.03
9.49
9.01
8.74
8.69
8.76
8.79
8.61
8.15
7.39
6.39
5.21
3.90
2.49
1.02
-0.48
-1.86
-3.03
-3.91
-4.59
-5.31
-6.38
-8.04
-10.32
-12.98
-15.53
-17.42
-18.18
-17.63
-15.80
-12.98
-9.52
-5.80
-2.12
1.25
4.16
6.53
8.42
9.92
11.15
12.14
12.83
13.09
12.78
11.86
10.49
8.98
7.62
6.66
6.13
5.89
5.73
5.44
4.92
4.18
3.25
2.16
0.92
-0.49
-2.12
-3.99
-6.09
-8.38
-10.80
-13.22
-15.44
-17.22
-18.35
-18.66
-18.08
-16.58
-14.20
-11.03
-7.25
-3.15
0.89
4.46
7.33
9.42
10.83
11.78
12.42
12.85
13.03
12.95
12.59
12.07
11.51
11.03
10.64
10.29
9.85
9.21
8.27
7.00
5.44
3.70
1.94
0.31
-1.04
-2.08
-2.94
-3.88
-5.23
-7.26
-10.08
-13.48
-16.99
-19.93
-21.63
-21.64
-19.87
-16.61
-12.43
-7.96
-3.73
-0.05
2.99
5.44
7.38
8.88
9.96
10.68
11.13
11.44
11.68
11.90
12.03
11.99
11.72
11.21
10.55
9.84
9.15
8.50
7.83
7.03
5.99
4.66
3.08
1.34
-0.43
-2.14
-3.73
-5.23
-6.69
-8.24
-10.00
-12.13
-14.66
-17.43
-20.03
-21.82
-22.18
-20.75
-17.66
-13.45
-8.90
-4.69
-1.15
1.73
4.11
6.11
7.67
8.64
8.90
8.58
7.97
7.46
7.34
7.65
8.22
8.75
9.00
8.88
8.51
8.04
7.64
7.36
7.08
6.64
5.83
4.55
2.77
0.61
-1.78
-4.23
-6.59
-8.81
-10.91
-13.00
-15.23
-17.65
-20.11
-22.25
-23.60
-23.74
-22.49
-19.95
-16.48
-12.52
-8.48
-4.62
-1.08
2.07
4.77
6.95
8.53
9.51
9.94
9.91
9.61
9.25
9.02
9.04
9.35
9.85
10.34
10.54
10.25
9.37
7.98
6.29
4.57
3.02
1.67
0.42
-0.91
-2.43
-4.16
-6.02
-7.94
-9.93
-12.08
-14.46
-17.00
-19.40
-21.15
-21.74
-20.83
-18.42
-14.88
-10.79
-6.78
-3.32
-0.58
1.52
3.22
4.76
6.23
7.58
8.71
9.56
10.13
10.54
10.88
11.15
11.31
11.28
11.04
10.69
10.34
10.04
9.72
9.24
8.42
7.20
5.67
4.03
2.46
1.07
-0.17
-1.37
-2.70
-4.32
-6.33
-8.82
-11.77
-15.06
-18.36
-21.22
-23.06
-23.40
-22.01
-19.04
-15.04
-10.69
-6.62
-3.12
-0.14
2.55
5.17
7.71
10.00
11.80
12.94
13.44
13.44
13.13
12.66
12.12
11.56
11.02
10.58
10.28
10.08
9.87
9.50
8.87
7.88
6.56
4.96
3.24
1.50
-0.11
-1.53
-2.77
-3.90
-5.07
-6.46
-8.24
-10.48
-13.12
-15.88
-18.33
-19.99
-20.48
-19.63
-17.52
-14.45
-10.83
-7.07
-3.46
-0.11
2.93
5.68
8.08
10.02
11.37
12.11
12.34
12.29
12.23
12.38
12.79
13.33
13.77
13.83
13.36
12.35
10.96
9.46
8.10
7.00
6.11
5.25
4.24
2.97
1.49
-0.09
-1.66
-3.23
-4.88
-6.73
-8.81
-11.13
-13.62
-16.20
-18.78
-21.17
-23.01
-23.83
-23.19
-20.88
-17.10
-12.39
-7.46
-2.96
0.71
3.44
5.34
6.57
7.33
7.76
8.05
8.35
8.78
9.32
9.83
10.15
10.11
9.73
9.11
8.37
7.62
6.84
5.99
5.03
4.02
3.05
2.28
1.72
1.27
0.74
-0.09
-1.34
-3.05
-5.24
-7.94
-11.20
-14.92
-18.77
-22.12
-24.20
-24.37
-22.41
-18.62
-13.72
-8.61
-3.99
-0.21
2.76
5.13
7.15
8.90
10.33
11.32
11.79
11.78
11.44
11.03
10.74
10.66
10.75
10.89
10.93
10.81
10.48
9.94
9.17
8.19
7.00
5.63
4.10
2.45
0.69
-1.16
-3.07
-5.02
-6.99
-9.03
-11.17
-13.40
-15.59
-17.49
-18.73
-18.98
-18.03
-15.91
-12.86
-9.29
-5.58
-2.04
1.16
3.95
6.27
8.10
9.41
10.22
10.64
10.86
11.07
11.46
12.07
12.79
13.38
13.62
13.43
12.89
12.27
11.80
11.54
11.32
10.83
9.73
7.95
5.64
3.14
0.79
-1.26
-3.01
-4.59
-6.19
-7.92
-9.87
-12.06
-14.44
-16.83
-18.88
-20.12
-20.13
-18.68
-15.84
-11.96
-7.54
-3.10
0.94
4.30
6.84
8.54
9.50
9.87
9.91
9.90
10.05
10.44
10.99
11.48
11.71
11.57
11.13
10.58
10.12
9.83
9.65
9.34
8.66
7.47
5.81
3.86
1.87
0.02
-1.63
-3.11
-4.52
-5.97
-7.59
-9.47
-11.65
-14.08
-16.56
-18.72
-20.13
-20.39
-19.29
-16.84
-13.32
-9.12
-4.70
-0.48
3.21
6.17
8.36
9.85
10.80
11.36
11.60
11.54
11.23
10.81
10.46
10.31
10.34
10.45
10.44
10.23
9.84
9.37
8.86
8.24
7.33
6.03
4.36
2.56
0.90
-0.38
-1.28
-2.00
-2.83
-4.09
-5.95
-8.47
-11.52
-14.84
-18.06
-20.75
-22.44
-22.75
-21.51
-18.81
-14.98
-10.52
-5.96
-1.74
1.84
4.64
6.62
7.85
8.48
8.70
8.76
8.88
9.19
9.66
10.22
10.74
11.16
11.45
11.64
11.71
11.59
11.21
10.52
9.54
8.28
6.74
4.96
2.96
0.85
-1.24
-3.15
-4.84
-6.37
-7.95
-9.81
-12.13
-14.84
-17.66
-20.06
-21.46
-21.40
-19.71
-16.55
-12.38
-7.81
-3.38
0.53
3.79
6.42
8.53
10.18
11.35
12.00
12.06
11.60
10.79
9.89
9.17
8.76
8.65
8.70
8.77
8.80
8.76
8.65
8.43
7.99
7.19
6.03
4.58
2.97
1.33
-0.29
-1.93
-3.70
-5.72
-8.04
-10.62
-13.30
-15.80
-17.80
-19.01
-19.21
-18.31
-16.36
-13.53
-10.05
-6.23
-2.41
1.11
4.07
6.37
8.04
9.17
9.92
10.41
10.72
10.94
11.15
11.41
11.74
12.04
12.18
11.98
11.32
10.26
8.97
7.70
6.61
5.67
4.67
3.38
1.68
-0.32
-2.32
-4.03
-5.35
-6.42
-7.62
-9.28
-11.56
-14.26
-16.92
-18.93
-19.78
-19.20
-17.18
-14.05
-10.28
-6.41
-2.84
0.21
2.75
4.87
6.65
8.12
9.21
9.90
10.27
10.51
10.81
11.32
12.05
12.84
13.50
13.84
13.75
13.20
12.21
10.85
9.22
7.50
5.86
4.42
3.14
1.84
0.31
-1.55
-3.67
-5.84
-7.86
-9.66
-11.40
-13.31
-15.51
-17.83
-19.78
-20.75
-20.32
-18.41
-15.39
-11.81
-8.20
-4.86
-1.79
1.10
3.87
6.39
8.42
9.70
10.15
9.93
9.31
8.64
8.13
7.87
7.83
7.97
8.26
8.68
9.17
9.63
9.87
9.70
8.99
7.73
6.01
3.95
1.75
-0.41
-2.37
-4.00
-5.28
-6.35
-7.54
-9.19
-11.54
-14.54
-17.72
-20.41
-21.82
-21.49
-19.38
-15.90
-11.73
-7.58
-3.90
-0.84
1.65
3.75
5.55
7.01
8.07
8.70
9.01
9.18
9.38
9.66
9.95
10.07
9.90
9.42
8.80
8.23
7.90
7.83
7.83
7.63
6.91
5.52
3.55
1.24
-1.07
-3.15
-4.95
-6.57
-8.20
-10.01
-12.01
-14.14
-16.22
-18.00
-19.18
-19.45
-18.58
-16.46
-13.18
-9.13
-4.79
-0.67
2.85
5.60
7.63
9.09
10.18
10.99
11.61
12.04
12.28
12.34
12.27
12.08
11.79
11.40
10.93
10.40
9.89
9.46
9.11
8.74
8.23
7.49
6.54
5.50
4.52
3.66
2.79
1.61
-0.20
-2.79
-6.02
-9.50
-12.78
-15.52
-17.57
-18.88
-19.35
-18.81
-17.08
-14.17
-10.40
-6.32
-2.54
0.56
2.89
4.63
6.03
7.20
8.10
8.66
8.89
8.90
8.86
8.93
9.13
9.36
9.54
9.61
9.55
9.33
8.92
8.25
7.30
6.15
4.90
3.67
2.46
1.23
-0.10
-1.49
-2.88
-4.20
-5.53
-7.09
-9.13
-11.75
-14.74
-17.66
-19.91
-21.00
-20.63
-18.80
-15.72
-11.76
-7.41
-3.17
0.47
3.23
5.03
6.05
6.54
6.74
6.78
6.69
6.52
6.34
6.25
6.31
6.46
6.56
6.46
6.08
5.48
4.79
4.17
3.69
3.32
2.94
2.43
1.71
0.76
-0.39
-1.69
-3.11
-4.62
-6.22
-7.92
-9.75
-11.72
-13.78
-15.77
-17.41
-18.28
-18.01
-16.44
-13.68
-10.16
-6.47
-3.15
-0.53
1.35
2.68
3.78
4.85
5.93
6.87
7.46
7.64
7.57
7.56
7.89
8.56
9.29
9.61
9.18
8.00
6.46
5.07
4.24
3.97
3.93
3.61
2.69
1.17
-0.69
-2.47
-3.94
-5.11
-6.27
-7.80
-9.89
-12.46
-15.09
-17.19
-18.18
-17.76
-15.93
-13.00
-9.46
-5.77
-2.29
0.79
3.40
5.58
7.40
8.89
10.05
10.88
11.37
11.51
11.35
10.95
10.38
9.74
9.11
8.56
8.11
7.73
7.36
6.89
6.27
5.48
4.57
3.58
2.51
1.37
0.13
-1.16
-2.40
-3.46
-4.32
-5.13
-6.18
-7.77
-9.99
-12.62
-15.08
-16.68
-16.84
-15.39
-12.53
-8.82
-4.85
-1.10
2.17
4.83
6.84
8.13
8.66
8.50
7.86
7.13
6.69
6.83
7.54
8.59
9.54
10.01
9.81
9.04
8.03
7.15
6.65
6.51
6.49
6.26
5.58
4.43
2.96
1.40
-0.08
-1.40
-2.60
-3.80
-5.15
-6.78
-8.73
-10.98
-13.31
-15.33
-16.54
-16.51
-15.05
-12.35
-8.90
-5.32
-2.13
0.41
2.33
3.81
5.03
6.07
6.90
7.44
7.65
7.51
7.13
6.61
6.07
5.59
5.18
4.82
4.49
4.23
4.14
4.30
4.74
5.32
5.82
5.92
5.46
4.42
3.00
1.47
0.01
-1.33
-2.63
-4.00
-5.53
-7.20
-9.00
-10.86
-12.66
-14.23
-15.24
-15.34
-14.26
-11.94
-8.64
-4.86
-1.25
1.70
3.75
4.93
5.49
5.69
5.73
5.68
5.56
5.36
5.13
4.94
4.89
5.01
5.25
5.52
5.71
5.73
5.53
5.06
4.31
3.26
1.97
0.59
-0.66
-1.60
-2.13
-2.34
-2.40
-2.55
-2.99
-3.83
-5.18
-7.06
-9.40
-11.99
-14.41
-16.14
-16.72
-15.90
-13.80
-10.79
-7.40
-4.06
-1.02
1.66
3.98
5.91
7.37
8.26
8.56
8.44
8.11
7.82
7.67
7.59
7.45
7.10
6.56
5.99
5.59
5.48
5.63
5.79
5.69
5.14
4.18
2.98
1.80
0.79
-0.14
-1.18
-2.55
-4.34
-6.46
-8.69
-10.84
-12.74
-14.35
-15.61
-16.33
-16.29
-15.24
-13.13
-10.17
-6.76
-3.37
-0.37
2.07
4.01
5.52
6.71
7.58
8.13
8.40
8.51
8.57
8.64
8.71
8.64
8.35
7.83
7.23
6.68
6.29
6.01
5.67
5.11
4.24
3.13
1.90
0.63
-0.64
-1.94
-3.31
-4.78
-6.35
-8.06
-9.99
-12.20
-14.64
-17.03
-18.94
-19.90
-19.61
-18.07
-15.51
-12.35
-8.99
-5.73
-2.68
0.13
2.68
4.81
6.33
7.10
7.19
6.90
6.66
6.81
7.43
8.32
9.09
9.39
9.12
8.46
7.74
7.29
7.19
7.24
7.12
6.47
5.19
3.38
1.33
-0.64
-2.30
-3.60
-4.67
-5.71
-6.92
-8.36
-10.01
-11.71
-13.29
-14.55
-15.28
-15.31
-14.56
-13.06
-10.94
-8.44
-5.79
-3.20
-0.80
1.36
3.29
5.02
6.55
7.85
8.84
9.49
9.83
9.92
9.85
9.65
9.29
8.76
8.07
7.31
6.63
6.15
5.92
5.82
5.67
5.26
4.43
3.19
1.63
-0.10
-1.85
-3.50
-4.97
-6.31
-7.57
-8.88
-10.39
-12.14
-14.08
-16.02
-17.64
-18.57
-18.52
-17.38
-15.22
-12.30
-8.95
-5.54
-2.34
0.48
2.83
4.67
5.97
6.73
6.93
6.61
5.90
5.01
4.19
3.67
3.54
3.80
4.31
4.93
5.53
6.03
6.37
6.50
6.31
5.71
4.69
3.28
1.65
-0.02
-1.55
-2.83
-3.88
-4.81
-5.78
-6.92
-8.37
-10.14
-12.22
-14.43
-16.52
-18.13
-18.90
-18.50
-16.79
-13.86
-10.09
-5.95
-1.99
1.43
4.13
6.12
7.51
8.39
8.83
8.87
8.60
8.16
7.76
7.64
7.88
8.44
9.07
9.49
9.50
9.06
8.35
7.56
6.83
6.11
5.23
4.05
2.56
0.93
-0.61
-1.91
-3.00
-4.06
-5.33
-6.99
-9.05
-11.43
-13.97
-16.47
-18.60
-20.01
-20.33
-19.35
-17.12
-13.97
-10.34
-6.66
-3.21
-0.07
2.74
5.19
7.16
8.52
9.22
9.39
9.31
9.32
9.60
10.11
10.62
10.84
10.62
10.01
9.23
8.55
8.10
7.88
7.75
7.53
7.09
6.37
5.34
3.98
2.30
0.40
-1.58
-3.47
-5.17
-6.74
-8.36
-10.24
-12.44
-14.81
-16.99
-18.52
-18.97
-18.13
-16.03
-12.95
-9.30
-5.49
-1.86
1.38
4.09
6.26
7.91
9.12
9.98
10.53
10.81
10.87
10.77
10.61
10.48
10.42
10.45
10.48
10.44
10.27
9.97
9.56
9.07
8.44
7.63
6.57
5.27
3.82
2.36
1.01
-0.14
-1.15
-2.15
-3.35
-4.97
-7.12
-9.78
-12.77
-15.69
-18.05
-19.34
-19.21
-17.52
-14.46
-10.53
-6.31
-2.31
1.14
4.02
6.42
8.46
10.13
11.32
11.93
11.93
11.50
10.88
10.27
9.73
9.20
8.56
7.82
7.10
6.63
6.58
6.98
7.62
8.18
8.33
7.84
6.66
4.93
2.92
0.91
-0.92
-2.50
-3.91
-5.32
-6.91
-8.77
-10.90
-13.21
-15.52
-17.55
-18.97
-19.42
-18.64
-16.54
-13.34
-9.48
-5.50
-1.80
1.39
4.06
6.21
7.83
8.81
9.12
8.89
8.46
8.23
8.49
9.22
10.19
11.06
11.55
11.61
11.38
11.03
10.64
10.15
9.33
7.99
6.07
3.69
1.16
-1.13
-2.89
-4.05
-4.81
-5.59
-6.86
-8.91
-11.66
-14.71
-17.40
-19.08
-19.31
-18.00
-15.37
-11.81
-7.82
-3.85
-0.20
2.93
5.47
7.47
9.02
10.19
11.05
11.60
11.86
11.86
11.69
11.46
11.24
11.05
10.86
10.62
10.37
10.13
9.95
9.76
9.42
8.73
7.53
5.79
3.62
1.24
-1.08
-3.14
-4.89
-6.45
-8.03
-9.88
-12.12
-14.65
-17.13
-19.07
-19.93
-19.33
-17.18
-13.69
-9.36
-4.80
-0.58
2.91
5.49
7.22
8.28
8.88
9.23
9.48
9.74
10.06
10.40
10.61
10.54
10.05
9.21
8.26
7.50
7.18
7.30
7.63
7.84
7.62
6.83
5.51
3.79
1.86
-0.07
-1.82
-3.21
-4.17
-4.78
-5.39
-6.43
-8.25
-10.92
-14.03
-16.85
-18.50
-18.37
-16.34
-12.86
-8.70
-4.70
-1.46
0.88
2.52
3.78
4.93
6.00
6.89
7.56
8.06
8.62
9.47
10.60
11.76
12.51
12.50
11.73
10.51
9.32
8.53
8.18
8.01
7.61
6.69
5.19
3.25
1.09
-1.09
-3.14
-4.98
-6.52
-7.76
-8.80
-9.90
-11.30
-13.14
-15.32
-17.48
-19.10
-19.75
-19.17
-17.37
-14.60
-11.18
-7.49
-3.81
-0.34
2.79
5.45
7.55
9.04
9.94
10.34
10.40
10.36
10.38
10.51
10.68
10.71
10.44
9.87
9.13
8.42
7.89
7.59
7.40
7.06
6.33
5.05
3.24
1.15
-0.88
-2.53
-3.63
-4.29
-4.81
-5.64
-7.14
-9.42
-12.28
-15.27
-17.77
-19.19
-19.16
-17.58
-14.65
-10.87
-6.83
-3.13
-0.14
1.99
3.40
4.32
4.99
5.59
6.20
6.81
7.37
7.81
8.07
8.12
8.03
7.91
7.91
8.10
8.40
8.67
8.67
8.26
7.42
6.28
5.01
3.76
2.60
1.51
0.43
-0.72
-1.97
-3.40
-5.08
-7.17
-9.80
-12.92
-16.25
-19.20
-21.07
-21.31
-19.69
-16.44
-12.23
-7.85
-3.99
-0.98
1.18
2.71
3.90
4.91
5.84
6.71
7.52
8.30
9.04
9.70
10.17
10.35
10.19
9.73
9.07
8.38
7.79
7.40
7.19
7.05
6.78
6.14
4.97
3.27
1.26
-0.76
-2.49
-3.88
-5.17
-6.71
-8.79
-11.43
-14.33
-17.01
-18.91
-19.64
-19.02
-17.10
-14.16
-10.58
-6.81
-3.28
-0.28
2.09
3.88
5.27
6.40
7.40
8.30
9.17
10.06
10.98
11.87
12.58
12.90
12.70
12.00
10.99
9.97
9.21
8.83
8.71
8.57
8.11
7.15
5.74
4.06
2.36
0.80
-0.63
-2.08
-3.68
-5.53
-7.66
-10.00
-12.49
-14.99
-17.24
-18.90
-19.59
-19.08
-17.36
-14.72
-11.55
-8.30
-5.26
-2.57
-0.23
1.79
3.58
5.16
6.50
7.59
8.43
9.05
9.55
10.03
10.56
11.14
11.63
11.86
11.73
11.27
10.66
10.11
9.77
9.58
9.35
8.81
7.80
6.34
4.61
2.83
1.16
-0.38
-1.92
-3.63
-5.60
-7.85
-10.30
-12.86
-15.41
-17.79
-19.68
-20.68
-20.39
-18.56
-15.35
-11.27
-7.01
-3.15
-0.01
2.46
4.46
6.16
7.55
8.50
8.92
8.95
8.90
9.13
9.80
10.75
11.61
11.99
11.73
10.93
9.88
8.89
8.11
7.49
6.85
6.00
4.83
3.36
1.70
0.01
-1.53
-2.86
-4.06
-5.33
-6.96
-9.13
-11.85
-14.83
-17.51
-19.28
-19.66
-18.49
-15.99
-12.63
-8.98
-5.47
-2.31
0.44
2.80
4.80
6.40
7.61
8.48
9.11
9.62
10.08
10.46
10.68
10.68
10.48
10.15
9.78
9.42
9.09
8.75
8.38
7.87
7.12
5.98
4.38
2.40
0.25
-1.78
-3.49
-4.85
-6.04
-7.32
-8.94
-10.97
-13.31
-15.67
-17.71
-19.05
-19.38
-18.52
-16.49
-13.48
-9.90
-6.23
-2.90
-0.17
1.96
3.67
5.22
6.82
8.56
10.36
12.03
13.36
14.19
14.42
14.04
13.15
11.95
10.70
9.67
9.03
8.72
8.48
7.96
6.88
5.20
3.12
0.98
-0.93
-2.56
-3.99
-5.40
-6.92
-8.56
-10.31
-12.13
-13.98
-15.73
-17.08
-17.56
-16.73
-14.38
-10.74
-6.44
-2.24
1.28
3.91
5.75
7.07
8.08
8.83
9.28
9.45
9.46
9.51
9.71
10.07
10.43
10.58
10.37
9.80
9.04
8.29
7.71
7.35
7.11
6.77
6.07
4.86
3.13
1.07
-1.04
-2.95
-4.51
-5.77
-6.90
-8.13
-9.62
-11.44
-13.48
-15.48
-17.06
-17.80
-17.34
-15.55
-12.53
-8.65
-4.42
-0.34
3.23
6.05
8.08
9.33
9.87
9.85
9.43
8.86
8.39
8.25
8.52
9.18
10.03
10.79
11.16
10.95
10.15
8.88
7.37
5.86
4.51
3.40
2.51
1.80
1.18
0.53
-0.29
-1.42
-2.99
-5.07
-7.60
-10.43
-13.27
-15.73
-17.43
-18.07
-17.52
-15.85
-13.32
-10.28
-7.06
-3.91
-0.99
1.58
3.75
5.44
6.65
7.42
7.80
7.93
7.93
7.93
7.97
8.01
7.97
7.80
7.53
7.21
6.92
6.64
6.25
5.59
4.57
3.25
1.82
0.49
-0.68
-1.76
-2.90
-4.23
-5.82
-7.59
-9.50
-11.55
-13.68
-15.73
-17.34
-18.08
-17.60
-15.77
-12.83
-9.26
-5.62
-2.34
0.41
2.67
4.58
6.26
7.72
8.89
9.70
10.10
10.17
10.03
9.86
9.72
9.64
9.55
9.36
9.01
8.53
7.97
7.41
6.88
6.35
5.71
4.83
3.67
2.28
0.82
-0.53
-1.69
-2.76
-4.03
-5.82
-8.32
-11.34
-14.35
-16.59
-17.42
-16.56
-14.18
-10.82
-7.13
-3.66
-0.71
1.64
3.47
4.92
6.13
7.25
8.33
9.40
10.35
11.11
11.56
11.68
11.57
11.36
11.17
11.03
10.89
10.65
10.19
9.45
8.40
7.05
5.47
3.75
1.98
0.27
-1.32
-2.77
-4.12
-5.43
-6.82
-8.40
-10.27
-12.38
-14.56
-16.48
-17.70
-17.80
-16.56
-14.02
-10.56
-6.73
-3.12
-0.11
2.20
3.99
5.59
7.23
8.92
10.47
11.66
12.34
12.58
12.56
12.44
12.25
11.94
11.43
10.77
10.15
9.70
9.43
9.15
8.55
7.37
5.64
3.58
1.56
-0.15
-1.48
-2.55
-3.59
-4.81
-6.35
-8.25
-10.47
-12.89
-15.31
-17.40
-18.80
-19.12
-18.12
-15.79
-12.44
-8.58
-4.80
-1.54
1.07
3.14
4.90
6.55
8.02
9.10
9.59
9.41
8.73
7.87
7.09
6.56
6.25
6.13
6.16
6.35
6.70
7.12
7.40
7.28
6.56
5.25
3.47
1.49
-0.44
-2.09
-3.30
-4.07
-4.57
-5.16
-6.28
-8.27
-11.14
-14.53
-17.73
-19.94
-20.59
-19.45
-16.72
-12.94
-8.72
-4.64
-1.12
1.67
3.69
5.03
5.84
6.26
6.43
6.46
6.48
6.61
6.89
7.30
7.66
7.79
7.57
7.02
6.35
5.78
5.44
5.28
5.13
4.81
4.25
3.55
2.84
2.17
1.41
0.32
-1.35
-3.65
-6.36
-9.11
-11.50
-13.27
-14.31
-14.64
-14.32
-13.37
-11.84
-9.82
-7.45
-4.93
-2.42
-0.08
2.02
3.85
5.40
6.67
7.63
8.23
8.45
8.33
8.00
7.72
7.69
8.03
8.65
9.33
9.82
10.04
10.02
9.88
9.69
9.39
8.81
7.84
6.52
5.05
3.67
2.49
1.45
0.29
-1.25
-3.40
-6.19
-9.46
-12.86
-15.93
-18.16
-19.11
-18.51
-16.43
-13.22
-9.45
-5.69
-2.38
0.28
2.34
3.89
5.06
5.87
6.27
6.27
5.93
5.41
4.92
4.60
4.51
4.62
4.86
5.15
5.43
5.70
5.91
6.01
5.94
5.59
4.90
3.80
2.32
0.54
-1.39
-3.29
-5.00
-6.44
-7.70
-8.98
-10.48
-12.34
-14.42
-16.39
-17.74
-17.99
-16.90
-14.54
-11.29
-7.70
-4.26
-1.27
1.15
3.01
4.40
5.39
6.00
6.34
6.49
6.56
6.64
6.75
6.84
6.80
6.52
5.95
5.14
4.26
3.51
3.06
2.94
3.03
3.11
2.95
2.45
1.68
0.76
-0.19
-1.18
-2.28
-3.52
-4.84
-6.07
-7.15
-8.12
-9.18
-10.53
-12.12
-13.63
-14.52
-14.27
-12.70
-10.02
-6.80
-3.64
-0.96
1.15
2.84
4.31
5.63
6.67
7.23
7.18
6.63
5.88
5.31
5.13
5.35
5.74
5.99
5.99
5.77
5.48
5.27
5.09
4.76
4.10
3.01
1.63
0.15
-1.18
-2.24
-3.01
-3.56
-4.08
-4.78
-5.89
-7.56
-9.76
-12.23
-14.47
-15.96
-16.26
-15.26
-13.15
-10.31
-7.19
-4.18
-1.50
0.73
2.49
3.84
4.86
5.62
6.21
6.71
7.17
7.61
8.02
8.34
8.49
8.38
7.98
7.32
6.55
5.83
5.34
5.14
5.15
5.17
4.96
4.29
3.11
1.54
-0.20
-1.89
-3.47
-5.03
-6.77
-8.83
-11.21
-13.69
-15.95
-17.58
-18.23
-17.72
-16.05
-13.44
-10.25
-6.95
-3.97
-1.58
0.16
1.47
2.62
3.82
5.10
6.30
7.21
7.70
7.77
7.58
7.34
7.23
7.30
7.49
7.67
7.67
7.44
6.96
6.30
5.57
4.84
4.14
3.45
2.70
1.85
0.89
-0.12
-1.17
-2.26
-3.50
-5.00
-6.84
-8.97
-11.23
-13.34
-14.99
-15.87
-15.76
-14.62
-12.55
-9.83
-6.80
-3.77
-0.99
1.43
3.44
5.02
6.12
6.70
6.88
6.86
6.94
7.31
7.97
8.72
9.25
9.38
9.11
8.65
8.25
8.02
7.92
7.79
7.45
6.82
5.90
4.76
3.45
1.99
0.43
-1.18
-2.74
-4.18
-5.46
-6.62
-7.77
-9.02
-10.42
-11.95
-13.48
-14.72
-15.31
-14.88
-13.24
-10.47
-6.98
-3.40
-0.32
1.95
3.47
4.59
5.70
6.92
8.06
8.80
8.91
8.47
7.88
7.56
7.73
8.21
8.59
8.42
7.57
6.26
5.00
4.26
4.23
4.71
5.23
5.33
4.72
3.42
1.73
0.02
-1.43
-2.55
-3.48
-4.40
-5.47
-6.74
-8.12
-9.56
-11.01
-12.43
-13.75
-14.76
-15.15
-14.63
-13.07
-10.59
-7.57
-4.50
-1.78
0.36
1.89
2.94
3.66
4.18
4.58
4.94
5.29
5.64
5.99
6.32
6.63
6.91
7.13
7.26
7.27
7.16
7.00
6.86
6.74
6.54
6.07
5.11
3.60
1.67
-0.32
-2.02
-3.22
-3.93
-4.44
-5.13
-6.34
-8.20
-10.61
-13.18
-15.41
-16.80
-17.02
-16.02
-14.02
-11.36
-8.44
-5.51
-2.73
-0.17
2.09
3.98
5.38
6.28
6.73
6.90
6.94
6.97
7.03
7.11
7.21
7.34
7.54
7.80
8.11
8.40
8.60
8.63
8.43
7.98
7.23
6.17
4.85
3.41
2.04
0.88
-0.06
-0.93
-1.97
-3.43
-5.39
-7.72
-10.16
-12.37
-14.07
-15.09
-15.34
-14.83
-13.58
-11.70
-9.36
-6.77
-4.12
-1.59
0.72
2.71
4.25
5.26
5.72
5.77
5.66
5.66
5.93
6.50
7.21
7.81
8.09
7.97
7.51
6.85
6.16
5.52
4.89
4.19
3.29
2.16
0.85
-0.50
-1.73
-2.78
-3.68
-4.51
-5.38
-6.38
-7.54
-8.88
-10.42
-12.12
-13.84
-15.29
-16.07
-15.79
-14.23
-11.45
-7.87
-4.08
-0.69
1.88
3.55
4.52
5.12
5.62
6.13
6.59
6.95
7.20
7.47
7.90
8.52
9.20
9.68
9.72
9.19
8.20
7.00
5.87
5.07
4.66
4.62
4.72
4.71
4.28
3.26
1.66
-0.28
-2.16
-3.60
-4.46
-4.91
-5.40
-6.45
-8.34
-10.91
-13.55
-15.44
-15.91
-14.70
-12.09
-8.71
-5.28
-2.27
0.18
2.14
3.80
5.17
6.16
6.62
6.53
6.09
5.61
5.42
5.70
6.42
7.34
8.19
8.76
8.98
8.89
8.65
8.39
8.21
8.02
7.66
6.91
5.61
3.77
1.57
-0.71
-2.77
-4.48
-5.84
-7.02
-8.23
-9.66
-11.41
-13.43
-15.51
-17.36
-18.63
-18.94
-18.03
-15.81
-12.46
-8.45
-4.39
-0.94
1.51
2.90
3.50
3.72
3.94
4.31
4.81
5.27
5.60
5.81
6.00
6.28
6.64
7.03
7.31
7.38
7.23
6.87
6.37
5.74
4.97
3.98
2.72
1.21
-0.44
-2.07
-3.52
-4.80
-6.04
-7.47
-9.30
-11.51
-13.84
-15.82
-16.95
-16.83
-15.35
-12.74
-9.44
-6.00
-2.86
-0.22
1.92
3.71
5.29
6.70
7.88
8.76
9.33
9.71
10.04
10.42
10.82
11.07
11.00
10.55
9.82
9.00
8.29
7.76
7.38
6.99
6.38
5.45
4.20
2.74
1.29
0.01
-1.01
-1.88
-2.81
-4.07
-5.83
-8.04
-10.47
-12.77
-14.58
-15.65
-15.82
-15.04
-13.35
-10.91
-7.99
-4.91
-1.97
0.68
3.00
5.02
6.71
7.99
8.77
9.04
8.97
8.83
8.86
9.10
9.40
9.51
9.31
8.84
8.33
7.95
7.73
7.50
6.97
5.99
4.55
2.85
1.15
-0.34
-1.52
-2.38
-3.02
-3.58
-4.25
-5.22
-6.66
-8.61
-10.87
-13.07
-14.76
-15.51
-15.07
-13.41
-10.70
-7.32
-3.68
-0.21
2.77
5.06
6.65
7.66
8.23
8.50
8.60
8.63
8.68
8.81
9.04
9.30
9.45
9.31
8.81
8.02
7.12
6.34
5.78
5.46
5.20
4.83
4.23
3.35
2.30
1.20
0.18
-0.77
-1.75
-2.92
-4.45
-6.38
-8.65
-11.09
-13.48
-15.52
-16.90
-17.33
-16.59
-14.69
-11.87
-8.57
-5.29
-2.42
-0.12
1.68
3.12
4.33
5.33
6.07
6.57
6.91
7.27
7.77
8.39
8.96
9.21
8.91
8.08
6.92
5.80
5.05
4.81
4.95
5.11
4.94
4.27
3.20
2.02
1.02
0.29
-0.38
-1.28
-2.70
-4.71
-7.16
-9.77
-12.25
-14.35
-15.82
-16.39
-15.86
-14.08
-11.15
-7.46
-3.58
-0.13
2.49
4.17
5.14
5.75
6.31
6.99
7.77
8.54
9.19
9.65
9.93
10.02
9.92
9.61
9.10
8.51
8.00
7.72
7.73
7.87
7.86
7.40
6.32
4.67
2.69
0.72
-0.94
-2.15
-2.96
-3.59
-4.37
-5.63
-7.53
-9.99
-12.67
-14.99
-16.35
-16.30
-14.73
-11.95
-8.51
-5.08
-2.15
0.08
1.70
3.02
4.29
5.63
6.95
8.01
8.58
8.63
8.29
7.84
7.55
7.53
7.74
8.00
8.14
8.10
7.92
7.64
7.24
6.61
5.60
4.15
2.33
0.38
-1.43
-2.91
-3.98
-4.73
-5.32
-5.98
-6.91
-8.27
-10.12
-12.34
-14.60
-16.37
-17.06
-16.28
-14.03
-10.69
-6.94
-3.47
-0.70
1.30
2.76
3.99
5.18
6.33
7.36
8.14
8.67
9.06
9.41
9.79
10.18
10.44
10.45
10.14
9.53
8.74
7.96
7.27
6.75
6.31
5.83
5.17
4.26
3.12
1.82
0.46
-0.94
-2.37
-3.82
-5.28
-6.71
-8.13
-9.61
-11.22
-12.90
-14.40
-15.35
-15.34
-14.16
-11.92
-8.96
-5.78
-2.80
-0.28
1.71
3.25
4.44
5.37
6.10
6.70
7.25
7.82
8.40
8.91
9.22
9.25
8.96
8.42
7.78
7.17
6.68
6.38
6.27
6.33
6.47
6.48
6.08
5.02
3.20
0.84
-1.64
-3.73
-5.14
-5.88
-6.30
-6.84
-7.89
-9.54
-11.60
-13.65
-15.19
-15.80
-15.22
-13.48
-10.81
-7.58
-4.25
-1.16
1.46
3.50
4.95
5.80
6.07
5.89
5.47
5.06
4.90
5.04
5.38
5.68
5.75
5.52
5.03
4.45
3.94
3.53
3.20
2.84
2.40
1.88
1.32
0.76
0.17
-0.53
-1.46
-2.70
-4.24
-6.04
-8.00
-10.03
-12.02
-13.82
-15.23
-16.03
-16.06
-15.23
-13.57
-11.20
-8.32
-5.15
-2.01
0.79
2.95
4.28
4.79
4.69
4.31
3.93
3.76
3.79
3.95
4.15
4.37
4.67
5.05
5.49
5.84
5.97
5.81
5.41
4.91
4.42
3.94
3.35
2.49
1.22
-0.40
-2.21
-3.97
-5.54
-6.95
-8.36
-9.96
-11.79
-13.70
-15.34
-16.33
-16.30
-15.09
-12.79
-9.68
-6.17
-2.69
