1723224001.00
64.000000
-0.00
-0.00
-0.00
-0.00
-0.00
-0.00
-0.00
-0.00
-0.00
-0.00
0.00
0.01
0.01
-0.00
-0.03
-0.05
-0.05
0.00
0.13
0.36
0.66
1.01
1.37
1.72
2.06
2.40
2.79
3.24
3.80
4.42
5.06
5.66
6.20
6.68
7.15
7.68
8.31
9.14
10.09
11.04
11.88
12.56
13.14
13.76
14.65
15.96
17.91
20.32
22.90
25.38
27.58
29.57
31.68
34.32
37.81
42.54
48.15
54.10
59.83
64.97
69.58
74.14
79.34
85.71
93.76
103.00
112.62
121.73
129.77
136.75
143.30
150.75
157.77
166.64
177.95
191.79
206.97
220.57
228.25
225.36
208.53
176.87
132.76
80.05
23.07
-34.94
-92.44
-149.16
-205.23
-260.37
-313.74
-363.87
-409.83
-450.91
-486.50
-515.74
-537.23
-549.22
-549.96
-538.37
-514.20
-478.67
-433.87
-382.43
-326.98
-269.78
-212.55
-156.54
-102.79
-52.17
-5.65
35.89
71.80
101.78
126.00
144.95
159.33
169.86
177.15
181.61
183.51
183.09
180.62
176.44
170.96
164.60
157.69
150.49
143.14
135.71
128.24
120.78
113.39
106.13
99.09
92.32
85.84
79.68
73.85
68.36
63.21
58.42
54.00
49.95
46.27
42.96
40.00
37.40
35.13
33.21
31.62
30.35
29.41
28.78
28.46
28.44
28.70
29.23
30.00
30.95
32.03
33.13
34.13
34.88
35.23
35.00
34.02
32.19
29.43
25.72
21.09
15.67
9.64
3.26
-3.21
-9.46
-15.23
-20.27
-24.37
-27.42
-29.31
-30.08
-29.79
-28.54
-26.47
-23.76
-20.57
-17.07
-13.41
-9.68
-6.03
-2.51
0.81
3.94
6.90
9.72
12.47
15.23
18.08
20.98
23.94
26.92
29.90
32.85
35.74
38.57
41.37
44.22
47.07
49.91
52.81
55.83
59.08
62.65
66.64
71.13
76.15
81.42
86.79
92.17
97.59
103.05
108.59
114.20
119.90
125.61
130.89
135.42
138.94
141.25
142.08
141.08
137.66
130.99
122.36
112.14
100.64
88.23
75.34
62.41
49.79
37.73
26.33
15.04
3.03
-10.19
-24.62
-39.90
-55.57
-71.26
-86.83
-102.26
-118.88
-138.05
-160.30
-185.13
-211.21
-236.91
-260.93
-282.55
-301.61
-320.39
-341.08
-364.87
-391.37
-418.99
-445.64
-469.64
-490.09
-506.62
-521.87
-538.07
-555.86
-573.68
-588.09
-595.14
-591.57
-575.68
-530.39
-447.00
-325.86
-177.44
-18.74
133.26
266.56
375.62
459.68
520.75
559.12
575.04
570.14
548.43
516.21
480.22
447.04
419.49
397.92
378.86
357.37
329.91
295.90
258.26
220.85
187.21
158.78
134.79
111.27
81.94
40.71
-17.07
-90.37
-176.69
-271.05
-366.24
-453.44
-515.23
-539.31
-523.16
-476.04
-414.07
-353.42
-303.49
-265.66
-236.41
-211.67
-190.75
-174.85
-167.07
-165.05
-164.91
-162.71
-155.93
-144.35
-129.56
-115.14
-103.99
-96.90
-91.74
-85.02
-75.00
-60.41
-41.30
-18.91
4.28
26.08
45.38
62.60
78.55
93.93
109.12
123.64
136.39
145.81
150.64
150.43
145.75
137.50
126.71
114.40
101.17
87.35
72.91
57.88
42.41
26.89
11.69
-2.97
-16.84
-29.89
-42.21
-53.97
-65.33
-76.38
-87.13
-97.57
-107.67
-117.24
-126.06
-133.74
-139.92
-144.18
-146.11
-145.34
-141.67
-135.06
-125.60
-113.58
-99.45
-83.80
-67.23
-50.43
-34.04
-18.60
-4.56
7.78
18.21
26.64
33.08
37.55
40.17
41.03
40.24
37.96
34.31
29.47
23.61
16.97
9.85
2.62
-4.32
-10.49
-15.43
-18.70
-19.93
-18.79
-15.07
-8.74
0.13
11.33
24.54
39.34
55.23
71.76
88.45
104.89
120.72
135.64
149.42
161.91
173.02
182.72
190.99
197.87
203.39
207.60
210.54
212.32
212.98
212.60
211.24
208.89
205.48
200.94
195.13
187.90
179.10
168.71
156.78
143.48
129.02
113.75
98.02
82.24
66.72
51.67
37.13
22.99
8.97
-5.29
-20.14
-35.85
-52.47
-69.80
-87.47
-104.94
-121.69
-137.24
-151.30
-163.71
-174.48
-183.59
-190.88
-196.10
-198.89
-198.91
-195.97
-190.17
-181.90
-171.73
-160.22
-147.68
-134.25
-119.87
-104.56
-88.57
-72.53
-57.28
-43.63
-31.92
-21.81
-12.24
-1.77
10.93
26.61
45.17
65.82
87.41
108.92
129.94
150.80
172.67
197.21
226.19
260.90
301.21
344.87
387.37
422.80
445.77
453.63
447.75
433.00
415.83
401.44
391.81
385.39
378.55
367.75
351.19
329.08
302.73
273.42
241.73
207.68
171.46
133.90
96.45
60.56
27.13
-3.54
-30.95
-53.63
-68.90
-73.85
-67.14
-50.39
-28.27
-6.85
8.96
17.33
19.73
19.43
19.18
19.48
18.64
14.42
6.23
-3.77
-11.34
-12.42
-5.44
7.40
20.83
28.86
27.73
17.75
3.09
-10.52
-18.74
-20.65
-18.40
-15.17
-12.74
-10.65
-7.30
-1.97
4.01
7.85
7.20
1.81
-6.25
-14.14
-20.20
-24.85
-29.67
-35.50
-41.37
-44.91
-43.89
-37.35
-25.78
-10.49
6.72
23.20
35.08
37.83
28.22
6.51
-22.65
-51.55
-72.57
-81.29
-77.91
-66.16
-50.87
-35.82
-22.92
-13.02
-6.63
-4.43
-6.79
-12.83
-20.31
-26.31
-28.34
-25.32
-18.01
-8.31
1.35
9.04
14.02
16.82
18.73
21.14
24.89
29.88
35.70
41.46
46.50
50.61
54.09
57.50
61.33
65.64
69.93
74.92
81.35
89.92
101.15
114.99
130.69
146.97
162.45
175.94
189.87
206.82
228.71
256.05
287.57
320.88
353.49
383.62
410.31
438.10
471.27
512.47
561.85
616.98
673.76
728.23
778.03
823.18
872.39
934.74
1016.58
1118.37
1233.51
1350.33
1456.43
1543.09
1565.99
1496.11
1318.49
1037.84
679.19
280.91
-116.82
-481.87
-794.55
-1047.20
-1234.93
-1359.20
-1426.01
-1444.77
-1427.28
-1386.15
-1332.66
-1275.65
-1221.11
-1167.63
-1112.45
-1053.05
-988.58
-920.46
-851.91
-786.60
-727.49
-676.40
-630.86
-587.89
-544.87
-500.49
-455.07
-410.23
-368.05
-330.27
-297.91
-269.76
-244.21
-219.76
-195.53
-171.47
-148.18
-126.57
-107.37
-91.04
-77.09
-64.83
-53.60
-42.92
-32.64
-22.90
-13.97
-6.08
0.66
6.25
10.79
14.41
17.28
19.48
21.11
22.18
22.69
22.61
21.82
20.36
18.24
15.51
12.28
8.74
4.97
1.29
-2.04
-4.79
-6.71
-7.70
-7.69
-6.67
-4.73
-2.05
1.16
4.63
8.08
11.29
14.04
16.16
17.53
18.15
18.01
17.16
15.67
13.70
11.49
9.26
7.26
5.77
5.01
5.11
6.21
8.14
10.62
13.37
16.07
18.41
20.14
21.20
21.72
22.05
22.40
23.14
24.73
27.63
32.21
38.71
47.23
57.72
70.07
83.62
97.74
111.89
125.65
138.68
150.70
161.64
171.59
180.82
189.05
196.22
202.30
207.15
210.40
211.46
209.30
202.27
192.81
181.55
168.93
155.30
140.93
126.00
110.61
94.91
79.10
63.64
48.47
33.81
19.94
7.00
-5.18
-16.98
-28.92
-41.37
-54.28
-67.70
-81.13
-93.94
-105.64
-116.13
-125.72
-134.88
-143.97
-152.83
-161.07
-167.95
-172.80
-175.44
-176.43
-176.98
-178.47
-182.11
-188.69
-198.63
-211.73
-227.09
-242.94
-256.64
-265.17
-266.29
-259.69
-247.36
-232.82
-219.37
-208.46
-199.03
-188.51
-174.56
-156.71
-136.75
-117.72
-102.13
-90.69
-82.18
-74.39
-65.44
-54.71
-42.83
-31.22
-21.15
-13.39
-7.91
-4.12
-1.08
2.02
5.46
8.91
11.53
12.26
10.28
5.15
-3.06
-13.83
-26.25
-38.81
-49.49
-55.92
-56.07
-48.91
-34.91
-16.07
4.78
24.88
42.37
56.72
68.53
78.94
88.92
98.73
107.88
115.33
120.11
121.79
120.68
117.75
114.12
110.61
107.50
104.66
101.86
99.08
96.45
93.95
91.14
86.84
79.55
67.98
51.82
32.01
10.47
-10.88
-31.01
-50.23
-69.63
-89.86
-109.97
-127.13
-137.61
-138.45
-129.01
-111.50
-90.09
-69.33
-52.60
-41.29
-34.83
-31.17
-27.35
-20.29
-7.63
11.28
34.65
58.38
77.22
86.70
84.93
73.30
55.80
37.23
21.43
10.13
3.07
-1.22
-4.21
-6.80
-9.24
-11.45
-13.48
-15.70
-18.81
-23.58
-30.58
-40.13
-52.26
-66.64
-82.26
-97.21
-108.71
-113.59
-109.30
-94.87
-71.57
-42.61
-12.19
15.71
38.39
54.74
65.01
70.20
71.59
70.39
67.66
64.28
60.85
57.59
54.30
50.60
46.12
40.91
35.53
30.86
27.72
26.38
26.35
26.47
25.44
22.33
17.01
10.07
2.59
-4.47
-10.54
-15.73
-20.82
-27.10
-35.93
-48.27
-63.98
-81.33
-97.15
-107.61
-109.60
-102.07
-86.54
-66.69
-46.94
-30.70
-19.20
-11.35
-4.56
3.68
14.58
27.47
40.15
50.02
55.31
55.94
53.57
51.05
51.33
56.49
67.39
83.58
103.59
125.08
145.17
160.60
168.33
166.13
153.33
131.01
101.54
67.46
30.53
-8.69
-50.10
-92.78
-133.77
-167.86
-188.90
-192.13
-176.23
-144.20
-102.29
-57.81
-16.78
17.44
43.88
62.80
74.38
78.54
75.41
66.24
53.59
40.85
30.99
25.36
23.49
23.64
23.94
23.23
21.38
18.96
16.80
15.61
15.86
17.84
21.66
27.12
33.36
39.08
42.67
42.68
38.25
29.15
15.96
0.12
-15.60
-27.49
-32.09
-28.04
-17.47
-5.91
-0.21
-5.42
-22.30
-46.78
-71.85
-90.71
-99.43
-97.87
-88.46
-74.31
-57.85
-40.70
-24.45
-11.24
-3.51
-3.08
-10.07
-22.81
-38.40
-53.60
-65.87
-73.90
-77.64
-78.01
-76.51
-75.04
-75.38
-78.88
-86.16
-96.83
-109.78
-123.75
-138.04
-152.79
-168.63
-185.97
-204.27
-221.79
-235.98
-244.19
-244.43
-235.76
-218.25
-192.59
-159.61
-120.25
-75.81
-28.42
18.79
62.04
97.83
124.06
140.63
149.42
153.47
155.85
158.61
162.46
166.90
170.96
173.73
174.63
173.59
170.93
167.33
163.62
160.54
158.31
156.34
153.26
147.25
136.59
120.14
97.58
69.59
38.05
6.20
-21.46
-40.00
-45.32
-35.75
-12.94
18.42
52.04
82.03
104.54
118.34
124.32
124.29
120.04
112.75
103.07
91.49
78.57
65.02
51.72
39.60
29.63
22.45
18.04
15.43
12.62
7.10
-3.18
-18.96
-39.17
-61.40
-82.74
-101.06
-115.54
-126.58
-135.12
-141.80
-146.78
-149.98
-151.48
-151.63
-150.67
-148.12
-142.51
-131.84
-114.76
-91.52
-64.46
-37.12
-12.86
6.57
21.36
33.02
43.08
51.96
58.75
61.83
59.91
52.87
42.00
29.54
17.91
8.97
3.72
2.21
3.80
7.37
11.53
14.93
16.34
14.87
10.10
1.99
-8.96
-21.73
-34.91
-46.88
-56.22
-62.06
-64.31
-63.58
-60.66
-55.94
-49.07
-39.10
-25.05
-6.81
14.46
36.38
56.11
71.34
80.91
85.00
84.63
81.07
75.19
67.45
58.18
48.09
38.56
31.46
28.41
29.87
34.79
40.66
44.57
44.36
39.51
31.15
21.29
11.70
3.11
-4.96
-13.70
-24.35
-37.72
-53.99
-72.62
-92.19
-110.27
-123.65
-129.08
-124.32
-109.16
-85.76
-58.04
-30.41
-6.45
11.81
23.96
30.63
32.89
31.77
28.18
22.89
16.53
9.60
2.51
-4.33
-10.52
-15.82
-20.36
-24.75
-30.04
-37.36
-47.57
-61.04
-77.63
-96.79
-117.60
-138.64
-157.96
-173.31
-182.75
-185.43
-181.99
-174.24
-164.36
-153.73
-142.48
-129.63
-113.88
-94.41
-71.18
-44.75
-15.76
15.23
47.62
80.42
112.06
140.51
163.80
180.45
189.83
192.13
188.25
179.76
168.87
158.29
150.70
147.98
150.58
157.22
165.50
172.78
177.25
178.33
176.46
172.40
166.51
158.39
147.02
131.34
110.84
86.09
58.89
32.12
9.24
-6.54
-12.94
-9.28
3.39
22.61
45.16
67.85
88.18
104.62
116.63
124.38
128.38
129.13
127.13
122.88
117.17
111.17
106.22
103.46
103.29
105.18
107.79
109.58
109.42
107.00
102.69
97.15
90.67
83.00
73.36
60.85
44.84
25.18
2.23
-23.20
-49.74
-75.38
-97.37
-112.57
-118.14
-112.57
-96.54
-73.02
-46.64
-22.29
-3.70
7.50
11.83
11.18
7.72
3.02
-2.22
-7.87
-13.88
-19.97
-25.70
-30.75
-35.21
-39.58
-44.43
-49.93
-55.64
-60.52
-63.51
-64.07
-62.65
-60.64
-59.90
-62.02
-67.78
-76.97
-88.57
-101.28
-113.66
-124.17
-130.85
-131.26
-122.82
-103.60
-73.33
-33.99
10.32
54.33
92.86
122.02
139.78
145.99
141.92
129.86
112.78
94.18
77.80
67.30
65.65
74.65
94.46
123.46
158.50
195.45
229.80
257.25
274.29
278.55
269.03
246.16
211.67
168.24
119.19
67.90
17.42
-29.89
-72.32
-108.60
-137.56
-157.79
-167.84
-166.62
-154.05
-131.41
-101.54
-68.39
-36.30
-9.11
10.62
21.96
25.55
23.11
16.79
8.42
-0.77
-10.20
-19.61
-28.69
-36.90
-43.65
-48.70
-52.34
-55.39
-58.77
-62.98
-67.63
-71.52
-73.14
-71.30
-65.86
-57.93
-49.59
-43.29
-41.15
-44.41
-53.15
-66.27
-81.62
-96.32
-107.33
-112.07
-109.20
-99.03
-83.54
-65.77
-48.82
-34.91
-24.90
-18.32
-13.88
-10.25
-6.42
-2.01
2.87
7.74
12.04
15.22
16.90
16.92
15.51
13.16
10.58
8.38
6.84
5.74
4.43
2.01
-2.29
-8.86
-17.53
-27.61
-38.00
-47.60
-55.64
-61.97
-67.15
-72.09
-77.45
-82.99
-87.28
-88.07
-83.07
-70.94
-51.92
-27.81
-1.24
25.19
49.71
71.45
90.14
105.47
116.81
123.09
123.21
116.60
103.61
85.59
64.65
43.09
22.81
4.96
-10.18
-22.83
-33.31
-41.65
-47.48
-50.28
-49.67
-45.76
-39.28
-31.33
-23.17
-15.84
-10.20
-6.91
-6.54
-9.48
-15.65
-24.13
-33.05
-39.99
-42.71
-40.08
-32.63
-22.33
-11.83
-3.37
2.00
4.46
5.06
4.87
4.42
3.47
1.40
-2.35
-7.83
-14.41
-20.98
-26.34
-29.63
-30.57
-29.50
-27.17
-24.42
-21.88
-19.93
-18.71
-18.29
-18.80
-20.40
-23.32
-27.78
-34.06
-42.39
-52.88
-65.11
-77.87
-89.00
-95.68
-95.25
-86.18
-68.83
-45.61
-20.29
3.11
21.67
34.26
41.53
45.28
47.49
49.50
51.80
54.14
55.93
56.78
56.60
55.69
54.46
53.30
52.41
51.85
51.63
51.75
52.28
53.19
54.21
54.77
53.98
50.84
44.51
34.55
21.03
4.58
-13.60
-31.70
-47.36
-57.87
-60.80
-54.82
-40.41
-20.02
2.52
23.08
38.51
47.40
50.15
48.26
43.43
36.75
28.51
18.34
5.81
-9.13
-25.84
-43.06
-59.00
-71.78
-79.83
-82.29
-79.37
-72.37
-63.43
-54.99
-49.11
-47.07
-49.14
-54.74
-62.77
-71.99
-81.30
-89.92
-97.46
-103.94
-109.43
-113.65
-115.57
-113.41
-105.12
-89.25
-65.78
-36.37
-3.97
28.15
57.34
82.24
102.66
119.02
131.51
139.44
141.06
134.09
116.94
90.03
56.57
22.31
-5.98
-22.72
-25.50
-15.84
1.64
21.19
37.94
49.26
54.96
56.49
55.96
55.17
55.14
55.87
56.33
54.46
47.59
33.19
10.06
-20.59
-54.60
-85.60
-106.55
-112.13
-100.37
-73.28
-36.04
4.87
43.68
76.82
103.30
124.22
141.73
157.91
173.95
189.93
205.09
218.49
229.60
238.48
245.62
251.51
256.48
260.81
265.09
270.14
276.58
283.97
290.45
293.07
288.99
276.89
257.50
233.64
208.97
186.63
168.24
153.87
142.63
133.40
125.14
116.76
107.25
95.79
82.10
66.52
49.99
33.72
18.74
5.35
-7.54
-21.46
-37.58
-56.09
-75.97
-95.32
-111.98
-124.46
-132.67
-139.74
-149.30
-164.05
-184.61
-209.54
-236.17
-261.54
-283.50
-301.63
-320.67
-345.41
-378.78
-420.95
-469.68
-520.98
-569.06
-606.66
-626.47
-628.28
-614.24
-588.57
-557.64
-529.72
-513.33
-513.54
-528.70
-549.88
-570.05
-580.03
-571.56
-541.08
-491.64
-431.97
-372.01
-318.61
-234.97
-105.73
58.10
224.29
362.04
458.81
518.31
552.04
571.65
584.73
587.44
575.04
546.24
503.98
453.86
401.75
352.55
309.46
273.27
237.63
196.39
153.31
110.86
72.15
40.03
16.66
3.02
-1.33
-1.50
-2.35
-6.58
-15.11
-26.93
-40.79
-55.54
-69.51
-79.64
-83.11
-76.55
-57.76
-28.42
6.38
39.33
64.01
77.56
81.39
79.10
74.78
70.50
65.89
59.70
51.40
42.37
35.54
33.71
37.46
44.04
48.16
44.08
29.57
7.42
-15.13
-29.63
-30.42
-17.19
5.34
30.28
51.86
67.57
77.19
81.59
79.77
69.15
47.52
15.95
-19.63
-49.96
-66.55
-66.26
-52.62
-34.31
-19.62
-11.99
-9.30
-7.29
-4.28
-3.59
-11.36
-31.25
-59.92
-86.77
-98.29
-85.87
-50.75
-4.60
35.57
55.10
48.16
19.43
-18.76
-52.24
-71.11
-72.83
-61.83
-45.76
-31.16
-20.50
-12.59
-5.04
2.57
7.48
4.91
-8.91
-33.93
-66.62
-99.99
-127.69
-146.56
-157.22
-162.35
-165.19
-168.30
-171.57
-173.14
-170.96
-164.05
-153.14
-140.45
-128.41
-119.19
-113.76
-111.57
-111.09
-110.38
-107.71
-101.72
-94.23
-86.17
-78.04
-69.87
-61.26
-51.76
-41.15
-29.58
-17.55
-5.66
6.01
17.50
29.02
40.85
53.19
65.97
78.84
91.27
102.62
112.92
122.78
133.58
147.11
164.56
185.36
206.54
223.21
230.15
223.90
203.44
170.40
128.46
82.36
37.31
-1.74
-31.10
-49.23
-57.27
-58.89
-59.08
-62.49
-71.87
-87.39
-106.99
-127.37
-144.95
-156.50
-159.66
-153.28
-137.76
-115.05
-88.03
-59.76
-32.61
-7.86
14.31
34.72
55.10
77.73
104.59
136.50
172.26
208.85
242.27
268.68
285.14
289.84
281.76
260.91
229.17
191.35
154.89
128.03
116.50
120.89
136.25
154.53
168.65
175.37
175.35
170.60
161.52
146.26
123.21
93.88
63.94
41.00
30.15
30.61
36.00
38.13
31.67
16.74
-1.81
-17.58
-26.24
-27.36
-24.26
-22.00
-25.31
-37.03
-57.07
-82.17
-106.80
-124.99
-132.92
-130.51
-121.05
-109.17
-98.19
-88.94
-80.28
-70.79
-60.37
-50.55
-43.39
-40.09
-40.21
-41.81
-42.43
-40.37
-35.40
-28.69
-22.07
-16.92
-13.35
-9.92
-4.41
5.07
18.81
35.20
51.50
65.13
74.82
80.71
83.73
84.61
83.46
79.79
73.20
63.99
53.55
44.06
37.77
36.60
41.38
51.42
64.38
76.41
82.77
78.83
61.41
30.11
-11.56
-56.10
-93.28
-112.96
-108.96
-81.98
-40.39
2.35
32.76
42.61
31.90
8.14
-17.69
-36.02
-42.32
-37.73
-26.86
-14.51
-3.29
6.83
17.21
28.68
40.44
50.52
57.17
60.11
60.90
62.09
65.69
71.99
79.29
84.82
86.24
82.86
76.02
68.48
63.22
62.39
66.73
75.50
86.91
98.80
109.23
116.92
121.34
122.63
121.53
119.33
117.88
119.47
126.58
141.19
163.87
193.11
225.01
254.00
274.32
281.72
274.85
255.46
227.51
195.34
162.07
128.78
94.80
59.18
21.76
-16.05
-52.08
-84.64
-114.12
-143.31
-176.41
-216.66
-264.16
-315.06
-362.52
-398.81
-417.43
-414.56
-389.76
-346.19
-290.68
-233.42
-186.59
-161.66
-165.67
-197.98
-249.38
-304.74
-348.41
-369.85
-366.61
-343.58
-309.11
-270.42
-231.13
-191.09
-148.75
-103.57
-57.56
-14.76
20.25
44.05
55.05
53.25
39.92
17.37
-10.74
-39.66
-64.45
-81.01
-86.94
-81.25
-63.85
-35.05
4.02
50.35
98.26
139.91
167.41
175.61
164.15
137.36
102.66
67.79
38.48
17.52
5.04
-0.55
-1.52
-0.10
2.06
4.47
7.97
14.44
25.96
43.61
66.68
92.51
117.39
138.15
153.36
163.83
171.89
180.04
189.35
198.91
206.28
208.98
205.78
197.30
185.64
173.09
161.24
150.35
139.69
127.97
113.78
95.47
71.10
39.03
-0.83
-45.89
-90.99
-130.11
-159.04
-177.05
-186.74
-191.97
-195.00
-194.76
-187.49
-169.45
-139.83
-101.89
-61.84
-25.74
2.95
24.21
40.05
52.51
61.95
67.18
66.51
58.88
44.76
25.81
4.41
-17.26
-37.71
-56.07
-71.74
-83.85
-91.11
-92.22
-86.79
-76.01
-62.97
-51.67
-45.15
-44.13
-46.68
-49.38
-49.21
-45.10
-37.97
-29.70
-21.67
-14.09
-6.38
1.70
9.36
15.06
17.38
16.12
12.67
9.51
9.14
12.90
20.66
30.85
41.34
50.16
56.13
58.86
58.27
54.44
47.63
38.72
29.35
21.55
16.85
15.46
16.09
16.55
14.86
10.02
2.16
-7.92
-19.34
-31.23
-42.76
-52.95
-60.77
-65.48
-66.91
-65.54
-62.08
-57.07
-50.67
-43.00
-34.43
-25.69
-17.57
-10.51
-4.35
1.62
8.03
14.88
21.39
26.32
28.74
28.71
27.26
25.82
25.18
24.86
23.36
19.18
11.92
2.67
-6.46
-13.47
-17.52
-19.12
-19.71
-20.92
-23.85
-28.81
-35.59
-43.57
-52.10
-60.54
-68.32
-75.06
-80.54
-84.68
-87.45
-88.73
-88.16
-85.24
-79.47
-70.55
-58.80
-45.02
-30.59
-16.93
-5.20
3.97
10.14
12.83
11.32
5.12
-5.22
-17.55
-28.41
-34.14
-32.22
-22.13
-5.19
16.28
39.73
62.83
83.20
98.27
105.39
102.54
89.17
66.78
38.53
8.20
-20.82
-46.06
-65.61
-77.49
-79.58
-70.12
-49.03
-18.75
15.86
48.84
75.17
92.50
101.38
104.37
104.20
102.42
99.16
93.92
86.68
78.33
70.32
63.87
59.33
56.30
54.11
52.33
50.79
49.43
48.09
46.57
44.79
42.84
40.84
38.54
35.34
30.60
24.25
17.22
11.22
7.87
7.72
9.58
10.96
9.28
3.07
-7.45
-20.86
-35.32
-49.17
-60.98
-69.30
-72.67
-70.07
-61.63
-48.85
-34.18
-19.96
-7.48
3.37
13.47
23.62
33.78
43.02
50.10
54.21
55.27
53.91
50.98
47.20
43.06
39.02
35.53
32.97
31.48
30.68
29.90
28.44
25.89
22.12
17.23
11.32
4.44
-3.28
-11.38
-19.03
-25.28
-29.47
-31.35
-30.96
-28.43
-23.81
-17.48
-10.75
-6.04
-6.19
-13.37
-28.03
-48.55
-71.65
-93.24
-109.23
-116.34
-112.83
-99.20
-78.48
-55.59
-35.59
-21.68
-13.93
-9.83
-6.04
-0.52
6.45
12.89
16.63
16.69
13.77
9.50
5.37
1.97
-1.12
-4.89
-10.02
-16.14
-21.67
-24.42
-22.62
-16.05
-6.40
3.45
11.03
15.70
19.05
23.77
31.64
42.16
52.55
59.23
60.00
55.29
47.94
41.80
39.86
43.30
51.38
62.33
74.36
86.36
97.83
108.48
117.73
124.47
127.22
124.69
116.26
102.39
84.41
63.88
41.90
18.63
-6.26
-32.69
-59.20
-82.92
-100.43
-109.10
-108.33
-99.79
-86.74
-72.71
-60.18
-49.97
-41.53
-33.87
-26.64
-20.55
-17.19
-17.98
-22.96
-30.28
-36.55
-38.15
-32.92
-21.22
-5.71
10.06
23.33
32.95
38.86
40.94
38.05
28.49
11.35
-11.92
-37.10
-58.53
-71.55
-74.56
-69.56
-60.73
-52.09
-45.54
-40.35
-34.39
-25.85
-14.36
-0.79
13.95
29.79
47.52
67.88
90.25
112.34
130.83
142.85
147.14
144.56
137.38
127.94
117.47
105.73
91.60
74.15
53.56
31.38
9.94
-8.50
-22.58
-32.23
-38.59
-43.27
-47.57
-51.97
-56.47
-61.40
-68.22
-79.15
-95.87
-117.84
-141.48
-161.04
-170.95
-168.30
-154.22
-133.13
-110.43
-89.93
-72.71
-57.71
-43.39
-29.17
-15.74
-4.22
4.87
12.07
18.55
25.20
31.90
37.60
40.94
41.29
39.30
36.62
35.14
35.97
38.88
42.63
45.55
46.60
45.68
43.53
40.94
37.99
33.76
26.89
16.49
2.75
-13.09
-29.42
-45.00
-59.16
-71.54
-81.53
-87.98
-89.38
-84.50
-73.14
-56.29
-35.91
-14.14
7.34
27.48
45.42
60.00
69.59
72.69
68.65
58.19
43.42
27.09
11.88
-0.39
-8.99
-14.17
-16.82
-18.11
-19.14
-20.70
-23.29
-27.33
-33.58
-43.15
-57.11
-75.43
-96.14
-115.22
-127.53
-128.88
-117.60
-95.01
-64.40
-29.47
6.70
41.83
73.67
99.76
117.68
126.05
125.39
118.00
107.16
95.66
85.12
75.83
67.42
59.46
51.81
44.76
38.81
34.57
32.54
32.87
35.08
38.01
40.15
40.15
37.40
32.04
24.92
16.95
8.67
0.02
-9.44
-20.10
-31.87
-44.05
-55.63
-65.60
-73.31
-78.43
-80.79
-80.31
-76.88
-70.67
-62.19
-52.25
-41.61
-30.70
-19.59
-8.28
2.82
12.85
20.72
25.78
28.25
29.08
29.55
30.45
31.75
32.64
32.06
29.39
24.83
19.27
13.83
9.37
6.07
3.54
1.02
-2.32
-7.15
-13.72
-21.75
-30.37
-38.38
-44.65
-48.50
-49.82
-48.91
-46.16
-41.73
-35.57
-27.76
-18.73
-9.36
-0.59
7.14
14.04
20.76
27.56
33.88
38.55
40.51
39.69
37.16
34.60
33.25
33.19
33.29
31.98
28.30
22.62
16.37
11.22
7.99
6.20
4.47
1.31
-4.07
-11.52
-20.22
-29.24
-38.06
-46.50
-54.53
-61.86
-67.78
-71.26
-71.24
-67.04
-58.55
-46.41
-31.95
-16.92
-2.97
8.65
17.52
24.04
29.15
33.81
38.45
42.73
45.67
46.34
44.31
40.07
34.79
29.74
25.81
23.13
21.21
19.36
17.17
14.66
12.16
10.02
8.30
6.64
4.56
1.49
-2.98
-9.18
-17.23
-27.06
-38.32
-50.33
-61.93
-71.73
-78.36
-81.01
-79.67
-75.24
-68.97
-61.89
-54.32
-45.97
-36.20
-24.54
-11.10
3.37
17.66
30.45
40.66
47.62
51.25
52.08
50.93
48.68
45.98
43.11
40.04
36.75
33.26
29.69
26.07
22.28
18.07
13.23
7.84
2.26
-3.07
-7.94
-12.41
-16.79
-21.29
-25.82
-29.89
-32.96
-34.56
-34.53
-32.94
-29.93
-25.64
-20.17
-13.56
-6.00
2.25
10.93
19.91
29.28
39.31
50.12
61.37
72.07
80.72
85.90
86.86
83.90
78.27
71.61
65.35
60.19
56.04
52.25
48.11
43.13
37.21
30.53
23.35
15.89
8.28
0.43
-7.92
-17.06
-26.99
-37.20
-46.77
-54.60
-60.00
-62.91
-63.84
-63.45
-62.14
-59.87
-56.30
-51.17
-44.48
-36.50
-27.66
-18.43
-9.18
-0.27
7.90
14.69
19.42
21.42
20.29
16.18
9.82
2.52
-4.23
-9.15
-11.44
-10.85
-7.61
-2.24
4.66
12.36
19.96
26.39
30.55
31.42
28.39
21.30
10.53
-2.96
-17.84
-32.61
-45.85
-56.46
-63.64
-66.94
-66.26
-61.83
-54.30
-44.78
-34.75
-25.55
-17.96
-11.82
-6.12
0.37
8.43
17.82
27.28
35.05
39.58
40.31
37.94
34.05
30.27
27.49
25.63
23.94
21.82
19.22
16.62
14.65
13.57
13.04
12.18
9.97
5.75
-0.47
-8.01
-15.86
-23.01
-28.89
-33.68
-38.10
-43.07
-49.15
-56.11
-62.88
-68.15
-70.84
-70.72
-68.21
-63.97
-58.48
-51.75
-43.43
-33.13
-20.71
-6.62
8.01
21.54
32.27
38.91
41.13
39.68
35.97
31.43
26.98
22.94
19.33
16.37
14.55
14.37
15.75
17.69
18.60
17.01
12.23
4.69
-4.27
-13.05
-20.42
-25.93
-30.02
-33.67
-38.12
-44.19
-51.87
-60.10
-66.74
-68.98
-64.14
-50.70
-29.20
-2.42
25.22
49.16
66.22
75.75
79.41
80.28
81.22
83.60
86.97
89.62
89.16
83.15
69.53
47.49
18.39
-13.63
-42.24
-61.13
-66.89
-60.96
-49.31
-39.68
-37.63
-43.59
-52.54
-56.78
-50.16
-31.38
-4.65
22.54
42.95
52.37
50.42
39.33
22.14
1.35
-21.30
-43.95
-63.85
-77.59
-82.16
-76.22
-60.49
-37.19
-8.89
22.28
54.53
85.87
113.83
135.86
150.48
157.95
160.15
159.59
158.20
156.88
156.03
156.51
159.80
167.35
179.01
192.25
202.67
205.91
199.50
183.87
161.67
135.92
108.51
79.65
48.92
16.64
-15.36
-44.29
-67.48
-83.60
-93.05
-97.38
-98.52
-97.91
-96.22
-93.24
-87.91
-78.17
-61.29
-34.74
2.31
47.36
94.05
133.46
156.86
159.03
140.36
106.34
65.09
23.91
-13.46
-47.27
-80.54
-116.90
-158.95
-207.59
-261.95
-319.33
-374.85
-421.83
-452.99
-462.71
-449.57
-417.10
-372.62
-324.28
-277.80
-234.67
-192.59
-147.82
-98.22
-45.16
6.42
49.82
79.20
92.00
89.56
76.14
56.96
36.21
16.30
-1.46
-15.65
-24.06
-24.28
-15.33
0.81
19.05
32.78
36.52
28.33
10.69
-10.43
-27.64
-34.82
-29.07
-11.62
12.75
37.35
55.90
64.56
62.86
53.39
40.39
28.04
19.08
14.45
13.56
15.19
18.00
20.92
23.26
24.57
24.55
23.09
20.44
17.38
15.20
15.30
18.62
25.13
33.49
41.58
47.47
50.40
51.26
52.12
55.00
60.78
68.54
76.00
80.58
80.45
75.15
65.38
52.44
37.54
21.44
4.51
-13.12
-31.22
-49.29
-66.63
-82.24
-94.77
-102.50
-103.73
-97.31
-83.22
-62.69
-37.92
-11.38
14.89
39.41
61.19
79.40
93.28
102.22
106.08
105.36
101.18
94.96
88.00
81.30
75.34
70.31
66.18
62.78
59.92
57.36
54.86
52.18
49.08
45.41
41.08
36.09
30.38
23.79
16.08
7.20
-2.48
-12.16
-20.99
-28.50
-34.80
-40.40
-45.58
-50.09
-53.11
-53.71
-51.46
-46.54
-39.64
-31.43
-22.21
-12.02
-0.96
10.39
21.01
29.66
35.34
37.53
36.36
32.34
26.18
18.57
10.11
1.26
-7.49
-15.61
-22.55
-27.79
-30.93
-31.85
-30.77
-28.38
-25.68
-23.84
-23.80
-26.07
-30.64
-37.01
-44.52
-52.39
-59.90
-66.28
-70.62
-72.13
-70.33
-65.44
-58.27
-49.89
-40.97
-31.50
-20.89
-8.51
5.64
20.68
35.09
47.36
56.65
63.07
67.38
70.41
72.45
73.18
71.98
68.57
63.39
57.48
51.95
47.32
43.31
39.05
33.74
27.21
20.09
13.48
8.33
5.03
3.41
2.99
3.32
4.08
4.97
5.59
5.35
3.77
0.81
-2.97
-6.41
-8.01
-6.37
-0.64
9.14
21.85
35.57
48.03
57.29
62.39
63.36
60.86
55.54
47.66
37.45
25.74
14.48
6.18
2.79
4.36
8.74
12.56
13.09
9.61
3.55
-2.73
-7.60
-11.17
-15.10
-21.29
-30.62
-42.43
-55.04
-66.70
-76.34
-83.61
-88.36
-90.29
-88.80
-83.32
-73.85
-61.02
-45.96
-29.95
-14.12
0.66
13.59
23.86
30.70
33.65
33.03
30.03
26.39
23.67
22.60
22.84
23.28
22.69
20.33
16.22
10.98
5.38
-0.06
-5.17
-10.02
-14.68
-19.11
-23.32
-27.45
-31.75
-36.44
-41.37
-45.93
-49.10
-49.67
-46.68
-39.83
-29.71
-17.95
-6.66
2.26
7.88
10.63
11.97
13.66
16.76
21.07
25.17
27.24
26.20
22.40
17.57
14.05
13.69
17.06
23.31
30.69
37.39
42.25
44.83
45.13
43.19
38.94
32.38
24.04
15.10
7.05
0.94
-3.28
-6.79
-11.34
-18.35
-28.21
-40.08
-52.15
-62.30
-68.69
-70.22
-66.78
-59.06
-48.26
-35.51
-21.45
-6.24
10.08
27.09
43.60
57.88
68.20
73.69
74.69
72.46
68.60
64.18
59.54
54.47
48.77
42.66
36.68
31.45
27.13
23.28
19.10
13.86
7.28
-0.33
-8.34
-16.27
-24.10
-32.18
-40.92
-50.29
-59.69
-68.09
-74.41
-77.93
-78.51
-76.48
-72.41
-66.79
-60.06
-52.55
-44.53
-36.03
-26.88
-16.71
-5.32
6.94
19.00
29.42
36.96
41.23
42.82
42.88
42.44
41.85
40.80
38.87
36.09
33.20
31.19
30.57
30.94
31.21
30.13
27.05
22.15
16.20
9.95
3.76
-2.49
-8.95
-15.60
-22.05
-27.76
-32.37
-35.95
-38.85
-41.43
-43.71
-45.28
-45.36
-43.11
-37.94
-29.56
-17.95
-3.21
14.51
34.73
56.40
77.71
96.36
110.20
117.86
119.17
115.09
107.26
97.31
86.71
76.71
68.67
64.02
64.13
69.67
80.10
93.56
107.22
118.04
123.63
122.66
114.84
100.53
80.19
53.91
21.35
-17.85
-63.23
-112.75
-162.50
-207.16
-241.16
-260.22
-262.58
-249.32
-223.70
-189.97
-152.01
-112.67
-73.89
-37.25
-4.51
22.17
40.37
47.97
43.80
28.19
3.49
-26.07
-55.08
-78.39
-92.47
-96.42
-91.78
-81.43
-68.09
-53.30
-37.39
-20.21
-2.11
15.62
31.18
43.02
50.63
54.59
56.17
56.59
56.32
55.03
51.88
46.18
37.92
28.03
18.18
10.46
6.65
7.91
14.54
26.08
41.55
59.75
79.33
98.93
117.22
132.99
145.28
153.63
158.30
160.34
161.10
161.55
161.48
159.28
152.70
140.21
122.36
102.16
84.18
72.57
69.08
72.34
78.72
84.38
87.30
87.99
88.72
91.87
98.32
106.94
115.29
120.62
120.93
115.14
102.90
84.00
58.43
27.10
-7.61
-42.34
-73.61
-99.08
-117.82
-129.87
-135.45
-134.74
-128.32
-118.00
-107.16
-100.16
-101.11
-112.54
-134.91
-166.76
-204.96
-244.73
-279.69
-302.59
-307.30
-291.28
-257.26
-212.50
-165.66
-123.21
-87.65
-58.37
-34.26
-15.98
-6.32
-8.28
-22.17
-44.29
-67.77
-85.35
-92.30
-88.08
-75.68
-59.83
-44.73
-32.71
-23.90
-16.82
-9.47
-0.39
10.46
21.45
29.88
33.33
30.89
23.90
15.22
7.82
3.24
0.95
-0.99
-4.55
-10.52
-18.11
-25.62
-31.65
-35.97
-39.51
-43.90
-50.58
-60.43
-73.62
-89.63
-107.52
-125.90
-142.75
-155.52
-161.41
-158.25
-145.62
-125.63
-102.77
-82.48
-69.06
-63.69
-63.95
-65.01
-62.12
-53.11
-39.66
-26.61
-19.88
-23.85
-39.55
-64.40
-93.13
-119.40
-137.43
-143.33
-135.65
-115.53
-86.01
-51.14
-14.80
19.97
50.95
76.57
95.54
106.89
110.20
106.02
95.97
82.39
67.78
54.32
43.66
37.12
35.86
40.80
52.30
69.63
90.77
112.87
133.10
149.48
161.46
169.73
175.51
179.87
183.19
185.09
184.79
181.63
175.50
166.87
156.71
146.20
136.49
128.50
122.93
120.06
119.63
120.82
122.43
123.19
122.20
119.28
114.96
110.34
106.62
104.68
104.77
106.57
109.38
112.69
116.59
121.77
129.13
138.82
149.43
157.74
159.47
150.81
129.95
97.74
57.20
12.24
-33.86
-79.10
-122.36
-162.59
-198.08
-226.45
-245.48
-253.50
-249.39
-232.13
-200.86
-155.88
-100.33
-41.18
11.97
49.87
67.38
65.45
50.19
29.59
9.75
-7.06
-21.61
-35.20
-47.51
-56.30
-59.18
-55.76
-48.73
-42.69
-41.74
-47.24
-57.12
-67.07
-72.70
-71.79
-65.08
-55.74
-47.69
-43.67
-43.97
-46.50
-47.92
-45.32
-37.47
-25.12
-10.15
5.42
20.31
33.85
45.55
54.64
60.13
61.34
58.51
52.94
46.57
41.34
38.50
38.37
40.38
43.32
45.85
46.80
45.25
40.51
31.93
18.89
1.23
-20.45
-44.40
-67.89
-87.98
-102.55
-110.94
-113.99
-113.27
-110.18
-105.33
-98.61
-89.83
-79.26
-67.71
-56.00
-44.55
-33.11
-21.16
-8.50
4.32
15.95
24.73
29.47
30.06
27.53
23.62
19.98
17.45
15.80
14.01
11.06
6.65
1.45
-3.16
-5.77
-5.78
-3.92
-1.96
-2.13
-6.04
-13.98
-24.78
-36.25
-45.98
-52.20
-54.22
-52.32
-47.53
-40.99
-33.71
-26.27
-18.94
-11.75
-4.51
3.01
11.12
19.96
29.54
39.50
49.17
57.62
63.93
67.37
67.59
64.71
59.28
52.28
45.03
38.85
34.86
33.56
34.57
36.66
38.00
36.82
32.19
24.24
14.03
2.92
-8.19
-19.26
-30.95
-43.95
-58.26
-72.90
-86.11
-96.04
-101.41
-101.78
-97.43
-88.99
-77.20
-63.03
-47.77
-32.97
-20.10
-9.83
-1.67
5.85
14.38
24.70
36.06
46.47
53.64
56.12
53.92
48.42
41.63
35.41
30.84
28.30
27.59
28.31
29.89
31.52
32.32
31.40
28.38
23.48
17.48
11.42
6.13
1.87
-1.85
-6.07
-12.06
-20.69
-31.82
-44.01
-54.80
-61.67
-63.20
-59.97
-54.38
-49.60
-47.80
-49.09
-51.39
-51.59
-47.05
-36.73
-21.44
-3.21
15.49
32.50
46.05
54.91
58.44
56.81
51.18
43.43
35.63
29.36
25.39
23.65
23.63
24.67
25.92
26.37
24.87
20.41
12.71
2.65
-7.70
-15.59
-18.56
-15.45
-7.12
3.71
13.33
18.40
17.10
9.74
-1.52
-13.55
-23.48
-29.49
-31.16
-29.26
-25.04
-19.53
-13.16
-5.66
3.54
15.05
28.97
44.66
60.74
75.38
86.75
93.55
95.32
92.52
86.21
77.72
68.26
58.68
49.61
41.63
35.40
31.55
30.25
30.99
32.56
33.55
32.81
29.77
24.38
16.86
7.66
-2.69
-13.39
-23.64
-33.00
-41.74
-50.77
-61.04
-72.74
-84.79
-95.01
-100.99
-101.06
-94.94
-83.75
-69.36
-53.75
-38.48
-24.39
-11.58
0.47
12.47
24.70
36.47
45.93
50.75
49.35
42.10
31.43
20.84
13.26
9.59
8.72
8.14
5.79
0.80
-6.57
-15.61
-25.84
-36.95
-48.23
-58.31
-65.37
-68.15
-66.78
-62.52
-56.84
-50.46
-42.95
-33.43
-21.67
-9.12
1.27
6.07
3.07
-7.50
-22.81
-38.19
-48.50
-49.64
-39.86
-20.47
4.21
28.27
46.48
55.95
57.43
54.49
51.47
51.41
55.34
62.36
70.66
78.35
83.49
83.70
76.27
59.00
32.00
-1.11
-33.56
-57.96
-69.34
-67.75
-58.02
-47.28
-41.62
-43.48
-51.21
-60.37
-65.99
-64.73
-56.03
-41.96
-26.30
-12.83
-4.05
-0.58
-1.44
-4.91
-9.37
-14.14
-18.94
-23.61
-27.93
-31.16
-32.74
-32.69
-31.31
-28.92
-25.47
-20.56
-14.00
-6.40
0.89
6.28
8.53
7.35
3.13
-3.35
-11.18
-19.41
-26.84
-31.99
-33.50
-30.73
-24.11
-15.08
-5.74
1.99
6.90
8.79
8.40
6.73
4.64
2.36
-0.53
-4.67
-10.54
-18.05
-26.40
-34.28
-40.42
-43.90
-44.46
-42.63
-39.59
-36.69
-34.77
-33.75
-32.48
-29.14
-22.06
-10.53
4.82
22.18
39.32
54.14
65.22
71.87
73.92
71.60
65.49
56.48
45.80
34.78
24.79
17.06
12.56
11.87
14.70
19.72
24.69
27.14
25.15
18.14
7.10
-5.93
-18.81
-30.26
-40.11
-49.00
-57.51
-65.54
-72.11
-75.86
-75.99
-72.84
-67.83
-62.77
-58.80
-55.72
-52.09
-46.07
-36.56
-23.88
-9.63
4.07
15.40
23.48
28.21
30.03
29.60
27.72
25.35
23.65
23.86
26.99
33.58
43.52
56.20
70.71
85.88
100.34
112.43
120.31
122.29
117.35
105.55
88.14
67.39
46.04
26.83
12.01
2.94
-0.06
2.32
8.58
16.92
25.81
34.50
43.36
53.72
67.10
84.29
104.57
125.52
143.70
155.96
160.63
158.31
151.53
143.69
137.72
135.18
136.02
138.84
141.51
141.59
136.60
124.51
104.31
76.71
44.22
10.48
-21.05
-48.40
-71.78
-92.74
-112.95
-132.75
-150.79
-164.83
-173.03
-175.14
-172.55
-167.55
-161.95
-156.35
-150.13
-142.31
-132.45
-121.06
-109.19
-97.68
-86.61
-75.23
-62.70
-48.78
-34.24
-20.61
-9.51
-1.87
2.30
3.73
3.56
2.94
2.85
4.11
7.26
12.33
18.75
25.34
30.56
33.00
31.73
26.58
18.24
8.00
-2.56
-12.02
-19.50
-24.87
-28.60
-31.46
-33.94
-35.93
-36.71
-35.39
-31.55
-25.66
-18.82
-12.06
-5.58
1.27
9.37
18.80
28.35
35.94
39.79
39.52
36.38
32.35
28.82
25.67
21.47
14.86
5.89
-3.49
-10.15
-11.48
-6.79
2.27
12.52
20.65
24.52
23.65
18.86
11.51
2.80
-6.51
-15.78
-24.17
-30.61
-33.99
-33.77
-30.31
-24.85
-18.89
-13.59
-9.25
-5.45
-1.31
4.00
11.03
19.97
30.71
42.87
55.80
68.65
80.35
89.59
95.15
96.17
92.39
84.33
73.18
60.38
47.36
35.21
24.60
16.04
9.91
6.20
4.47
3.49
1.59
-2.45
-8.45
-14.53
-17.84
-16.18
-9.38
0.30
9.48
15.31
17.03
16.00
14.26
12.70
10.26
4.65
-5.90
-20.95
-37.61
-51.75
-60.37
-63.02
-61.84
-60.05
-60.09
-62.36
-65.60
-68.15
-68.98
-68.32
-66.87
-64.60
-60.36
-52.19
-38.85
-20.81
-0.29
19.34
34.75
43.65
45.33
40.28
29.83
15.71
-0.21
-16.30
-31.14
-43.73
-53.55
-60.52
-65.03
-67.72
-69.48
-71.19
-73.56
-76.80
-80.42
-83.11
-82.87
-77.53
-65.36
-45.86
-20.49
7.15
32.28
50.86
61.15
64.47
64.60
65.63
69.95
77.34
85.47
91.50
93.67
91.89
87.30
81.08
73.76
65.23
55.43
45.23
36.50
31.52
31.66
36.48
43.51
49.02
49.59
43.58
32.04
18.49
7.45
2.79
6.22
16.96
32.44
49.47
65.02
76.53
81.86
79.29
68.12
49.51
26.52
3.12
-17.70
-36.06
-55.16
-79.28
-110.73
-147.17
-181.83
-206.19
-213.87
-203.51
-178.71
-145.67
-109.92
-74.51
-40.27
-7.74
21.22
43.31
55.22
55.66
46.42
31.64
15.95
2.57
-7.58
-15.49
-22.79
-30.47
-38.38
-45.40
-50.17
-51.80
-49.98
-45.31
-38.96
-31.94
-24.88
-17.43
-8.69
2.09
14.66
27.31
37.30
41.87
39.37
30.11
16.55
2.57
-7.65
-10.96
-6.14
5.66
21.51
37.56
50.18
56.84
56.30
48.50
34.22
14.90
-7.23
-29.32
-48.39
-62.24
-70.30
-73.77
-74.93
-75.75
-76.84
-77.23
-75.09
-68.93
-58.51
-44.90
-29.84
-14.72
-0.10
14.20
28.58
43.04
56.98
69.45
79.62
87.10
91.81
93.68
92.28
86.82
76.62
61.89
44.23
26.39
11.58
2.39
-0.13
3.13
9.52
15.57
18.03
15.01
6.62
-5.12
-17.15
-26.59
-32.03
-33.88
-34.05
-34.58
-36.48
-39.25
-41.26
-40.87
-37.47
-31.83
-25.63
-20.62
-18.09
-18.44
-21.15
-24.83
-27.29
-25.92
-18.44
-3.86
16.69
40.03
61.92
78.67
88.45
91.73
90.55
87.06
82.43
76.59
68.89
59.23
48.65
39.07
32.32
28.88
27.40
25.30
20.11
10.96
-1.04
-13.27
-23.11
-29.22
-32.09
-33.59
-35.74
-39.71
-45.31
-51.27
-56.03
-58.29
-57.26
-52.45
-43.55
-30.46
-13.66
5.57
25.22
42.90
56.55
64.88
67.53
64.92
57.84
47.27
34.33
20.18
5.91
-7.59
-19.82
-30.46
-39.55
-47.74
-56.78
-69.81
-91.12
-124.80
-172.77
-232.99
-298.84
-360.42
-407.43
-432.35
-432.55
-410.57
-372.30
-324.25
-271.26
-215.61
-157.99
-99.36
-42.33
8.73
49.19
76.40
90.84
95.86
95.77
93.72
90.44
84.81
75.66
63.89
53.11
48.63
54.80
72.65
98.97
127.46
151.46
166.48
171.48
168.05
158.53
144.34
125.57
102.26
76.11
51.34
33.83
28.77
38.49
61.33
92.49
125.67
154.98
175.91
185.69
183.22
169.10
145.75
117.07
87.67
61.65
41.63
28.13
19.86
14.28
8.57
0.70
-9.81
-21.47
-31.27
-35.67
-32.19
-20.59
-2.93
17.18
35.87
49.89
57.06
56.00
46.27
28.90
6.80
-15.28
-32.19
-40.37
-39.64
-33.51
-27.69
-27.56
-35.74
-51.11
-69.45
-85.31
-94.20
-94.04
-85.41
-70.69
-52.63
-33.12
-12.85
8.38
30.69
53.47
75.30
94.47
109.88
121.34
129.28
133.89
134.71
130.78
121.63
108.31
93.54
80.95
73.39
71.67
74.10
77.44
78.49
75.40
68.15
57.94
46.43
34.96
24.37
15.33
8.54
4.62
3.59
4.49
5.34
3.96
-0.90
-8.63
-16.63
-21.24
-19.27
-9.45
6.99
26.89
46.58
63.33
76.24
86.18
94.83
103.54
112.63
121.36
128.24
131.52
129.75
121.93
107.89
88.29
64.81
39.68
15.16
-6.98
-25.69
-40.51
-51.33
-58.34
-62.12
-63.77
-64.83
-66.91
-71.22
-78.34
-88.30
-100.60
-114.33
-127.97
-139.44
-146.54
-147.66
-142.56
-132.50
-119.68
-106.14
-92.76
-79.26
-64.87
-49.29
-33.21
-18.06
-5.34
4.17
10.69
15.07
18.31
21.01
23.34
25.02
25.61
24.59
21.55
16.41
9.53
1.84
-5.41
-10.97
-14.06
-14.50
-12.72
-9.62
-6.28
-3.80
-3.10
-4.66
-8.30
-12.99
-17.10
-18.80
-16.88
-11.14
-2.51
7.48
17.35
26.24
33.98
40.86
47.34
53.85
60.78
68.44
77.00
86.29
95.65
103.87
109.66
112.19
111.58
109.00
106.01
103.77
102.35
100.70
97.45
91.86
84.30
76.08
68.78
63.36
59.91
57.78
56.04
53.87
50.55
45.40
37.82
27.69
15.82
4.19
-4.40
-7.44
-3.69
6.44
21.08
37.81
54.46
69.55
82.34
92.70
101.11
108.82
117.62
129.40
145.14
164.03
183.05
197.87
204.19
199.39
183.31
158.09
126.98
93.03
58.39
24.10
-9.47
-42.16
-73.83
-104.40
-134.09
-163.29
-192.33
-221.32
-250.17
-278.83
-307.45
-335.96
-363.28
-386.68
-401.89
-404.03
-389.40
-356.82
-307.83
-246.15
-176.42
-103.18
-30.99
35.26
90.27
129.24
149.56
152.24
142.09
126.09
111.00
100.78
95.53
92.07
85.91
73.25
52.56
24.80
-7.54
-41.81
-76.33
-110.82
-145.67
-180.76
-214.32
-243.10
-263.44
-272.89
-271.41
-260.98
-243.66
-219.76
-187.37
-143.84
-88.93
-27.23
31.98
77.92
103.30
107.73
97.89
83.85
74.02
71.48
73.96
77.12
78.29
78.50
81.25
89.26
101.44
112.52
115.76
106.96
87.43
63.84
45.04
37.46
42.00
53.94
65.94
71.98
70.10
62.57
53.64
47.15
45.08
47.87
55.62
68.66
87.17
110.17
135.08
158.43
177.66
192.09
202.76
211.00
216.81
218.54
214.03
202.22
184.03
161.85
138.18
114.16
89.33
62.37
31.98
-2.55
-41.30
-83.83
-128.98
-174.57
-217.42
-253.89
-280.85
-296.63
-301.40
-297.04
-286.64
-273.99
-262.80
-255.68
-252.85
-251.42
-245.76
-229.07
-196.34
-146.82
-84.96
-19.33
39.93
84.20
108.33
111.37
95.92
66.37
27.07
-19.05
-70.62
-126.60
-184.55
-239.36
-283.68
-310.09
-313.97
-295.24
-258.04
-208.69
-152.99
-94.68
-35.61
22.55
76.49
120.54
147.81
152.67
133.29
93.45
42.08
-9.03
-48.90
-70.88
-74.17
-62.75
-42.44
-17.80
9.28
38.52
68.94
96.69
115.43
118.95
104.76
76.21
41.47
9.83
-12.92
-26.94
-37.35
-50.27
-68.10
-87.55
-101.31
-102.38
-88.39
-63.19
-34.73
-10.76
4.98
13.57
18.59
22.97
27.11
29.47
28.96
26.97
27.45
34.80
51.21
74.96
101.25
124.30
140.01
147.11
146.93
142.11
135.29
128.47
122.92
119.50
118.65
120.24
123.48
127.05
129.53
129.95
128.02
124.04
118.51
111.98
104.98
98.32
92.91
89.39
87.65
86.55
84.29
79.18
70.30
57.83
42.67
25.85
8.54
-7.66
-20.19
-25.94
-22.48
-9.69
9.31
28.94
43.71
50.89
51.89
51.05
52.67
58.23
65.66
71.05
72.12
70.08
69.21
73.96
85.38
99.32
107.67
102.25
79.21
40.82
-5.70
-52.17
-93.05
-126.60
-153.03
-171.34
-177.60
-166.26
-133.96
-83.72
-25.95
24.81
56.17
63.93
53.92
38.40
29.29
31.81
41.96
49.33
43.35
19.51
-17.43
-55.97
-84.20
-96.55
-96.98
-95.90
-103.09
-120.66
-140.40
-148.54
-134.46
-98.38
-52.79
-16.36
-3.84
-18.49
-51.57
-88.77
-119.11
-140.50
-158.84
-182.03
-213.26
-247.86
-275.47
-286.34
-276.81
-251.20
-219.22
-190.50
-169.86
-155.96
-143.42
-127.03
-105.10
-79.88
-55.40
-33.90
-13.74
9.70
40.96
81.06
126.30
169.72
204.27
225.56
233.02
228.72
215.22
194.18
166.39
133.31
98.52
67.66
46.43
37.71
39.61
45.66
47.69
39.62
20.06
-7.61
-37.54
-64.64
-86.29
-102.22
-112.54
-116.01
-110.00
-92.21
-62.95
-26.06
11.88
44.09
66.15
77.35
80.35
79.27
77.92
78.60
82.08
87.86
94.67
100.56
103.04
99.34
86.84
64.01
31.45
-7.38
-45.91
-75.67
-88.59
-79.76
-49.50
-3.75
48.01
95.53
130.81
149.58
151.32
138.17
113.61
81.46
45.31
8.58
-25.83
-55.67
-79.18
-95.11
-102.64
-101.77
-93.76
-81.44
-68.37
-57.59
-50.34
-45.65
-41.47
-36.23
-30.11
-25.05
-23.62
-27.36
-35.94
-47.43
-59.43
-70.51
-80.35
-89.33
-97.27
-102.64
-103.18
-97.54
-86.93
-75.10
-66.74
-64.28
-66.01
-66.38
-59.03
-41.02
-15.54
8.51
20.53
13.40
-12.41
-48.64
-82.47
-101.47
-98.34
-72.61
-29.47
23.17
77.56
127.69
169.49
200.14
217.66
220.88
210.13
187.96
159.14
129.93
106.38
92.47
88.75
92.41
98.37
101.34
97.71
86.39
68.71
47.32
24.89
2.92
-18.34
-39.23
-59.44
-77.11
-89.18
-92.49
-85.55
-69.79
-49.56
-30.65
-18.03
-13.85
-16.83
-23.40
-29.65
-33.07
-33.15
-30.74
-27.19
-23.47
-20.09
-17.36
-15.66
-15.39
-16.94
-20.36
-25.41
-31.46
-37.24
-40.94
-40.64
-35.33
-25.94
-15.82
-9.90
-12.58
-25.45
-46.00
-68.11
-84.60
-90.27
-83.94
-68.71
-50.07
-33.17
-20.78
-12.73
-7.05
-1.57
5.21
14.35
26.99
44.38
66.69
91.57
113.80
126.93
126.88
115.11
98.81
87.51
87.68
98.42
110.83
112.60
94.85
57.19
8.15
-39.56
-75.89
-97.98
-110.55
-121.83
-137.88
-159.05
-180.06
-193.48
-194.10
-181.34
-158.65
-130.84
-101.34
-70.87
-38.28
-2.50
35.73
73.53
106.75
131.43
145.26
148.57
144.11
135.76
127.24
121.35
119.31
120.96
125.24
130.33
134.17
134.98
131.82
125.15
116.97
109.64
104.48
100.48
93.90
79.54
52.79
11.79
-41.58
-102.22
-163.38
-218.44
-261.91
-289.94
-300.41
-292.64
-267.20
-225.75
-171.15
-107.55
-40.44
23.98
79.89
123.06
151.78
166.74
170.30
165.32
154.48
140.09
124.34
109.25
96.48
86.86
79.92
74.22
67.97
59.77
49.13
36.37
22.28
7.60
-7.26
-22.54
-39.08
-57.75
-78.71
-100.74
-121.06
-136.32
-144.07
-144.00
-138.17
-129.84
-121.63
-114.35
-107.11
-98.43
-87.82
-76.35
-66.02
-58.64
-55.06
-55.04
-57.85
-62.73
-68.33
-72.00
-69.53
-56.19
-29.17
10.33
56.82
102.37
139.95
166.26
182.31
191.39
196.14
196.53
190.20
174.70
149.82
118.28
84.58
52.82
25.17
1.81
-18.02
-34.53
-46.95
-54.14
-55.45
-51.28
-43.07
-32.60
-21.48
-10.87
-1.06
8.84
20.79
36.94
57.87
80.85
99.53
106.04
94.58
64.75
22.73
-21.00
-56.00
-76.13
-81.41
-76.79
-68.67
-61.59
-56.91
-53.80
-51.51
-51.08
-55.11
-65.91
-83.42
-104.14
-122.15
-131.68
-129.73
-117.48
-99.52
-81.56
-67.56
-58.12
-50.74
-41.67
-28.20
-10.15
10.09
28.91
43.12
51.22
53.60
52.00
48.29
43.63
38.22
31.58
23.29
13.41
2.69
-7.59
-15.92
-21.12
-22.56
-20.37
-15.55
-9.52
-3.75
0.77
3.69
5.19
5.53
4.64
2.06
-2.86
-10.22
-19.35
-28.67
-36.30
-40.69
-41.11
-37.62
-30.69
-20.75
-7.95
7.75
26.22
46.72
67.78
87.26
102.89
112.97
116.93
115.64
110.86
104.59
98.29
92.75
88.17
84.63
82.40
81.69
82.53
84.41
86.48
87.88
87.72
85.42
79.98
70.36
55.59
35.17
9.29
-21.63
-57.20
-96.95
-139.68
-182.87
-222.37
-253.88
-274.22
-282.53
-280.04
-268.48
-248.79
-220.28
-182.04
-134.72
-81.69
-28.18
20.78
62.40
96.78
125.56
150.16
170.36
184.70
191.88
191.77
185.90
176.21
164.06
149.61
132.46
112.87
92.48
73.99
59.86
50.80
45.08
39.38
29.86
13.90
-8.91
-36.71
-65.87
-92.37
-112.60
-124.16
-126.01
-118.42
-102.64
-80.61
-54.56
-26.74
0.66
25.74
46.76
62.53
72.71
78.28
81.60
85.40
91.46
99.14
104.94
103.98
92.04
67.86
33.72
-5.43
-44.07
-78.16
-105.94
-127.14
-141.60
-148.89
-148.97
-143.24
-135.03
-128.45
-126.09
-127.00
-126.72
-119.39
-101.24
-72.84
-38.94
-5.68
22.60
45.57
65.99
86.83
108.71
128.99
144.05
151.96
153.75
152.22
148.92
142.25
127.88
102.13
65.67
24.51
-12.79
-39.91
-56.47
-67.85
-81.04
-99.80
-121.49
-138.20
-141.18
-125.51
-92.65
-49.25
-3.72
37.02
69.14
91.58
104.31
107.37
100.83
85.35
63.17
38.08
14.81
-2.69
-12.50
-15.56
-14.84
-13.36
-12.44
-10.83
-5.70
5.17
21.39
39.63
54.60
61.54
58.62
47.60
33.01
20.23
13.15
12.95
17.89
24.05
26.69
21.83
7.61
-14.72
-41.07
-65.81
-83.82
-92.43
-92.05
-85.62
-76.79
-68.19
-60.50
-52.74
-43.50
-32.35
-20.36
-9.75
-2.71
-0.27
-1.83
-5.35
-8.33
-8.61
-4.76
3.86
17.26
35.11
56.51
79.45
100.54
115.39
119.60
110.69
89.17
58.64
24.26
-9.24
-39.29
-65.61
-89.42
-111.79
-132.38
-149.03
-158.38
-156.96
-142.51
-115.04
-77.12
-33.48
10.09
48.23
77.18
95.38
103.18
101.96
93.43
79.54
62.63
45.35
30.51
19.78
13.33
10.14
8.56
7.60
7.24
8.29
11.60
17.67
26.23
36.48
47.17
56.79
63.77
66.85
65.48
60.17
52.48
44.35
37.45
32.62
29.78
28.31
27.62
27.23
26.83
26.03
24.21
20.74
15.25
7.80
-1.00
-10.17
-18.71
-25.94
-31.55
-35.81
-39.22
-42.28
-45.36
-48.73
-52.96
-58.77
-66.73
-76.49
-86.36
-93.26
-93.66
-84.93
-66.50
-40.37
-10.59
18.01
41.24
56.35
62.47
60.43
52.24
40.69
28.79
19.23
13.87
13.46
17.61
25.18
34.53
43.78
51.13
55.23
55.44
52.12
46.37
39.60
32.87
26.55
20.37
14.04
7.72
2.20
-1.60
-3.22
-3.08
-2.36
-2.39
-3.90
-6.93
-11.08
-15.47
-18.70
-18.82
-14.14
-4.21
8.89
20.79
26.94
25.16
17.04
7.00
-0.39
-3.58
-5.13
-9.87
-21.37
-39.45
-59.79
-76.43
-85.32
-86.11
-81.58
-75.41
-69.50
-63.27
-54.37
-40.49
-20.92
2.92
28.27
51.71
69.94
80.50
82.31
76.03
64.17
50.99
41.65
40.46
49.36
66.64
86.92
102.50
106.29
94.98
70.43
38.84
7.92
-17.12
-35.70
-51.52
-70.10
-95.41
-127.41
-162.32
-194.70
-219.77
-234.65
-238.11
-229.78
-209.71
-178.47
-137.71
-90.63
-41.55
4.88
44.34
73.30
89.43
92.05
82.49
64.27
42.51
22.90
10.03
5.61
7.90
12.09
12.01
2.64
-17.65
-46.02
-75.88
-98.70
-107.03
-96.37
-65.91
-18.53
40.06
102.05
158.45
200.66
221.96
219.46
195.15
155.02
106.86
57.29
9.47
-37.43
-86.60
-140.64
-198.96
-256.80
-306.52
-340.89
-356.11
-353.27
-337.49
-315.29
-291.81
-269.46
-248.47
-228.40
-209.52
-192.74
-178.55
-165.85
-151.62
-132.00
-104.12
-67.68
-25.29
18.53
59.14
93.43
120.93
143.87
166.20
192.23
225.44
267.69
318.52
374.78
430.73
478.30
508.85
515.73
496.70
455.38
400.41
342.62
291.77
253.62
228.84
214.03
204.08
194.54
183.03
169.15
152.99
134.42
112.35
85.31
52.27
13.44
-29.80
-75.90
-124.24
-176.42
-234.92
-301.06
-372.58
-442.57
-500.94
-538.02
-548.06
-531.06
-493.09
-442.63
-387.21
-330.99
-274.47
-215.92
-153.80
-90.88
-29.13
25.01
65.03
86.86
91.21
84.01
74.73
72.71
82.98
104.58
130.66
153.14
167.02
173.34
178.36
189.81
212.56
246.15
285.93
325.35
359.63
386.67
406.00
416.74
416.14
400.00
364.82
310.29
240.18
162.44
86.93
22.87
-23.90
-52.25
-65.62
-70.60
-74.42
-82.78
-98.04
-118.79
-141.13
-160.46
-173.39
-179.06
-179.37
-177.76
-177.48
-179.87
-184.07
-187.59
-187.91
-183.88
-175.85
-165.14
-152.46
-137.54
-119.82
-99.55
-78.28
-58.55
-42.93
-32.85
-28.37
-28.33
-30.95
-34.15
-35.96
-34.76
-29.86
-22.09
-13.59
-6.96
-4.25
-6.19
-12.05
-20.22
-28.64
-34.99
-37.01
-33.20
-24.12
-12.93
-4.77
-4.87
-16.00
-36.92
-62.34
-84.36
-94.92
-88.14
-61.96
-18.86
34.58
89.25
135.81
167.23
180.84
178.97
167.58
153.64
142.17
134.50
128.72
121.51
110.45
95.44
78.68
63.19
51.17
43.08
37.65
32.78
26.43
17.29
5.00
-10.19
-27.70
-46.62
-65.43
-81.65
-91.99
-93.11
-82.69
-60.53
-29.21
6.12
38.84
62.62
73.13
69.31
53.66
31.51
9.27
-7.56
-15.97
-16.12
-10.79
-3.78
1.90
5.25
7.53
11.11
17.99
28.74
42.16
55.93
67.47
74.84
77.35
75.46
70.62
64.70
59.54
56.39
55.83
57.87
62.22
68.26
74.82
79.74
79.90
71.67
51.95
19.47
-24.87
-78.53
-138.58
-202.77
-269.27
-335.32
-396.01
-444.12
-471.87
-473.68
-448.65
-401.04
-338.71
-270.00
-201.29
-135.93
-74.71
-17.49
35.82
85.04
130.33
172.80
214.88
259.94
311.26
370.41
435.81
501.75
559.16
598.29
611.86
597.90
560.42
507.37
447.19
385.72
325.52
267.45
213.25
166.61
132.09
112.39
105.96
107.02
107.94
102.79
89.85
71.64
52.92
37.80
27.81
21.86
17.60
13.13
8.02
3.25
0.25
0.10
3.03
8.57
15.63
23.41
31.44
39.66
48.13
56.75
65.02
72.13
77.10
79.29
78.61
75.66
71.50
67.20
63.53
60.56
57.76
54.14
48.72
40.98
30.90
18.84
5.29
-9.58
-26.04
-44.79
-66.63
-91.88
-120.10
-149.94
-179.44
-206.52
-229.76
-248.83
-264.58
-278.53
-292.15
-306.24
-320.57
-334.26
-346.24
-356.00
-364.01
-371.52
-380.31
-392.45
-410.14
-435.15
-467.91
-506.23
-544.57
-574.62
-587.63
-577.56
-543.56
-490.51
-427.03
-362.24
-302.75
-251.45
-208.29
-172.06
-142.01
-118.16
-100.63
-88.70
-80.54
-73.85
-66.89
-59.18
-51.58
-45.86
-43.60
-45.44
-50.82
-58.27
-65.98
-72.49
-77.22
-80.43
-82.82
-85.02
-87.24
-89.06
-89.71
-88.40
-84.77
-79.04
-71.94
-64.47
-57.52
-51.59
-46.71
-42.56
-38.71
-34.82
-30.76
-26.62
-22.68
-19.14
-16.22
-13.97
-12.42
-11.61
-11.64
-12.66
-14.89
-18.49
-23.55
-30.04
-37.77
-46.45
-55.65
-64.89
-73.60
-81.22
-87.26
-91.31
-93.11
-92.55
-89.70
-84.81
-78.31
-70.70
-62.59
-54.59
-47.29
-41.20
-36.70
-34.09
-33.46
-34.80
-37.95
-42.64
-48.52
-55.20
-62.23
-69.21
-75.78
-81.61
-86.48
-90.22
-92.76
-94.10
-94.26
-93.29
-91.28
-88.22
-84.08
-78.81
-72.28
-64.30
-54.70
-43.32
-30.09
-15.07
1.48
19.12
37.26
55.23
72.34
88.00
101.72
113.24
122.39
129.20
133.73
136.14
136.70
135.78
133.86
131.50
129.16
127.13
125.41
123.69
121.48
118.33
113.95
108.49
102.44
96.53
91.48
87.73
85.37
84.19
83.93
84.68
86.98
91.84
100.37
113.20
130.00
149.39
169.17
187.12
201.77
212.93
221.72
229.91
238.90
248.94
258.79
266.15
268.75
265.59
257.62
247.83
240.72
240.99
252.16
275.25
307.92
344.57
377.52
399.03
403.60
389.62
359.99
321.36
282.12
249.92
229.24
220.01
217.86
215.99
208.28
192.15
169.62
146.05
127.19
116.04
111.47
109.36
105.58
98.42
89.41
81.72
77.66
76.80
76.10
71.66
61.18
45.39
27.86
13.35
5.58
5.57
11.29
18.48
22.68
21.12
14.05
4.52
-3.13
-5.44
-1.43
6.83
15.47
20.83
21.11
17.10
11.42
6.89
5.09
5.86
7.70
8.84
8.35
6.44
4.15
2.79
3.27
5.80
9.98
14.91
19.52
22.86
24.06
22.68
18.69
12.57
5.21
-2.12
-7.93
-10.69
-9.33
-3.78
4.84
14.19
21.37
23.98
20.88
12.66
1.21
-10.95
-21.60
-29.38
-33.81
-35.08
-33.67
-30.25
-25.82
-21.70
-19.22
-19.18
-21.34
-24.28
-25.95
-24.64
-20.09
-13.67
-7.79
-4.60
-4.77
-6.90
-8.01
-4.69
5.48
22.83
45.10
67.79
85.10
91.63
84.09
62.82
32.29
0.18
-24.97
-36.75
-33.22
-17.53
3.55
22.71
34.85
38.61
35.69
29.01
20.88
12.27
3.35
-5.31
-12.24
-15.58
-14.39
-9.74
-4.51
-2.16
-5.06
-13.45
-25.50
-38.25
-48.66
-54.39
-54.14
-47.68
-36.08
-21.80
-8.44
0.16
1.26
-5.47
-17.46
-29.98
-37.78
-37.08
-26.97
-9.78
9.65
25.45
32.59
28.44
13.63
-7.99
-30.68
-48.82
-58.96
-61.13
-58.46
-55.30
-54.60
-56.04
-56.01
-49.72
-34.15
-10.20
17.24
41.57
57.62
63.87
62.41
56.87
49.72
40.51
26.48
4.33
-27.17
-65.57
-104.94
-137.46
-155.47
-153.41
-129.15
-84.93
-27.63
32.19
82.38
112.63
117.70
99.21
64.75
24.82
-11.01
-37.03
-52.05
-58.08
-58.11
-54.22
-47.36
-38.10
-27.67
-18.23
-12.05
-10.31
-12.20
-15.28
-16.46
-13.66
-6.85
1.91
9.36
12.54
10.04
2.54
-7.50
-16.89
-22.93
-24.20
-20.91
-14.54
-7.03
-0.04
5.81
10.87
15.99
21.73
27.69
32.54
34.55
32.59
26.57
17.60
7.58
-1.51
-8.03
-10.97
-10.03
-5.57
1.33
8.98
15.51
19.51
20.51
19.13
16.66
14.33
12.65
11.19
8.82
4.26
-3.27
-13.75
-26.22
-38.75
-48.46
-51.98
-46.49
-31.22
-8.81
14.89
32.52
38.22
30.25
11.92
-9.91
-27.92
-37.31
-37.34
-30.86
-22.30
-15.56
-12.71
-13.78
-17.44
-21.87
-25.40
-26.82
-25.40
-20.92
-13.70
-4.71
4.35
11.11
13.25
9.35
-0.14
-12.64
-24.22
-31.09
-31.19
-25.01
-15.10
-4.84
2.89
6.49
5.68
1.26
-5.25
-11.93
-16.78
-18.31
-16.11
-11.03
-4.92
0.30
3.52
4.70
4.68
4.30
3.90
3.28
2.09
0.37
-1.32
-2.25
-1.99
-0.83
0.36
0.57
-0.84
-3.86
-7.90
-12.06
-15.52
-17.80
-18.82
-18.88
-18.45
-17.90
-17.33
-16.50
-15.00
-12.55
-9.28
-5.70
-2.59
-0.58
0.07
-0.44
-1.55
-2.64
-3.25
-3.23
-2.77
-2.20
-1.88
-2.00
-2.48
-3.04
-3.28
-2.78
-1.34
1.01
3.99
7.13
9.98
12.14
13.33
13.39
12.22
9.80
6.27
2.02
-2.24
-5.68
-7.56
-7.54
-5.88
-3.31
-0.74
1.11
1.96
1.92
1.39
0.76
0.30
0.07
0.13
0.54
1.41
2.75
4.28
5.41
5.38
3.63
0.21
-4.11
-7.98
-10.03
-9.47
-6.44
-1.98
2.50
5.74
7.19
7.10
6.18
5.14
4.33
3.59
2.37
0.09
-3.53
-8.21
-13.15
-17.27
-19.52
-19.36
-17.04
-13.62
-10.57
-9.09
-9.56
-11.16
-12.12
-10.38
-4.49
5.64
18.47
31.11
40.14
42.50
36.34
21.52
-0.21
-25.32
-49.01
-66.13
-72.64
-66.95
-50.67
-28.31
-5.77
11.76
21.64
24.45
23.13
21.34
21.56
24.09
27.29
28.67
26.09
18.74
7.08
-7.38
-22.66
-36.70
-47.48
-53.45
-53.73
-48.49
-39.24
-28.41
-18.68
-12.01
-8.91
-8.41
-8.80
-8.45
-6.69
-3.94
-1.19
0.65
1.28
0.95
0.17
-0.64
-1.34
-1.84
-1.86
-1.03
1.00
4.11
7.36
9.32
8.55
4.60
-1.48
-7.47
-10.88
-10.33
-6.30
-0.72
4.04
6.50
6.77
6.12
6.09
7.44
9.78
12.05
13.29
13.15
11.89
9.98
7.63
4.76
1.19
-3.00
-7.45
-11.62
-14.96
-17.10
-17.88
-17.35
-15.75
-13.34
-10.39
-7.00
-3.07
1.47
6.55
11.70
16.10
18.86
19.39
17.56
13.79
8.77
3.23
-2.24
-7.08
-10.68
-12.46
-11.82
-8.58
-2.99
4.12
11.33
16.89
19.10
16.62
9.01
-3.04
-17.67
-32.16
-43.63
-49.86
-49.91
-44.35
-34.80
-23.26
-11.43
-0.35
9.53
18.15
25.53
31.71
36.72
40.55
42.96
43.47
41.23
35.49
26.15
14.07
1.15
-10.42
-18.90
-23.54
-24.73
-23.44
-20.55
-16.60
-11.79
-6.47
-1.53
1.69
1.83
-1.68
-8.18
-15.88
-22.55
-26.35
-26.55
-23.74
-19.35
-14.93
-11.46
-9.09
-7.48
-6.20
-5.08
-4.19
-3.53
-2.73
-1.14
1.69
5.53
9.37
11.75
11.66
9.05
4.93
0.87
-2.14
-4.17
-6.28
-9.76
-15.07
-21.44
-27.08
-30.05
-29.14
-24.33
-16.75
-8.05
-0.02
5.82
8.49
7.64
3.78
-1.60
-6.23
-7.60
-3.85
5.25
17.96
31.01
40.70
44.38
41.41
33.20
22.59
12.42
4.48
-0.84
-4.23
-6.66
-8.74
-10.66
-12.35
-14.08
-16.23
-19.08
-22.32
-24.98
-25.92
-24.43
-20.71
-15.79
-10.94
-6.99
-4.06
-1.71
0.57
2.97
5.23
6.80
7.21
6.35
4.45
2.02
-0.36
-2.24
-3.44
-4.06
-4.37
-4.63
-4.96
-5.12
-4.72
-3.33
-0.64
3.20
7.74
12.22
15.66
17.20
16.20
12.63
7.13
0.89
-4.71
-8.57
-10.23
-9.85
-8.05
-5.46
-2.55
0.48
3.48
6.25
8.44
9.60
9.37
7.63
4.57
0.66
-3.58
-7.80
-11.97
-16.35
-21.28
-26.80
-32.48
-37.48
-40.86
-41.85
-40.12
-35.71
-28.88
-19.93
-9.07
3.24
16.32
29.06
40.06
48.12
52.43
52.83
49.72
43.58
34.80
23.54
10.03
-4.77
-18.88
-29.43
-33.65
-30.05
-19.18
-3.58
13.22
27.96
38.48
43.93
44.34
40.25
32.60
22.93
13.43
6.55
4.13
6.59
12.72
20.14
26.53
30.50
32.03
32.27
32.74
34.75
39.00
45.29
52.69
59.81
65.20
67.99
68.38
67.77
68.33
72.23
80.69
93.28
107.76
120.44
127.01
123.39
106.82
76.82
35.68
-11.75
-59.07
-100.01
-130.16
-148.11
-155.39
-155.55
-152.52
-149.04
-145.87
-142.18
-136.87
-129.87
-122.79
-118.08
-117.38
-119.75
-121.31
-116.52
-100.75
-72.76
-35.78
3.64
38.32
63.13
76.43
79.57
75.15
65.38
51.44
33.91
13.92
-6.24
-23.34
-34.28
-37.54
-33.92
-26.15
-17.62
-10.96
-7.13
-5.43
-4.42
-3.00
-0.97
0.87
1.22
-1.10
-6.62
-15.00
-25.07
-34.98
-42.70
-46.48
-45.48
-40.19
-32.25
-23.79
-16.46
-11.11
-7.88
-6.68
-7.74
-11.27
-16.79
-22.49
-25.41
-22.70
-13.24
1.46
17.65
31.08
38.90
40.86
38.94
35.82
33.29
31.50
29.26
25.11
18.36
9.56
0.29
-7.68
-13.19
-16.06
-17.10
-17.53
-18.37
-19.96
-21.80
-22.99
-22.78
-21.07
-18.55
-16.14
-14.48
-13.47
-12.26
-9.83
-5.66
-0.15
5.55
10.04
12.37
12.37
10.74
8.49
6.49
5.07
3.93
2.50
0.26
-2.87
-6.39
-9.53
-11.44
-11.67
-10.42
-8.40
-6.49
-5.32
-4.96
-5.00
-4.86
-4.11
-2.65
-0.59
1.90
4.63
7.44
9.99
11.73
12.14
10.96
8.52
5.63
3.32
2.40
3.14
5.21
7.96
10.65
12.73
13.82
13.72
12.36
9.81
6.41
2.78
-0.35
-2.32
-2.96
-2.55
-1.71
-1.10
-1.06
-1.46
-1.86
-1.73
-0.77
1.00
3.23
5.34
6.67
6.67
5.06
1.90
-2.38
-7.14
-11.65
-15.43
-18.22
-19.98
-20.81
-20.76
-19.94
-18.46
-16.42
-13.93
-11.04
-7.70
-3.92
0.23
4.48
8.36
11.40
13.21
13.63
12.77
10.90
8.47
5.87
3.46
1.46
0.02
-0.80
-1.00
-0.66
0.14
1.25
2.51
3.86
5.16
6.32
7.15
7.35
6.66
4.84
1.82
-2.25
-7.00
-11.91
-16.38
-19.89
-22.11
-22.94
-22.47
-20.92
-18.51
-15.40
-11.72
-7.60
-3.31
0.82
4.34
6.95
8.52
9.12
8.94
8.20
7.12
5.84
4.48
3.18
2.07
1.27
0.84
0.72
0.88
1.19
1.58
2.05
2.55
3.04
3.35
3.26
2.56
1.11
-1.06
-3.71
-6.50
-9.12
-11.34
-13.13
-14.44
-15.18
-15.20
-14.31
-12.51
-10.04
-7.36
-4.99
-3.19
-1.96
-1.03
-0.05
1.24
2.90
4.83
6.84
8.70
10.19
11.08
11.16
10.26
8.34
5.48
1.92
-1.92
-5.54
-8.44
-10.29
-11.04
-10.89
-10.19
-9.27
-8.22
-7.02
-5.63
-4.15
-2.88
-2.13
-2.11
-2.75
-3.69
-4.52
-4.91
-4.73
-4.07
-3.10
-1.96
-0.78
0.44
1.70
2.95
4.10
5.02
5.61
5.84
5.78
5.61
5.41
5.24
5.00
4.57
3.96
3.36
3.09
3.53
4.83
6.76
8.81
10.28
10.61
9.52
7.07
3.67
-0.22
-4.10
-7.56
-10.30
-12.12
-13.00
-13.09
-12.62
-11.88
-11.02
-10.07
-8.97
-7.62
-6.05
-4.35
-2.51
-0.43
2.15
5.45
9.42
13.65
17.32
19.56
19.68
17.49
13.27
7.70
1.58
-4.31
-9.28
-12.81
-14.41
-13.80
-10.97
-6.28
-0.51
5.39
10.50
14.17
16.19
16.64
15.78
13.87
11.03
7.33
2.87
-2.14
-7.29
-12.13
-16.20
-19.21
-21.16
-22.16
-22.43
-22.02
-20.78
-18.40
-14.64
-9.57
-3.75
1.97
6.69
9.87
11.58
12.32
12.73
13.19
13.61
13.59
12.62
10.50
7.52
4.37
1.86
0.57
0.66
1.82
3.42
4.78
5.36
4.87
3.34
0.98
-1.90
-5.04
-8.29
-11.58
-14.74
-17.50
-19.45
-20.18
-19.47
-17.37
-14.26
-10.64
-6.89
-3.22
0.36
3.79
6.89
9.36
10.80
11.03
10.18
8.64
7.00
5.69
4.93
4.61
4.37
3.82
2.82
1.48
0.25
-0.39
-0.17
0.79
1.99
2.80
2.85
2.15
1.10
0.16
-0.49
-1.10
-2.22
-4.38
-7.63
-11.48
-15.00
-17.31
-17.98
-17.08
-15.14
-12.75
-10.23
-7.63
-4.77
-1.61
1.65
4.68
7.14
8.89
10.05
10.84
11.41
11.71
11.54
10.77
9.38
7.58
5.65
3.92
2.62
1.83
1.52
1.64
2.07
2.70
3.42
4.07
4.50
4.47
3.73
2.12
-0.39
-3.66
-7.41
-11.20
-14.55
-17.00
-18.24
-18.14
-16.87
-14.84
-12.52
-10.26
-8.15
-6.10
-3.95
-1.66
0.62
2.70
4.44
5.85
7.08
8.22
9.24
9.98
10.20
9.68
8.29
5.98
2.91
-0.56
-3.81
-6.05
-6.59
-5.13
-1.89
2.40
6.76
10.23
12.09
12.00
9.94
6.16
1.12
-4.55
-10.15
-15.05
-18.74
-20.89
-21.38
-20.28
-17.83
-14.44
-10.61
-6.83
-3.45
-0.55
2.06
4.74
7.83
11.49
15.68
20.10
24.31
27.81
30.04
30.38
28.24
23.20
15.38
5.52
-4.96
-14.24
-20.63
-23.09
-21.53
-16.85
-10.52
-4.19
0.90
4.18
5.72
6.09
5.90
5.55
5.14
4.53
3.54
2.14
0.40
-1.58
-3.84
-6.52
-9.65
-13.00
-15.88
-17.37
-16.75
-13.89
-9.45
-4.71
-1.04
0.61
0.07
-2.00
-4.41
-5.93
-5.65
-3.30
0.72
5.47
9.79
12.75
13.92
13.67
12.94
12.86
14.20
16.90
20.05
22.37
22.79
20.89
17.00
11.84
6.12
0.21
-5.73
-11.53
-16.76
-20.72
-22.80
-22.75
-20.87
-17.90
-14.71
-11.89
-9.58
-7.50
-5.16
-2.18
1.48
5.44
9.02
11.54
12.47
11.75
9.71
7.02
4.43
2.48
1.37
0.94
0.82
0.65
0.25
-0.31
-0.73
-0.75
-0.28
0.52
1.26
1.62
1.42
0.72
-0.25
-1.32
-2.48
-3.91
-5.86
-8.44
-11.54
-14.83
-17.83
-20.10
-21.34
-21.42
-20.33
-18.14
-15.01
-11.09
-6.53
-1.55
3.53
8.31
12.27
14.96
16.12
15.79
14.33
12.21
9.87
7.55
5.29
3.09
0.97
-0.83
-1.93
-1.97
-0.78
1.47
4.23
6.76
8.35
8.49
7.13
4.53
1.17
-2.45
-5.95
-9.10
-11.84
-14.12
-15.87
-17.02
-17.47
-17.19
-16.25
-14.73
-12.72
-10.27
-7.38
-4.10
-0.59
2.92
6.08
8.54
10.04
10.44
9.89
8.68
7.25
5.97
5.00
4.23
3.35
2.03
0.23
-1.68
-3.02
-3.11
-1.61
1.23
4.69
7.80
9.86
10.51
9.80
7.96
5.18
1.59
-2.75
-7.65
-12.64
-17.13
-20.46
-22.14
-22.02
-20.25
-17.31
-13.84
-10.48
-7.76
-5.93
-4.96
-4.55
-4.22
-3.53
-2.16
-0.01
2.78
5.89
8.91
11.39
13.04
13.74
13.62
12.96
12.04
11.02
9.92
8.71
7.49
6.50
6.04
6.33
7.32
8.67
9.90
10.58
10.51
9.71
8.33
6.58
4.60
2.54
0.52
-1.38
-3.15
-4.94
-7.05
-9.71
-13.01
-16.73
-20.37
-23.31
-24.99
-25.10
-23.62
-20.70
-16.57
-11.42
-5.44
1.07
7.62
13.56
18.28
21.38
22.81
22.82
21.66
19.40
16.01
11.42
5.90
0.15
-4.85
-8.18
-9.40
-8.73
-6.89
-4.80
-3.21
-2.49
-2.69
-3.69
-5.37
-7.71
-10.76
-14.50
-18.72
-22.98
-26.62
-28.93
-29.32
-27.57
-23.88
-18.96
-13.87
-9.79
-7.70
-8.03
-10.51
-14.06
-17.05
-17.83
-15.28
-9.24
-0.62
8.96
17.71
24.31
28.32
30.04
30.32
30.08
30.01
30.48
31.44
32.61
33.60
33.94
33.30
31.51
28.56
24.61
19.76
14.13
7.91
1.46
-4.64
-9.68
-13.20
-15.07
-15.67
-15.54
-15.06
-14.28
-12.97
-10.93
-8.29
-5.54
-3.43
-2.59
-3.18
-4.87
-6.88
-8.33
-8.53
-7.18
-4.53
-1.16
2.24
5.03
6.81
7.47
7.10
6.12
5.17
5.14
6.89
10.92
16.91
23.68
29.28
31.74
29.64
22.67
11.70
-1.54
-15.00
-26.76
-35.34
-39.83
-39.96
-36.04
-28.88
-19.70
-9.91
-0.96
5.96
10.12
11.46
10.61
8.69
6.79
5.56
4.90
4.08
2.33
-0.63
-4.20
-7.04
-7.87
-6.07
-2.13
2.68
7.07
10.35
12.62
14.47
16.30
17.93
18.62
17.59
14.59
10.13
5.23
0.88
-2.57
-5.51
-8.81
-13.15
-18.39
-23.56
-27.13
-27.72
-24.74
-18.70
-11.04
-3.55
2.34
5.96
7.51
7.63
7.03
6.17
5.19
4.14
3.17
2.55
2.51
3.07
3.84
4.28
3.91
2.67
0.82
-1.12
-2.70
-3.76
-4.52
-5.32
-6.29
-7.21
-7.61
-7.27
-6.37
-5.61
-5.92
-8.25
-13.23
-20.72
-29.75
-38.67
-45.77
-49.56
-49.47
-45.99
-40.86
-36.46
-34.47
-35.43
-38.30
-41.28
-42.22
-40.30
-35.08
-26.70
-15.95
-4.14
6.89
17.43
27.68
38.68
52.26
70.60
95.21
124.11
153.82
179.53
196.66
202.31
196.33
180.72
158.16
130.20
96.87
57.98
14.61
-29.56
-69.02
-98.11
-113.62
-116.27
-110.54
-102.37
-96.17
-93.04
-90.30
-82.92
-65.29
-33.39
13.43
71.55
133.18
188.15
226.24
240.25
228.16
193.77
145.42
93.21
46.13
10.05
-12.73
-23.01
-23.42
-17.54
-9.06
-1.19
3.93
5.72
5.20
4.57
6.16
11.68
21.56
35.02
50.40
65.63
78.46
86.74
88.55
82.47
68.14
46.37
18.80
-12.66
-46.17
-79.70
-110.49
-135.04
-149.99
-153.54
-146.69
-133.05
-117.21
-102.63
-90.19
-78.24
-63.97
-45.07
-20.83
7.56
37.36
64.89
86.02
96.75
93.80
75.58
42.85
-1.18
-51.49
-102.12
-146.93
-180.53
-199.03
-200.81
-187.10
-161.84
-130.69
-99.45
-72.61
-52.70
-40.47
-35.61
-37.26
-44.04
-53.84
-63.73
-70.42
-71.29
-65.31
-53.50
-38.29
-22.23
-7.10
6.53
18.81
30.00
40.06
48.88
56.57
63.76
71.29
79.74
89.20
99.25
109.30
118.91
127.93
136.39
144.02
149.94
152.51
149.31
137.74
115.76
82.92
41.34
-4.35
-47.95
-83.55
-107.53
-119.45
-121.77
-118.29
-112.44
-106.24
-100.38
-94.89
-89.89
-85.77
-82.89
-81.06
-79.38
-76.65
-71.99
-65.26
-57.01
-48.08
-39.23
-30.92
-23.35
-16.72
-11.29
-7.20
-4.44
-2.78
-1.84
-1.33
-1.04
-0.93
-0.99
-1.23
-1.47
-1.56
-1.27
-0.42
1.18
3.62
6.79
10.36
13.68
16.27
17.73
18.00
17.19
15.27
11.86
6.31
-1.86
-12.48
-23.96
-33.95
-39.82
-39.70
-33.17
-21.42
-6.88
7.58
19.02
26.15
28.23
25.43
18.65
9.35
-0.76
-10.10
-17.59
-23.56
-27.12
-28.38
-27.16
-23.12
-16.06
-6.37
4.59
14.79
20.88
22.78
20.18
13.88
5.34
-3.84
-12.47
-19.97
-26.28
-33.33
-39.54
-44.88
-49.07
-51.62
-52.15
-50.57
-47.14
-31.79
-18.12
-4.38
9.06
21.44
31.53
37.93
39.83
37.55
32.80
26.48
22.83
23.14
26.98
32.47
37.22
39.38
38.47
35.53
31.31
29.28
30.62
35.14
41.54
48.06
53.24
56.34
57.29
55.56
52.20
47.02
39.65
29.94
18.32
5.85
-6.31
-17.36
-27.63
-37.40
-47.81
-60.16
-75.24
-93.10
-113.39
-135.62
-159.45
-183.96
-207.06
-226.35
-240.02
-247.80
-250.94
-251.98
-253.34
-256.25
-258.91
-257.48
-248.09
-229.13
-201.85
-168.90
-133.45
-97.97
-64.31
-32.31
-0.49
32.96
69.68
111.28
160.03
216.73
279.43
341.55
395.04
432.27
447.78
439.63
404.72
346.40
274.08
206.72
154.56
121.20
104.94
102.79
110.60
123.71
138.47
151.06
157.46
153.28
134.81
103.86
67.32
34.06
10.88
-0.16
-2.93
-4.55
-12.23
-28.86
-52.53
-78.33
-100.49
-114.52
-115.61
-100.44
-69.02
-26.48
18.17
54.85
75.94
79.26
68.94
53.63
42.24
40.04
46.93
58.92
69.89
73.83
66.79
47.75
18.95
-14.84
-47.43
-72.64
-85.96
-86.03
-75.04
-58.04
-40.88
-27.92
-20.73
-18.03
-16.57
-12.61
-3.33
12.33
33.40
57.03
79.04
94.74
99.65
90.87
67.72
31.73
-13.57
-63.26
-111.76
-153.31
-183.08
-198.80
-200.38
-190.07
-171.74
-149.78
-127.83
-107.85
-90.01
-73.66
-59.14
-46.97
-37.81
-32.12
-30.00
-31.12
-34.79
-40.29
-47.75
-59.18
-75.65
-96.14
-117.17
-133.86
-141.99
-140.05
-129.63
-107.34
-75.04
-37.06
2.36
41.12
78.56
112.99
139.48
155.71
160.38
153.26
136.83
115.16
92.10
70.46
51.44
34.99
21.23
10.51
2.73
-1.81
-2.90
-0.71
4.00
11.84
22.18
33.92
45.47
54.64
59.74
59.70
54.22
44.59
32.63
19.97
7.67
-4.20
-16.87
-31.04
-47.79
-67.89
-91.30
-116.68
-138.93
-152.02
-150.87
-134.06
-104.87
-70.10
-36.99
-10.40
8.23
20.18
27.64
32.34
34.83
34.91
32.48
28.40
24.34
22.05
22.50
25.21
28.82
31.54
32.08
30.11
26.50
22.96
21.32
23.46
29.54
38.73
49.52
60.30
69.82
77.64
84.13
90.29
97.49
106.88
119.08
133.59
148.46
160.55
166.35
163.02
149.36
126.08
95.69
62.10
29.85
3.13
-15.21
-24.57
-26.78
-25.61
-25.36
-29.35
-38.44
-50.71
-62.58
-70.71
-73.66
-72.35
-69.10
-66.08
-64.12
-62.49
-59.76
-55.02
-48.57
-41.87
-36.64
-33.83
-33.24
-33.71
-33.99
-33.53
-32.58
-31.76
-31.25
-30.38
-27.94
-23.12
-16.31
-9.35
-4.70
-4.17
-7.75
-13.26
-17.50
-17.70
-12.88
-4.35
5.03
12.04
14.26
10.88
2.69
-8.11
-18.51
-25.41
-26.38
-20.51
-8.75
6.30
21.17
32.72
39.10
40.09
36.74
30.59
23.11
15.53
8.85
3.96
1.50
1.56
3.49
5.94
7.33
6.57
3.53
-0.82
-4.78
-6.71
-5.80
-2.43
2.02
5.87
7.93
7.91
6.32
4.02
1.63
-0.77
-3.41
-6.51
-9.88
-12.92
-14.94
-15.58
-15.00
-13.85
-12.79
-12.08
-11.38
-9.93
-7.02
-2.56
2.79
7.72
10.88
11.49
9.65
6.29
2.58
-0.54
-2.73
-4.13
-5.07
-5.74
-6.08
-5.89
-4.96
-3.28
-0.95
1.77
4.49
6.71
7.89
7.64
5.92
3.16
0.14
-2.39
-4.03
-4.91
-5.49
-6.16
-6.95
-7.50
-7.22
-5.60
-2.32
2.82
9.99
19.24
30.13
41.50
51.65
59.03
63.35
66.06
69.98
77.83
90.61
106.60
122.07
132.96
136.88
134.13
127.34
120.03
114.91
112.83
112.54
111.16
105.01
90.45
64.95
28.19
-17.13
-65.50
-109.85
-143.74
-163.38
-168.49
-161.84
-147.71
-130.31
-112.86
-97.41
-85.21
-76.88
-72.44
-71.10
-71.35
-71.24
-69.08
-64.01
-56.18
-46.66
-36.94
-28.58
-22.67
-19.61
-19.00
-19.82
-20.90
-21.43
-21.30
-20.97
-20.97
-21.46
-21.99
-21.71
-19.92
-16.38
-11.47
-5.95
-0.70
3.51
6.07
6.57
4.90
1.42
-2.99
-7.11
-9.76
-10.35
-8.95
-6.01
-1.97
3.10
9.40
16.91
25.07
32.60
37.78
39.17
36.03
28.76
18.71
7.73
-2.24
-9.55
-12.90
-11.28
-4.06
8.81
26.39
46.62
66.52
82.92
93.43
97.17
95.14
89.76
84.07
80.77
81.83
88.03
98.83
112.22
124.70
131.64
128.27
111.07
79.27
35.63
-13.97
-62.07
-102.04
-129.83
-144.81
-149.06
-145.83
-138.03
-127.54
-115.31
-102.09
-88.86
-76.88
-67.21
-60.20
-55.38
-51.81
-48.54
-45.04
-41.24
-37.40
-34.01
-31.51
-30.13
-29.80
-30.01
-30.00
-28.98
-26.47
-22.67
-18.30
-14.35
-11.65
-10.72
-11.50
-13.52
-16.17
-18.95
-21.85
-25.29
-29.69
-35.01
-40.86
-46.41
-50.86
-53.89
-55.24
-54.99
-52.64
-46.87
-36.33
-21.30
-4.15
11.01
19.79
20.04
11.58
-3.70
-22.92
-43.79
-65.62
-87.65
-107.73
-121.95
-125.00
-114.83
-93.87
-68.30
-45.88
-33.31
-32.80
-41.98
-55.97
-68.94
-79.06
-87.72
-97.34
-102.98
-100.18
-86.73
-64.68
-47.12
-36.20
-28.33
-17.94
2.92
35.88
75.46
111.90
135.63
142.11
135.33
123.72
116.67
120.29
134.24
152.31
166.63
171.87
167.44
157.35
144.77
129.69
109.12
79.86
42.45
3.35
-27.20
-40.42
-33.44
-12.38
11.21
26.89
30.45
25.45
20.27
22.52
34.69
53.62
72.41
84.57
86.96
79.93
65.45
45.05
19.20
-11.28
-43.17
-70.29
-85.20
-82.97
-64.61
-37.69
-13.02
0.95
2.76
-1.55
-2.54
6.60
25.52
47.09
61.87
64.07
54.87
41.34
31.85
30.99
37.41
45.40
48.67
43.89
31.61
15.05
-2.12
-17.17
-28.30
-34.20
-34.08
-28.42
-19.70
-11.88
-8.53
-10.45
-14.68
-15.70
-8.58
7.96
30.53
52.86
69.25
77.63
80.29
82.05
87.30
97.53
110.85
123.35
131.49
133.68
130.68
124.46
116.43
106.13
91.13
68.42
36.28
-4.28
-49.33
-93.17
-130.13
-156.12
-169.39
-170.34
-160.75
-143.12
-120.26
-95.24
-71.20
-50.98
-36.78
-29.60
-29.25
-34.53
-43.47
-53.69
-62.54
-67.34
-66.05
-57.76
-43.08
-24.09
-3.76
14.44
27.04
31.01
24.26
6.53
-19.71
-49.09
-74.34
-88.61
-88.30
-74.70
-53.66
-32.93
-18.56
-12.23
-10.93
-9.34
-3.36
7.19
18.39
24.83
23.21
14.79
5.07
0.55
4.79
16.11
28.41
34.66
30.94
18.55
3.16
-8.51
-12.23
-8.12
0.10
7.59
11.12
10.32
7.10
4.05
2.73
2.98
3.30
1.95
-1.97
-7.96
-14.36
-19.21
-21.15
-20.07
-17.12
-13.98
-12.05
-11.62
-11.71
-10.63
-6.97
-0.45
7.73
15.45
20.50
21.65
19.10
14.09
8.28
3.01
-0.89
-3.03
-3.10
-0.99
3.00
7.85
11.82
13.19
10.97
5.66
-0.77
-5.79
-7.27
-4.43
1.86
9.66
16.89
21.98
24.26
23.70
20.57
15.20
8.07
-0.08
-8.18
-14.85
-18.86
-19.60
-17.24
-12.73
-7.33
-2.11
2.41
6.24
9.79
13.30
16.76
19.78
21.54
21.29
18.50
13.34
6.83
0.53
-3.86
-5.19
-3.47
0.14
3.84
5.96
5.82
3.93
1.62
0.11
-0.09
0.53
1.01
0.63
-0.67
-2.27
-3.38
-3.56
-2.98
-2.17
-1.64
-1.47
-1.43
-1.12
-0.33
0.82
2.02
3.03
3.83
4.64
5.65
6.83
7.90
8.48
8.38
7.67
6.66
5.67
4.74
3.61
1.91
-0.61
-3.80
-7.15
-10.03
-11.97
-12.90
-13.16
-13.13
-13.07
-12.88
-12.19
-10.63
-8.04
-4.64
-1.01
2.16
4.22
4.86
4.09
2.19
-0.52
-3.77
-7.29
-10.57
-12.86
-13.19
-10.82
-5.69
1.37
8.72
14.53
17.41
16.90
13.56
8.60
3.36
-1.15
-4.44
-6.48
-7.51
-7.84
-7.72
-7.40
-7.10
-7.02
-7.36
-8.15
-9.23
-10.35
-11.18
-11.50
-11.29
-10.66
-9.83
-8.85
-7.65
-5.99
-3.68
-0.81
2.25
4.97
6.81
7.50
7.13
6.01
4.62
3.38
2.63
2.51
2.99
3.91
4.96
5.81
6.29
6.37
6.15
5.78
5.36
4.88
4.28
3.55
2.72
1.85
0.87
-0.26
-1.54
-2.80
-3.66
-3.70
-2.63
-0.60
1.82
3.90
5.01
5.06
4.48
4.06
4.57
6.32
9.01
11.93
14.19
15.17
14.66
12.86
10.22
7.25
4.44
2.27
1.13
1.25
2.54
4.65
6.94
8.77
9.64
9.40
8.21
6.45
4.53
2.80
1.48
0.70
0.48
0.74
1.28
1.69
1.46
0.07
-2.71
-6.68
-11.20
-15.33
-18.25
-19.48
-19.05
-17.30
-14.64
-11.34
-7.51
-3.19
1.34
5.55
8.67
9.91
8.85
5.62
0.93
-4.06
-8.09
-10.11
-9.60
-6.63
-1.81
3.84
9.13
13.00
14.68
13.99
11.45
8.25
5.99
6.11
9.19
14.49
19.81
22.15
18.84
8.69
-7.18
-25.41
-41.46
-51.13
-52.08
-44.59
-31.10
-15.17
0.04
12.53
21.46
26.70
28.19
25.88
20.14
12.12
3.87
-2.42
-5.30
-4.81
-2.52
-0.64
-0.89
-3.55
-7.37
-10.36
-10.87
-8.46
-4.12
0.39
3.60
5.14
5.90
7.18
9.81
13.49
17.10
19.42
19.81
18.13
14.20
7.31
-3.39
-17.78
-33.72
-46.92
-52.53
-47.47
-32.27
-11.18
9.75
25.42
33.81
36.17
35.55
34.62
34.30
33.72
31.21
25.58
16.77
5.90
-5.34
-15.27
-22.53
-26.48
-27.19
-25.50
-22.71
-19.95
-17.59
-14.98
-10.82
-4.26
4.27
12.77
18.49
19.29
14.89
7.14
-0.71
-5.29
-4.35
2.75
14.96
29.74
43.18
50.42
46.81
29.78
0.62
-34.83
-67.72
-89.27
-94.29
-82.96
-60.10
-32.63
-6.42
15.40
32.20
44.34
51.59
52.77
46.76
33.73
16.02
-2.45
-17.60
-26.65
-29.08
-26.50
-21.71
-17.48
-15.53
-16.06
-17.98
-19.51
-19.10
-15.99
-10.42
-3.35
3.98
10.47
15.39
18.37
19.30
18.26
15.59
11.88
7.97
4.70
2.65
1.89
2.03
2.49
2.80
2.93
3.21
4.25
6.63
10.80
16.83
24.19
31.73
37.57
39.72
36.78
28.69
17.13
4.90
-5.08
-10.87
-12.19
-10.20
-6.75
-3.50
-1.26
0.01
0.82
1.81
3.46
6.12
9.93
14.79
20.38
26.21
31.81
36.75
40.50
42.26
41.06
36.27
28.38
19.34
11.88
8.45
9.52
13.09
15.46
13.12
4.98
-6.90
-18.18
-24.14
-21.80
-10.87
6.53
26.96
46.70
62.20
70.27
68.29
54.89
30.84
-0.41
-33.24
-61.38
-79.98
-87.33
-85.31
-78.45
-71.65
-67.85
-66.73
-65.00
-58.35
-44.17
-23.30
-0.10
19.33
29.76
28.99
18.58
2.62
-14.14
-28.19
-38.05
-43.84
-46.37
-46.17
-43.27
-37.42
-28.60
-17.33
-4.91
6.85
16.02
21.12
21.63
18.22
12.57
6.82
2.77
1.25
1.91
3.56
4.92
5.28
4.80
4.30
4.60
5.98
7.89
9.36
9.68
8.77
7.40
6.75
7.59
9.72
11.80
11.84
8.12
0.03
-11.48
-24.04
-34.59
-40.30
-39.54
-32.42
-20.85
-8.02
2.66
8.62
9.08
5.16
-0.63
-5.54
-7.64
-6.49
-3.01
1.22
4.68
6.45
6.22
4.10
0.58
-3.67
-7.74
-10.63
-11.51
-10.01
-6.46
-1.81
2.77
6.25
8.10
8.37
7.51
6.08
4.51
3.01
1.59
0.17
-1.25
-2.57
-3.59
-4.13
-4.08
-3.44
-2.23
-0.51
1.64
4.10
6.60
8.87
10.63
11.68
11.95
11.43
10.24
8.57
6.80
5.47
5.12
6.09
8.32
11.33
14.49
17.18
19.07
20.07
20.19
19.41
17.69
15.06
11.78
8.35
5.28
2.87
0.93
-1.12
-3.92
-7.82
-12.49
-17.02
-20.22
-21.08
-19.17
-14.77
-8.63
-1.73
5.09
11.15
16.01
19.35
20.98
20.80
18.83
15.19
10.11
3.93
-2.74
-9.01
-13.85
-16.35
-16.09
-13.40
-9.26
-4.98
-1.67
0.21
0.87
1.05
1.54
2.76
4.58
6.34
7.19
6.53
4.24
0.72
-3.25
-6.91
-9.66
-11.23
-11.55
-10.62
-8.51
-5.35
-1.43
2.80
6.79
10.04
12.28
13.49
13.85
13.63
13.11
12.50
12.01
11.83
12.17
13.22
15.05
17.50
20.19
22.56
24.10
24.60
24.21
23.44
22.94
23.15
24.19
25.81
27.52
28.84
29.43
29.20
28.20
26.52
24.14
20.98
16.96
12.08
6.53
0.67
-5.13
-10.60
-15.64
-20.31
-24.78
-29.19
-33.61
-37.98
-42.17
-46.02
-49.42
-52.36
-54.88
-57.04
-58.88
-60.34
-61.29
-61.54
-60.99
-59.61
-57.44
-54.57
-51.09
-47.08
-42.55
-37.52
-32.06
-26.25
-20.23
-14.13
-8.11
-2.28
3.27
8.42
13.08
17.12
20.43
22.94
24.59
25.41
25.44
24.76
23.42
21.44
18.82
15.58
11.79
7.62
3.31
-0.88
-4.74
-8.19
-11.25
-14.01
-16.57
-18.95
-21.08
-22.79
-23.90
-24.31
-24.05
-23.26
-22.20
-21.06
-19.90
-18.56
-16.73
-14.10
-10.45
-5.72
-0.03
6.37
13.09
19.56
25.06
28.86
30.47
30.00
28.15
26.08
24.84
24.93
25.99
27.10
27.27
25.99
23.39
20.05
16.48
12.83
8.84
4.18
-1.17
-6.75
-11.75
-15.32
-17.03
-16.92
-15.40
-13.08
-10.49
-8.07
-5.98
-4.22
-2.59
-0.88
1.07
3.25
5.57
7.93
10.36
12.92
15.58
18.01
19.68
20.08
18.97
16.57
13.40
10.12
7.17
4.73
2.80
1.27
0.13
-0.56
-0.70
-0.12
1.28
3.58
6.66
10.11
13.17
14.92
14.55
11.84
7.30
2.12
-2.29
-4.86
-5.38
-4.55
-3.59
-3.45
-4.14
-4.47
-2.59
3.18
13.59
28.04
44.70
60.78
72.73
76.55
68.74
47.49
14.43
-24.56
-60.58
-84.49
-90.21
-76.89
-48.76
-12.72
23.98
55.99
80.53
96.52
103.62
101.86
91.93
75.66
56.36
37.22
20.61
7.69
-1.81
-9.14
-16.06
-24.26
-35.14
-49.26
-67.47
-90.35
-115.48
-138.46
-153.70
-156.69
-146.08
-127.20
-102.73
-74.05
-42.23
-8.90
22.82
46.70
56.10
47.09
21.72
-11.26
-40.51
-56.90
-57.20
-44.87
-27.07
-9.90
4.70
18.59
34.77
53.21
69.93
79.50
78.60
68.70
55.72
46.96
47.20
56.86
71.99
87.22
98.68
105.41
108.47
109.19
107.47
101.89
91.02
74.79
55.18
35.11
16.71
-0.19
-17.83
-38.88
-64.32
-92.15
-118.09
-137.37
-146.92
-146.45
-138.26
-125.65
-111.50
-97.46
-84.05
-71.38
-59.76
-49.93
-42.72
-38.53
-37.05
-37.31
-38.06
-38.29
-37.63
-36.39
-35.31
-35.13
-36.18
-38.14
-40.17
-41.26
-40.65
-38.09
-33.88
-28.72
-23.28
-18.00
-12.88
-7.55
-1.55
5.56
13.96
23.63
34.26
45.22
55.54
64.05
69.67
71.87
70.80
67.35
62.62
57.55
52.65
48.08
43.87
40.14
37.15
35.17
34.29
34.38
35.11
36.14
37.20
38.04
38.36
37.74
35.57
31.30
24.61
15.77
5.75
-3.83
-11.10
-14.50
-13.37
-8.14
-0.05
9.29
18.41
26.15
31.51
33.62
31.75
25.74
16.41
5.61
-4.17
-10.59
-12.30
-9.36
-3.22
3.97
10.12
13.93
15.08
14.05
11.58
8.21
4.13
-0.64
-5.86
-10.85
-14.61
-16.26
-15.44
-12.45
-8.01
-2.86
2.58
8.02
13.06
16.96
18.73
17.65
13.75
7.88
1.47
-4.06
-7.81
-9.51
-9.38
-7.86
-5.45
-2.62
0.15
2.45
4.09
5.13
5.87
6.74
7.96
9.51
11.05
12.07
12.10
10.85
8.34
4.94
1.24
-2.12
-4.62
-5.98
-6.19
-5.50
-4.28
-2.97
-1.98
-1.59
-1.87
-2.70
-3.78
-4.79
-5.47
-5.58
-4.95
-3.41
-0.91
2.35
5.85
8.80
10.35
9.98
7.67
3.90
-0.52
-4.74
-8.11
-10.32
-11.27
-11.02
-9.73
-7.65
-5.10
-2.50
-0.20
1.48
2.39
2.49
1.77
0.18
-2.29
-5.58
-9.32
-12.94
-15.70
-17.03
-16.70
-14.92
-12.20
-9.14
-6.21
-3.64
-1.42
0.57
2.39
3.94
5.00
5.29
4.77
3.65
2.46
1.81
2.04
3.06
4.33
5.13
4.97
3.72
1.70
-0.61
-2.81
-4.58
-5.75
-6.06
-5.29
-3.31
-0.31
3.23
6.56
8.96
9.88
8.98
6.13
1.44
-4.61
-11.04
-16.52
-19.64
-19.51
-16.13
-10.47
-4.08
1.50
5.34
7.27
7.70
7.21
6.20
4.91
3.50
2.21
1.49
1.65
2.75
4.38
5.77
6.16
5.06
2.54
-0.74
-3.85
-5.93
-6.59
-5.94
-4.50
-2.92
-1.61
-0.65
0.19
1.16
2.31
3.34
3.68
2.71
0.08
-4.00
-8.80
-13.25
-16.32
-17.48
-16.74
-14.66
-11.95
-9.11
-6.32
-3.45
-0.44
2.56
5.20
6.97
7.58
7.04
5.78
4.43
3.66
3.90
5.29
7.54
10.05
12.07
12.91
12.13
9.67
5.78
0.96
-4.20
-9.05
-12.84
-14.84
-14.46
-11.49
-6.36
-0.06
6.00
10.47
12.51
11.97
9.44
5.85
2.14
-1.14
-3.96
-6.63
-9.53
-12.76
-15.93
-18.19
-18.59
-16.44
-11.78
-5.43
1.30
7.04
10.91
12.65
12.52
11.05
8.75
6.08
3.46
1.35
0.14
0.04
0.92
2.42
3.99
5.19
5.76
5.74
5.36
4.95
4.78
5.00
5.47
5.92
5.94
5.14
3.33
0.59
-2.63
-5.60
-7.54
-7.87
-6.45
-3.74
-0.60
1.97
3.26
3.16
2.10
0.79
-0.27
-0.94
-1.46
-2.06
-2.70
-2.95
-2.26
-0.33
2.61
5.86
8.59
10.14
10.32
9.39
7.72
5.63
3.29
0.76
-1.75
-3.90
-5.29
-5.57
-4.68
-2.85
-0.62
1.32
2.23
1.48
-1.25
-5.71
-11.15
-16.39
-20.18
-21.60
-20.30
-16.57
-11.26
-5.49
-0.36
3.36
5.34
5.72
5.03
3.99
3.19
2.99
3.25
3.55
3.35
2.35
0.70
-0.79
-0.70
2.59
10.11
21.47
34.39
45.05
49.43
44.92
31.84
13.77
-3.73
-15.43
-18.50
-13.28
-2.53
9.81
20.13
26.21
27.58
25.22
20.83
16.19
12.50
9.99
7.79
4.23
-1.98
-10.73
-20.37
-28.70
-33.90
-34.74
-30.48
-20.02
-3.64
15.84
33.41
45.12
48.87
44.15
31.93
14.25
-5.27
-22.88
-35.69
-41.72
-40.18
-32.46
-21.86
-12.50
-7.85
-9.37
-16.16
-25.07
-31.39
-30.72
-21.16
-3.94
16.89
35.63
46.17
43.36
25.21
-4.81
-37.99
-63.45
-72.28
-61.46
-35.25
-3.66
22.45
33.60
26.83
7.37
-15.23
-33.03
-44.82
-54.47
-65.98
-80.79
-97.27
-111.74
-119.71
-118.93
-108.94
-90.58
-65.73
-37.84
-12.17
5.91
13.60
12.01
5.90
1.87
5.12
17.67
36.99
56.83
70.90
78.18
80.53
79.82
76.63
70.59
60.59
47.93
35.47
26.48
23.38
26.42
33.80
42.64
49.91
53.28
51.78
45.76
36.89
27.54
19.51
13.39
8.68
4.36
-0.29
-5.03
-8.98
-11.01
-10.39
-7.37
-2.92
1.74
5.54
7.78
8.19
6.88
4.27
0.97
-2.43
-5.50
-7.94
-9.50
-10.15
-9.96
-9.23
-8.51
-8.34
-9.10
-10.81
-13.06
-15.17
-16.44
-16.33
-14.61
-11.37
-6.99
-2.13
2.40
5.86
7.78
8.21
7.67
6.85
6.36
6.42
6.83
7.18
7.12
6.57
5.78
5.11
4.85
5.01
5.41
5.77
5.98
6.25
6.91
8.29
10.40
12.87
15.04
16.22
15.97
14.34
11.82
9.19
7.25
6.52
7.12
8.79
11.02
13.28
15.20
16.58
17.44
17.92
18.17
18.37
18.69
19.31
20.44
22.25
24.79
27.97
31.54
35.19
38.61
41.57
43.93
45.67
46.84
47.49
47.58
46.95
45.30
42.28
37.59
31.04
22.67
12.74
1.65
-10.04
-21.78
-33.12
-43.78
-53.77
-63.26
-72.68
-82.55
-93.26
-105.01
-117.63
-130.50
-142.66
-153.14
-161.65
-168.95
-176.42
-185.15
-194.46
-201.12
-199.71
-184.41
-151.69
-102.41
-42.44
18.75
70.76
105.19
117.00
104.64
69.68
16.43
-48.19
-114.98
-173.55
-214.75
-232.70
-226.65
-200.80
-161.87
-116.11
-67.35
-17.39
31.94
76.94
112.59
133.97
139.45
132.80
122.62
119.22
130.74
160.28
205.10
258.65
311.86
355.55
382.55
389.03
375.03
344.19
302.52
251.65
195.31
137.44
81.66
31.40
-10.52
-42.37
-64.16
-77.90
-86.89
-93.49
-99.08
-103.62
-106.12
-105.37
-101.03
-93.94
-85.85
-78.77
-73.56
-70.29
-68.29
-66.40
-63.60
-59.41
-54.06
-48.36
-43.30
-39.23
-36.16
-33.75
-31.49
-28.90
-25.75
-22.14
-18.42
-15.05
-12.16
-9.79
-7.83
-6.07
-4.33
-2.46
-0.45
1.62
3.62
5.52
7.29
8.95
10.51
12.02
13.48
14.91
16.30
17.66
18.98
20.28
21.56
22.78
23.91
24.89
25.62
26.01
25.97
25.39
24.23
22.48
20.15
17.26
13.92
10.29
6.50
2.72
-0.86
-4.11
-6.88
-9.11
-10.73
-11.72
-12.16
-12.11
-11.69
-11.03
-10.26
-9.51
-8.88
-8.45
-8.24
-8.29
-8.60
-9.08
-9.62
-10.03
-10.08
-9.57
-8.19
-5.67
-1.88
3.25
9.73
17.44
26.13
35.49
45.13
54.61
63.59
71.48
77.92
82.65
85.67
87.10
87.29
86.72
86.06
86.11
87.27
90.02
94.79
101.88
111.47
123.49
137.77
153.94
171.61
189.71
207.26
223.30
236.90
247.12
252.99
253.34
246.57
235.04
219.61
201.16
180.56
158.73
136.46
114.45
93.32
73.63
55.98
40.23
26.29
13.97
2.89
-7.42
-17.49
-27.71
-38.21
-48.76
-59.19
-69.07
-77.91
-85.38
-91.38
-96.04
-99.54
-101.91
-102.89
-102.25
-99.67
-95.07
-88.91
-82.22
-76.37
-72.62
-71.60
-73.01
-75.93
-79.01
-81.27
-82.61
-84.03
-87.23
-93.94
-105.00
-119.96
-137.22
-154.65
-170.56
-184.35
-196.77
-209.56
-224.88
-244.69
-270.25
-301.19
-334.74
-365.27
-385.07
-386.41
-364.23
-318.29
-253.41
-177.66
-99.38
-24.63
43.73
105.08
159.33
205.61
241.61
265.73
278.44
282.61
281.91
279.30
275.30
268.50
256.45
236.03
205.52
165.88
121.21
78.37
46.45
34.44
49.38
93.50
160.10
236.31
306.95
359.29
386.28
388.35
370.47
340.26
304.61
262.30
211.08
151.91
90.41
33.84
-10.72
-43.09
-66.30
-84.72
-113.16
-161.40
-228.06
-301.77
-369.60
-420.45
-456.59
-483.90
-508.39
-551.71
-627.97
-734.74
-854.96
-969.29
-1060.40
-1130.67
-1186.84
-1235.14
-1301.90
-1404.37
-1538.57
-1681.69
-1807.86
-1893.60
-1940.61
-1956.42
-1810.71
-1444.65
-903.72
-314.84
203.71
550.29
772.14
913.32
1001.53
1051.97
1058.11
1009.73
912.26
786.91
657.59
548.17
461.43
398.70
363.05
339.91
315.72
287.08
260.53
244.02
246.67
262.93
287.13
315.80
335.94
337.95
321.93
296.85
273.51
262.22
261.34
266.75
274.40
275.74
265.19
243.21
215.39
188.52
168.98
157.15
151.71
150.67
150.12
147.82
143.41
137.67
131.14
124.23
115.59
103.86
88.08
67.83
46.32
26.52
9.60
-4.85
-17.36
-27.48
-33.97
-35.63
-31.60
-15.19
17.25
64.05
118.87
174.90
227.97
276.60
320.88
361.48
409.06
470.25
543.51
620.27
691.46
752.15
801.67
841.59
873.88
913.14
968.10
1036.31
1105.86
1163.90
1203.03
1221.60
1221.20
1123.12
895.34
566.21
208.94
-109.83
-359.47
-539.36
-662.41
-743.79
-796.55
-817.44
-805.37
-767.51
-718.34
-671.84
-635.76
-611.72
-598.07
-592.34
-581.83
-558.52
-523.08
-483.56
-448.87
-423.76
-408.77
-402.15
-401.48
-397.96
-385.81
-364.89
-340.01
-316.57
-297.43
-282.75
-270.89
-260.71
-247.73
-229.11
-205.03
-178.24
-152.01
-128.53
-108.58
-92.19
-79.18
-67.44
-55.56
-43.25
-31.50
-21.71
-14.76
-10.89
-9.89
-11.40
-13.44
-14.23
-12.96
-10.17
-7.28
-5.87
-6.90
-10.63
-16.97
-22.28
-23.20
-18.07
-7.67
5.32
17.97
28.66
36.91
43.10
53.17
72.57
103.98
145.86
193.70
242.45
289.14
332.78
373.66
419.17
476.30
548.33
633.05
724.41
815.41
902.03
982.78
1016.18
973.24
846.28
655.94
439.88
232.39
52.31
-94.64
-211.23
-303.74
-371.79
-414.40
-433.36
-434.89
-423.31
-409.06
-398.54
-394.39
-397.00
-399.28
-394.04
-377.90
-352.47
-322.55
-293.36
-266.77
-242.14
-216.98
-188.59
-152.81
-108.35
-57.78
-5.77
43.04
86.58
124.39
156.55
187.59
221.43
259.09
298.36
335.64
367.66
393.16
412.27
406.35
367.68
300.46
218.16
134.54
56.97
-13.51
-77.91
-136.30
-186.78
-222.96
-242.84
-247.23
-240.07
-226.64
-211.34
-196.72
-183.63
-172.17
-160.05
-145.23
-127.73
-109.33
-92.27
-78.08
-67.45
-60.44
-56.72
-54.30
-51.75
-48.53
-45.34
-43.33
-43.23
-45.50
-49.94
-55.73
-61.02
-64.35
-65.27
-64.57
-63.62
-63.56
-65.51
-69.82
-76.32
-84.48
-93.83
-104.07
-114.62
-124.26
-127.36
-119.52
-100.36
-74.34
-48.41
-27.71
-13.71
-5.00
0.87
5.53
8.62
8.86
6.62
4.54
7.28
19.20
42.25
74.51
110.16
140.81
158.57
159.13
141.17
109.25
71.35
35.92
9.31
-5.06
-6.93
1.98
18.79
39.06
57.17
66.85
62.84
43.69
12.78
-22.55
-53.52
-73.17
-78.45
-70.42
-53.56
-33.96
-17.60
-8.74
-8.83
-16.24
-26.76
-35.55
-39.15
-37.40
-33.48
-32.16
-36.84
-47.30
-59.35
-66.93
-65.33
-53.34
-34.12
-13.69
1.83
8.85
7.33
0.27
-8.49
-15.81
-20.30
-21.89
-20.52
-15.55
-6.28
7.60
25.30
44.50
62.06
74.77
80.74
80.07
74.78
67.73
61.49
57.44
55.29
53.98
52.06
48.49
42.99
36.05
28.49
21.18
15.46
10.73
6.27
1.31
-4.65
-11.69
-19.56
-27.76
-35.79
-43.19
-49.76
-55.23
-59.43
-62.20
-63.44
-63.09
-61.19
-57.89
-53.29
-47.60
-40.72
-32.44
-22.80
-12.00
-0.47
11.18
22.30
32.27
40.57
47.13
52.14
56.11
59.54
62.86
66.29
69.77
72.99
75.51
76.97
77.29
76.57
75.15
73.56
72.26
71.65
71.95
73.18
75.29
78.07
81.24
84.54
87.51
89.58
90.13
88.47
84.07
76.54
65.73
51.91
35.70
18.01
-0.30
-18.65
-36.71
-54.41
-71.51
-87.27
-100.58
-110.03
-114.69
-114.41
-109.97
-103.01
-95.29
-87.98
-81.70
-76.37
-71.73
-67.70
-64.20
-61.13
-58.19
-54.72
-50.14
-44.12
-36.85
-28.99
-21.35
-14.61
-9.05
-4.56
-0.92
2.00
4.13
5.42
6.11
6.83
8.57
12.29
18.35
26.28
34.65
41.60
45.63
46.10
43.44
38.94
33.89
29.29
25.53
22.49
20.06
18.21
17.01
16.60
16.78
17.13
17.02
15.81
13.19
9.12
3.86
-2.20
-8.74
-15.57
-22.67
-30.08
-37.66
-45.18
-52.18
-58.07
-62.31
-64.45
-64.20
-61.50
-56.43
-49.22
-40.19
-29.67
-18.08
-5.83
6.63
18.79
30.20
40.43
49.17
56.26
61.69
65.59
68.18
69.64
70.20
69.97
69.04
67.50
65.33
62.60
59.31
55.50
51.25
46.68
41.92
37.14
32.45
27.95
23.64
19.46
15.31
10.99
6.21
0.68
-5.92
-13.81
-23.14
-33.97
-46.19
-59.55
-73.66
-87.96
-101.86
-114.65
-125.72
-134.49
-140.51
-143.54
-143.52
-140.55
-135.01
-127.38
-118.30
-108.48
-98.57
-89.21
-80.86
-73.80
-68.19
-63.97
-61.00
-59.04
-57.82
-57.03
-56.41
-55.70
-54.72
-53.33
-51.45
-49.09
-46.20
-42.84
-39.04
-34.79
-30.14
-25.10
-19.71
-14.10
-8.34
-2.56
3.12
8.64
13.92
18.95
23.66
28.00
31.96
35.49
38.60
41.36
43.75
45.81
47.50
48.76
49.59
50.00
50.00
49.65
48.93
47.84
46.33
44.40
42.15
39.73
37.38
35.28
33.51
32.10
31.00
30.17
29.63
29.38
29.40
29.67
30.02
30.34
30.51
30.47
30.27
29.96
29.61
29.32
29.11
29.03
29.11
29.35
29.79
30.42
31.24
32.20
33.19
34.10
34.80
35.11
34.97
34.29
33.03
31.19
28.75
25.83
22.52
18.98
15.42
12.03
8.99
6.48
4.61
3.49
3.16
3.65
4.92
6.85
9.28
11.98
14.67
17.17
19.32
21.04
22.33
23.20
23.67
23.77
23.49
22.93
22.15
21.23
20.22
19.09
17.78
16.25
14.50
12.60
10.69
8.84
7.09
5.34
3.45
1.29
-1.26
-4.17
-7.38
-10.83
-14.41
-18.10
-21.78
-25.35
-28.72
-31.69
-34.16
-36.05
-37.33
-38.04
-38.24
-38.03
-37.54
-36.83
-36.02
-35.18
-34.36
-33.59
-32.85
-32.11
-31.33
-30.45
-29.40
-28.13
-26.58
-24.72
-22.49
-19.87
-16.88
-13.52
-9.83
-5.84
-1.53
3.10
8.09
13.45
19.11
25.00
30.94
36.74
42.26
47.37
52.02
56.21
59.88
63.04
65.63
67.67
69.24
70.42
71.32
72.00
72.45
72.63
72.42
71.74
70.54
68.74
66.34
63.29
59.54
55.10
50.02
44.36
38.31
32.01
25.67
19.40
13.24
7.21
1.22
-4.86
-11.12
-17.70
-24.62
-31.90
-39.51
-47.33
-55.24
-63.11
-70.74
-77.99
-84.67
-90.67
-95.93
-100.38
-104.00
-106.80
-108.75
-109.86
-110.08
-109.41
-107.85
-105.39
-102.06
-97.87
-92.82
-86.94
-80.25
-72.88
-65.01
-56.79
-48.42
-40.05
-31.79
-23.77
-16.07
-8.79
-2.07
4.04
9.50
14.34
18.64
22.51
26.11
29.60
33.04
36.50
39.98
43.42
46.80
50.04
53.08
55.83
58.16
59.98
61.20
61.78
61.78
61.26
60.32
59.06
57.50
55.74
53.79
51.70
49.52
47.22
44.80
42.20
39.32
36.13
32.55
28.56
24.21
19.56
14.73
9.87
5.14
0.72
-3.24
-6.61
-9.29
-11.25
-12.50
-13.16
-13.45
-13.54
-13.58
-13.63
-13.69
-13.77
-13.86
-13.98
-14.27
-14.82
-15.68
-16.77
-17.89
-18.83
-19.26
-18.98
-17.85
-15.96
-13.51
-10.59
-7.19
-3.16
1.80
7.85
15.01
23.06
31.14
38.31
43.78
47.19
48.80
49.14
48.74
47.96
46.63
43.35
36.54
25.14
9.18
-10.08
-30.65
-50.44
-68.01
-82.79
-96.50
-111.29
-128.58
-148.16
-167.91
-184.76
-195.95
-200.04
-197.40
-191.85
-187.88
-189.14
-197.36
-212.02
-231.21
-252.49
-273.28
-279.97
-262.41
-216.12
-145.69
-63.24
17.63
87.04
141.15
181.43
212.65
238.17
259.12
273.56
276.84
265.22
237.04
194.39
143.27
92.15
47.81
14.20
-5.96
-13.89
-12.90
-6.36
3.90
17.25
33.09
48.95
61.54
68.12
67.61
61.55
53.12
45.87
42.08
42.18
44.53
46.75
46.91
44.04
38.80
32.87
28.15
25.83
26.03
27.79
29.76
30.80
30.33
28.60
26.44
24.80
24.26
24.90
26.37
28.09
29.56
30.42
30.67
30.46
30.04
29.53
28.90
27.97
26.53
24.41
21.42
17.65
13.29
8.56
3.67
-1.16
-5.71
-9.82
-13.33
-16.17
-18.30
-19.79
-20.77
-21.50
-22.17
-22.94
-23.94
-25.24
-26.85
-28.76
-30.88
-33.08
-35.43
-37.79
-39.94
-41.71
-42.97
-43.63
-43.61
-42.88
-41.51
-39.83
-37.93
-35.82
-33.50
-31.02
-28.49
-26.00
-23.65
-21.55
-20.08
-19.23
-18.80
-18.46
-17.95
-17.09
-15.69
-13.63
-8.51
-0.74
8.77
19.11
29.55
39.54
48.62
56.62
63.41
68.95
72.99
75.73
77.55
78.90
80.06
80.99
81.88
82.54
82.76
82.02
80.24
77.50
73.92
69.44
63.64
56.36
47.12
35.68
21.99
6.54
-9.80
-26.08
-40.21
-52.32
-62.40
-71.07
-78.68
-85.27
-90.26
-92.64
-91.44
-86.60
-80.49
-72.77
-64.40
-56.40
-49.16
-42.28
-34.87
-26.37
-17.24
-8.70
-2.14
0.54
-1.98
-10.45
-25.08
-45.53
-67.57
-88.30
-102.83
-105.35
-92.50
-65.10
-28.64
8.67
39.05
58.12
65.64
65.05
60.92
56.40
52.70
49.70
47.10
45.06
44.15
44.30
45.11
45.76
45.34
43.31
39.93
36.29
33.94
34.33
37.64
42.45
45.46
42.48
30.17
8.24
-19.89
-47.99
-69.65
-81.03
-82.27
-77.05
-70.16
-65.20
-62.96
-61.83
-59.62
-55.17
-49.10
-42.82
-37.72
-32.78
-26.15
-16.12
-2.38
13.19
27.16
36.18
38.87
36.70
33.38
32.81
37.19
45.95
56.22
64.36
67.58
64.96
57.10
45.67
32.53
19.54
8.50
0.75
-3.52
-5.37
-6.91
-10.15
-15.81
-23.35
-31.75
-40.39
-49.28
-58.10
-65.13
-67.25
-61.57
-47.53
-28.20
-9.35
3.48
7.89
5.78
2.22
2.87
10.10
22.56
36.35
47.34
53.15
53.05
46.34
31.87
8.55
-23.23
-59.92
-94.84
-119.75
-127.82
-117.02
-91.04
-58.04
-27.22
-5.31
5.62
8.22
8.13
11.93
24.06
45.51
73.34
101.38
122.02
128.51
116.87
84.22
32.75
-32.18
-103.20
-172.42
-232.21
-276.01
-299.59
-302.50
-288.44
-264.03
-237.07
-213.16
-194.46
-179.29
-163.98
-144.85
-119.97
-88.87
-51.58
-8.01
43.52
105.00
177.21
258.03
340.84
414.94
469.28
495.93
492.12
461.22
409.50
343.68
269.50
191.86
115.44
46.29
-9.82
-55.11
-92.63
-127.74
-165.59
-207.97
-249.41
-286.57
-316.41
-336.98
-348.02
-349.89
-343.69
-330.89
-313.13
-292.32
-271.03
-251.06
-233.76
-219.78
-208.59
-199.46
-191.61
-184.37
-177.53
-171.66
-167.17
-164.11
-162.45
-161.62
-161.09
-160.39
-159.21
-157.47
-155.66
-154.18
-153.18
-152.69
-152.37
-151.74
-150.10
-146.74
-141.03
-132.81
-122.08
-108.50
-91.93
-72.34
-49.83
-24.43
3.95
35.34
69.26
104.60
141.23
178.38
214.84
249.27
280.69
308.79
333.58
354.88
371.74
385.67
397.40
406.99
414.39
420.21
426.06
434.03
445.46
459.73
479.41
505.16
536.09
570.62
607.42
646.37
688.33
734.32
784.18
842.80
911.78
987.67
1061.87
1123.45
1164.20
1182.92
1187.11
1146.80
1048.65
891.96
688.58
456.71
213.36
-28.55
-258.25
-464.55
-637.99
-766.82
-846.85
-882.50
-884.96
-867.58
-841.25
-811.49
-778.29
-739.01
-687.65
-621.82
-544.40
-462.98
-387.12
-324.80
-283.73
-263.52
-259.79
-264.20
-270.59
-276.07
-280.15
-282.75
-282.84
-278.51
-267.88
-251.76
-231.87
-211.27
-193.12
-179.30
-169.95
-163.75
-158.74
-152.87
-145.86
-138.34
-131.53
-126.45
-123.21
-120.97
-118.35
-113.65
-105.53
-94.00
-80.27
-66.21
-53.74
-44.26
-38.50
-36.52
-37.90
-41.74
-47.33
-54.09
-61.53
-69.23
-76.74
-83.64
-89.65
-94.71
-98.66
-101.71
-104.17
-106.48
-109.02
-111.98
-115.42
-119.28
-123.47
-127.51
-131.05
-133.84
-135.69
-136.38
-135.56
-132.74
-127.15
-120.31
-112.85
-105.28
-98.06
-91.63
-86.29
-82.14
-79.07
-76.75
-74.74
-72.28
-68.87
-64.36
-58.84
-52.56
-45.66
-38.06
-29.43
-19.37
-7.38
6.52
21.77
37.38
52.31
65.85
77.93
89.17
100.51
112.88
126.66
141.43
156.35
170.55
183.57
195.72
207.92
221.37
237.32
256.91
280.81
308.99
340.00
370.58
395.90
410.75
411.44
397.26
370.93
337.54
302.42
269.24
238.97
210.60
182.64
154.65
127.71
103.77
84.24
69.03
56.57
44.61
31.69
17.88
4.66
-6.01
-12.93
-16.42
-18.03
-19.63
-22.37
-26.11
-29.84
-32.51
-33.79
-34.20
-34.72
-36.10
-38.26
-40.33
-41.13
-39.77
-35.99
-30.19
-23.15
-15.54
-7.95
-0.75
5.59
10.58
13.75
14.85
14.06
11.76
8.35
4.00
-1.30
-7.73
-15.13
-23.07
-30.83
-37.63
-42.99
-46.80
-49.20
-50.52
-51.10
-51.16
-50.81
-50.07
-49.02
-47.85
-46.77
-46.04
-45.76
-45.80
-45.81
-45.42
-44.45
-42.99
-41.50
-40.44
-40.07
-40.30
-40.82
-41.33
-41.89
-42.97
-45.14
-48.87
-54.15
-60.46
-67.08
-73.25
-78.36
-81.92
-83.39
-82.21
-77.96
-70.68
-60.98
-49.94
-38.73
-28.08
-18.15
-8.64
0.85
10.47
20.03
29.20
37.68
45.44
52.46
58.54
63.22
65.84
65.71
62.59
56.74
48.91
40.23
31.85
24.65
19.19
15.50
13.26
11.96
11.10
10.44
10.10
10.53
12.18
15.30
19.80
25.20
30.83
36.10
40.51
43.78
45.74
46.29
45.42
43.20
39.88
35.87
31.58
27.27
23.08
18.99
14.93
10.79
6.46
1.80
-3.33
-9.04
-15.29
-21.92
-28.73
-35.46
-41.87
-47.77
-52.97
-57.38
-60.99
-63.88
-66.12
-67.68
-68.17
-66.95
-63.15
-56.17
-45.87
-32.72
-17.63
-1.47
15.15
32.16
49.69
67.87
86.32
104.09
119.97
132.86
142.58
149.90
156.37
163.88
174.10
187.92
205.03
224.04
242.75
258.99
271.00
277.73
278.80
273.88
261.93
240.74
207.70
161.25
103.16
38.57
-25.31
-81.15
-123.17
-147.82
-153.82
-141.94
-115.65
-81.71
-50.61
-34.30
-41.17
-70.79
-112.59
-150.25
-169.40
-164.93
-143.18
-118.42
-104.52
-108.59
-126.77
-146.64
-155.46
-147.66
-130.11
-112.48
-100.48
-93.21
-85.02
-70.77
-49.16
-26.35
-12.04
-14.14
-34.17
-66.79
-102.89
-134.02
-155.88
-168.50
-174.95
-177.79
-177.83
-175.27
-171.96
-172.65
-183.43
-209.03
-244.96
-282.06
-307.73
-311.04
-287.89
-242.24
-182.90
-117.85
-51.76
13.81
77.03
132.58
176.57
205.10
216.55
212.98
201.65
192.32
193.44
209.11
236.65
267.30
288.93
290.81
265.92
215.48
143.35
56.48
-36.33
-125.87
-203.84
-264.73
-299.00
-304.17
-283.43
-244.07
-194.09
-140.68
-89.66
-45.21
-9.88
15.85
32.35
41.66
46.24
48.61
50.30
51.68
52.55
52.56
51.87
50.18
47.85
45.42
43.53
42.53
42.27
42.37
42.48
42.46
41.96
41.04
39.95
39.14
39.03
39.83
41.59
44.52
48.67
54.01
60.41
67.61
75.11
82.23
87.92
90.79
89.83
84.30
73.90
58.89
40.11
18.85
-3.36
-24.88
-44.51
-60.95
-73.40
-81.56
-85.81
-86.99
-86.12
-84.47
-83.17
-83.44
-85.52
-89.14
-93.62
-98.01
-101.27
-102.16
-99.77
-90.95
-76.80
-58.61
-37.90
-16.14
5.24
25.04
42.52
57.30
69.39
78.87
86.62
93.43
100.07
106.90
113.99
121.08
127.84
133.33
136.29
135.71
130.85
121.11
106.26
86.60
63.20
38.04
13.15
-9.76
-29.28
-44.75
-56.31
-64.68
-70.77
-75.13
-78.01
-79.31
-78.86
-76.67
-73.30
-69.83
-67.53
-67.35
-69.25
-72.40
-75.42
-77.08
-76.71
-74.58
-71.71
-69.35
-68.62
-70.24
-74.71
-81.86
-90.26
-96.81
-97.10
-86.98
-64.73
-32.57
3.54
36.06
58.81
69.87
71.20
67.06
61.46
56.40
51.55
45.64
38.01
29.49
22.06
17.45
16.09
16.86
17.60
15.94
10.65
2.05
-8.07
-17.23
-23.36
-25.80
-25.48
-24.67
-26.08
-31.66
-41.72
-54.83
-68.64
-80.78
-89.94
-95.62
-97.93
-96.48
-90.75
-81.09
-69.41
-58.63
-50.93
-45.76
-38.59
-23.07
5.36
46.27
93.35
136.95
168.73
186.16
190.91
188.03
182.66
177.49
172.60
166.38
157.60
146.15
132.63
117.35
100.16
80.54
56.77
29.43
-0.50
-31.28
-60.33
-85.37
-104.18
-114.77
-115.93
-107.52
-90.03
-64.70
-32.83
3.83
42.48
78.34
105.06
116.29
108.46
83.22
47.15
9.69
-20.45
-38.59
-45.12
-43.88
-39.55
-35.09
-31.10
-26.91
-22.12
-17.34
-13.95
-12.94
-14.22
-16.56
-18.24
-17.75
-14.80
-10.22
-5.50
-2.12
-0.83
-1.33
-2.60
-3.37
-2.70
-0.43
2.90
6.36
9.04
10.52
11.07
11.19
11.64
12.79
14.78
17.45
20.55
23.84
27.17
30.91
35.11
39.92
44.93
49.61
53.44
56.10
57.08
56.15
53.20
48.06
40.44
29.88
16.13
-0.34
-18.69
-37.46
-55.15
-70.49
-82.68
-91.51
-97.31
-100.64
-101.52
-99.67
-94.31
-85.17
-72.85
-59.11
-46.28
-36.77
-32.14
-31.99
-34.47
-36.41
-35.25
-30.04
-22.13
-14.28
-9.94
-11.83
-21.49
-39.29
-64.06
-93.12
-122.11
-144.82
-154.42
-146.33
-121.34
-86.51
-53.16
-31.41
-25.25
-31.09
-39.92
-42.73
-35.03
-18.71
0.07
14.73
22.14
23.77
23.75
26.28
33.53
45.39
60.03
75.79
92.12
107.01
120.28
132.83
146.21
161.34
178.53
197.10
216.27
235.49
254.13
270.62
280.96
279.37
260.15
221.71
168.78
112.17
65.33
38.76
35.38
48.95
67.19
77.66
73.00
52.87
22.89
-9.06
-35.83
-52.75
-58.20
-53.05
-39.82
-22.44
-6.19
3.36
1.42
-14.62
-44.07
-83.40
-126.67
-166.49
-195.75
-209.49
-206.71
-191.09
-170.21
-152.43
-143.70
-144.78
-150.70
-152.97
-143.81
-120.13
-85.64
-49.08
-20.59
-7.06
-8.87
-20.19
-32.00
-37.03
-33.33
-25.13
-19.79
-22.97
-34.85
-49.00
-55.71
-47.06
-21.07
17.34
58.86
94.51
118.70
129.70
127.88
113.57
86.63
48.49
4.11
-37.67
-66.91
-77.26
-69.72
-52.79
-39.11
-40.51
-63.58
-107.52
-164.61
-222.82
-269.16
-293.70
-291.38
-262.74
-213.99
-154.64
-94.11
-38.46
10.60
53.77
90.25
115.07
122.60
107.67
69.12
11.41
-56.21
-118.80
-160.16
-171.50
-153.20
-110.62
-50.04
22.59
100.45
174.79
240.68
294.75
333.48
356.04
365.00
364.60
359.27
352.62
347.49
329.82
296.38
248.85
192.36
133.25
76.89
26.87
-14.74
-47.10
-70.35
-83.85
-89.28
-89.47
-87.25
-84.89
-83.69
-83.97
-85.42
-87.33
-87.58
-85.61
-81.91
-77.48
-73.39
-70.44
-68.89
-68.58
-69.13
-69.15
-68.10
-66.13
-63.78
-61.72
-60.48
-60.30
-61.19
-62.95
-64.96
-67.01
-69.31
-72.28
-76.38
-81.83
-88.45
-95.70
-102.60
-108.13
-110.85
-109.35
-102.72
-90.43
-72.36
-48.81
-20.68
10.73
43.61
75.78
105.12
129.23
146.03
154.08
152.87
142.87
125.45
102.59
76.55
50.22
25.93
5.83
-7.92
-13.28
-8.90
5.71
29.71
60.78
96.18
131.91
164.04
189.77
207.83
218.27
221.97
219.80
207.10
184.51
153.68
116.52
75.65
34.05
-5.33
-39.87
-67.37
-85.99
-94.78
-94.67
-88.69
-81.83
-79.97
-87.66
-105.92
-130.70
-154.38
-168.17
-167.17
-152.00
-127.73
-100.94
-76.62
-56.72
-40.75
-27.59
-16.56
-8.30
-3.79
-3.09
-5.00
-7.45
-8.31
-6.56
-2.56
2.47
6.75
8.91
8.67
6.78
4.64
3.62
4.42
6.85
10.05
12.89
14.50
14.66
13.80
12.76
12.29
12.86
14.40
16.52
18.71
20.63
22.17
23.56
25.12
27.07
29.43
31.88
34.03
35.44
35.74
34.87
32.97
30.25
27.06
23.81
20.86
18.58
17.29
17.06
17.75
19.01
20.23
20.72
19.76
16.68
11.08
2.95
-7.48
-19.59
-32.52
-45.30
-56.68
-65.42
-70.45
-71.03
-66.81
-58.07
-45.55
-30.75
-15.44
-1.33
10.14
18.08
22.39
23.68
22.92
21.25
19.19
16.90
14.35
11.42
8.15
4.94
2.40
1.05
1.20
1.99
2.18
0.55
-3.71
-10.54
-18.92
-27.42
-34.63
-39.76
-43.63
-47.65
-53.54
-63.04
-77.64
-98.38
-125.61
-158.95
-191.81
-218.54
-233.81
-234.17
-219.46
-192.94
-160.19
-127.01
-97.60
-73.59
-55.48
-42.85
-35.54
-33.70
-37.05
-43.98
-51.04
-53.74
-47.99
-32.29
-7.71
22.23
53.02
80.70
103.02
119.59
131.36
139.68
145.31
148.67
149.94
149.36
147.32
144.26
140.57
136.43
131.90
126.95
121.75
116.87
113.14
111.46
112.49
116.32
122.21
128.77
134.18
136.62
134.66
127.63
115.90
101.11
86.02
73.75
66.77
65.73
68.98
72.84
72.81
64.98
47.02
18.63
-19.01
-64.29
-115.80
-172.60
-233.32
-294.84
-351.55
-395.86
-420.30
-420.14
-395.55
-351.69
-296.61
-238.31
-182.08
-129.63
-80.23
-32.55
14.13
59.81
104.41
148.22
191.78
235.54
279.34
322.22
362.16
395.80
418.50
425.06
411.35
376.25
323.01
258.57
191.31
128.34
73.50
27.36
-11.48
-44.34
-71.60
-93.05
-109.17
-122.23
-136.22
-156.22
-186.61
-229.01
-280.40
-332.94
-375.44
-396.95
-390.58
-356.10
-299.94
-232.24
-162.75
-97.42
-37.65
18.17
72.00
124.38
174.36
220.72
263.28
303.13
341.10
375.90
403.55
417.95
412.95
385.25
335.65
268.83
191.93
112.45
36.89
-29.58
-83.05
-120.93
-142.00
-147.27
-140.46
-127.87
-117.30
-116.10
-128.70
-155.92
-195.54
-243.65
-296.58
-351.90
-407.58
-460.75
-506.18
-535.61
-541.34
-519.80
-473.59
-410.68
-341.34
-273.77
-212.42
-157.78
-106.09
-54.64
-4.02
42.80
83.17
116.39
145.47
174.37
206.00
244.38
290.01
339.21
386.48
427.72
461.11
489.34
516.19
545.07
582.21
629.82
683.32
732.70
766.82
776.70
761.38
725.82
652.00
540.55
410.58
289.81
197.45
145.40
120.76
112.97
115.47
123.59
134.62
145.12
148.49
137.51
108.06
59.59
-2.55
-72.11
-143.75
-210.11
-265.94
-309.71
-341.99
-363.10
-373.05
-369.89
-353.05
-324.24
-284.82
-237.71
-188.47
-142.83
-104.33
-74.43
-51.84
-35.11
-23.57
-16.11
-12.23
-14.56
-24.92
-42.37
-63.64
-84.41
-101.85
-115.26
-125.12
-132.75
-144.87
-165.86
-195.01
-227.08
-256.14
-279.06
-296.03
-309.52
-322.65
-346.15
-386.30
-441.09
-501.48
-557.63
-603.96
-639.64
-666.85
-688.87
-719.54
-768.41
-835.75
-912.63
-987.25
-1049.60
-1092.20
-1109.97
-1034.84
-840.13
-553.87
-245.34
21.45
217.11
343.71
418.16
458.62
478.23
474.17
444.40
392.94
334.78
285.32
253.58
241.42
245.56
260.25
271.93
271.97
261.15
249.04
247.13
260.24
287.90
325.59
366.94
401.03
421.03
427.10
425.69
424.33
427.88
438.03
454.32
475.56
497.99
518.21
533.15
539.66
533.74
512.08
474.59
425.23
370.68
316.45
265.30
216.81
168.94
120.16
71.48
26.14
-12.56
-43.66
-69.06
-92.27
-115.90
-140.03
-162.06
-177.78
-184.77
-184.35
-181.40
-181.89
-189.75
-204.80
-222.99
-237.49
-240.45
-227.16
-198.57
-161.72
-127.13
-104.52
-98.55
-106.92
-120.20
-124.61
-109.19
-70.75
-14.85
47.85
107.06
156.86
195.97
215.82
210.58
180.23
131.55
73.55
13.57
-43.04
-89.47
-124.72
-147.84
-157.41
-154.11
-140.82
-121.76
-100.26
-77.79
-53.73
-26.63
5.86
46.55
96.85
155.68
218.93
279.41
328.20
356.80
359.02
333.86
286.22
224.70
159.01
97.05
42.89
-3.04
-42.46
-78.04
-111.42
-142.95
-172.52
-199.79
-219.94
-227.12
-217.51
-192.18
-156.58
-116.17
-74.17
-32.06
9.26
48.35
82.50
108.73
126.41
135.37
136.83
132.64
124.13
111.64
94.26
69.86
36.45
-4.18
-48.42
-91.64
-129.30
-158.30
-177.14
-186.18
-187.38
-183.32
-176.67
-170.29
-166.56
-167.00
-171.29
-176.20
-176.00
-164.36
-137.07
-95.01
-44.94
2.97
39.30
58.81
62.29
54.87
42.97
31.80
23.90
19.75
18.97
20.65
22.33
21.69
15.76
2.71
-15.96
-35.42
-48.81
-50.54
-39.04
-17.53
7.11
26.61
34.38
27.55
7.52
-20.48
-48.63
-69.93
-80.38
-80.23
-73.54
-65.93
-61.52
-62.16
-65.34
-67.38
-65.58
-58.66
-46.78
-30.99
-12.41
8.14
29.83
51.74
72.56
90.79
105.34
115.64
121.56
123.35
121.10
114.90
105.28
93.00
79.65
68.12
62.44
66.69
83.60
112.95
148.56
181.95
204.28
209.70
197.84
173.80
145.50
119.98
100.29
84.39
66.90
41.70
4.91
-43.13
-97.31
-149.25
-189.67
-211.19
-210.26
-187.45
-147.23
-96.40
-43.28
3.47
35.59
46.30
31.92
-6.86
-64.99
-134.91
-208.82
-280.57
-345.50
-399.32
-437.02
-453.47
-445.51
-414.07
-364.93
-307.01
-249.19
-197.39
-153.58
-116.71
-84.74
-56.39
-31.32
-9.53
9.67
27.98
47.64
70.33
96.27
124.38
152.58
179.18
203.92
228.55
256.05
288.77
326.45
365.30
398.79
419.88
423.71
409.30
379.69
340.41
297.38
255.37
217.30
184.53
157.24
134.97
116.74
101.39
87.96
75.97
65.42
56.60
49.45
43.31
37.22
30.17
21.61
11.84
2.19
-5.15
-7.81
-4.10
6.30
21.99
39.98
56.54
68.26
72.98
70.24
61.12
47.63
31.88
15.56
-0.39
-15.58
-29.86
-42.98
-54.66
-65.10
-75.33
-87.03
-101.64
-119.29
-137.93
-153.77
-162.85
-162.95
-155.10
-143.61
-134.53
-133.25
-142.31
-160.26
-182.12
-201.32
-211.99
-210.94
-198.29
-176.84
-150.39
-122.21
-94.26
-67.43
-42.63
-21.47
-6.32
0.60
-1.55
-11.52
-26.21
-41.84
-55.20
-64.48
-69.00
-68.57
-62.79
-50.95
-32.48
-7.78
21.39
52.07
80.78
104.37
120.44
127.46
124.65
112.01
90.66
63.11
33.45
6.52
-13.16
-22.79
-22.02
-12.86
1.19
16.35
29.54
38.88
43.63
43.87
40.17
33.46
24.93
16.01
8.30
3.19
1.53
3.22
7.18
11.56
14.28
13.74
9.23
1.25
-8.90
-19.46
-28.90
-36.34
-41.64
-45.25
-47.92
-50.41
-53.23
-56.38
-59.29
-60.90
-59.98
-55.61
-47.51
-36.20
-22.87
-8.97
4.14
15.48
24.48
30.89
34.80
36.48
36.41
35.27
33.79
32.53
31.78
31.45
31.06
30.07
27.97
24.64
20.40
15.99
12.34
10.15
9.60
10.13
10.52
9.33
5.37
-1.79
-11.55
-22.28
-31.65
-37.29
-37.42
-31.54
-20.54
-6.53
8.02
20.99
31.24
38.63
43.51
46.31
47.13
45.98
43.08
39.14
35.19
32.22
30.59
29.97
29.60
28.64
26.74
24.03
21.03
18.29
16.15
14.71
13.79
13.08
12.03
9.99
6.29
0.55
-7.05
-15.59
-23.45
-28.78
-30.07
-26.68
-19.12
-8.80
2.44
12.99
21.71
28.13
32.22
34.11
34.01
32.24
29.27
25.74
22.32
19.40
17.05
14.96
12.71
10.08
7.25
4.68
2.97
2.47
3.08
4.33
5.53
6.01
5.38
3.45
0.18
-4.29
-9.78
-15.89
-21.79
-26.31
-28.20
-26.49
-21.07
-12.69
-2.76
7.11
15.67
22.28
26.90
29.77
31.21
31.41
30.56
29.02
27.15
25.36
23.83
22.38
20.63
18.15
14.82
10.93
7.15
4.26
2.89
3.28
5.12
7.70
10.12
11.58
11.48
9.48
5.42
-0.62
-8.31
-16.86
-24.94
-30.94
-33.39
-31.52
-25.53
-16.59
-6.31
3.79
12.71
20.00
25.64
29.73
32.33
33.54
33.48
32.33
30.28
27.47
24.02
20.02
15.76
11.69
8.41
6.32
5.46
5.46
5.72
5.69
5.12
4.07
2.83
1.63
0.51
-0.73
-2.39
-4.74
-7.90
-11.74
-15.89
-19.81
-22.87
-24.48
-24.28
-22.23
-18.61
-13.84
-8.34
-2.46
3.46
8.96
13.49
16.53
17.75
17.16
15.01
11.70
7.61
3.10
-1.42
-5.51
-8.68
-10.65
-11.42
-11.30
-10.68
-9.83
-8.79
-7.48
-5.95
-4.49
-3.67
-4.17
-6.48
-10.75
-16.63
-23.36
-29.88
-35.07
-38.03
-38.35
-36.18
-32.19
-27.17
-21.79
-16.42
-11.22
-6.43
-2.49
-0.01
0.52
-1.00
-4.09
-7.93
-11.58
-14.36
-16.00
-16.51
-16.04
-14.72
-12.71
-10.22
-7.69
-5.54
-4.13
-3.59
-3.73
-4.23
-4.84
-5.61
-6.77
-8.76
-11.81
-15.73
-19.95
-23.58
-25.75
-25.83
-23.63
-19.33
-13.44
-6.65
0.28
6.69
12.03
15.97
18.35
19.19
18.73
17.35
15.57
13.92
12.88
12.76
13.56
15.00
16.57
17.76
18.18
17.80
16.88
15.85
15.23
15.32
16.14
17.34
18.37
18.53
17.21
14.03
8.86
1.98
-6.04
-14.33
-21.93
-27.78
-30.95
-30.83
-27.31
-20.97
-12.93
-4.55
2.90
8.60
12.34
14.34
15.03
14.89
14.31
13.61
13.09
12.91
13.13
13.59
14.03
14.28
14.40
14.54
14.91
15.47
16.00
16.18
15.75
14.74
13.30
11.69
9.91
7.78
4.99
1.27
-3.42
-8.82
-14.37
-19.35
-22.98
-24.75
-24.51
-22.45
-19.10
-15.05
-10.79
-6.61
-2.68
0.79
3.54
5.31
6.06
6.04
5.79
5.88
6.67
8.19
10.16
12.17
13.82
14.86
15.13
14.63
13.49
11.91
10.18
8.49
6.85
5.17
3.30
1.26
-0.68
-2.16
-2.97
-3.19
-3.28
-3.91
-5.67
-8.91
-13.53
-19.08
-24.74
-29.64
-32.88
-33.79
-32.09
-27.92
-21.92
-14.92
-7.81
-1.29
4.14
8.20
10.70
11.55
10.81
8.71
5.66
2.13
-1.43
-4.77
-7.79
-10.46
-12.72
-14.35
-15.02
-14.48
-12.63
-9.76
-6.42
-3.26
-0.82
0.66
1.25
1.17
0.58
-0.59
-2.75
-6.42
-11.96
-19.36
-28.09
-37.20
-45.47
-51.71
-54.95
-54.55
-50.34
-42.57
-31.95
-19.61
-6.90
4.80
14.40
21.38
25.77
28.03
28.69
28.09
26.35
23.50
19.76
15.61
11.81
9.13
8.08
8.70
10.63
13.37
16.42
19.52
22.46
25.06
26.89
27.33
25.76
21.74
15.10
6.00
-5.23
-17.82
-30.33
-40.11
-43.37
-35.98
-15.30
18.12
59.68
101.58
135.24
153.94
155.07
140.62
116.19
88.77
64.49
46.97
36.97
33.17
33.39
35.81
39.73
45.54
54.50
68.57
89.88
120.22
160.19
208.45
261.37
313.60
359.23
393.43
413.40
418.53
409.74
388.84
358.17
320.74
280.32
240.86
205.50
175.43
149.69
125.79
101.03
73.66
43.45
11.55
-20.23
-50.28
-77.86
-103.50
-128.67
-155.16
-184.32
-216.34
-250.20
-284.22
-316.68
-346.72
-374.72
-402.03
-430.63
-462.67
-500.32
-545.19
-597.55
-655.01
-711.81
-759.48
-789.01
-794.08
-773.48
-731.68
-676.94
-618.05
-561.42
-509.90
-463.53
-421.33
-382.81
-348.31
-318.32
-292.48
-269.34
-246.89
-223.59
-199.09
-174.23
-150.65
-129.84
-112.38
-97.75
-84.61
-71.50
-57.48
-42.47
-27.24
-12.90
-0.39
10.01
18.69
26.50
34.31
42.58
51.28
59.94
68.03
75.23
81.60
87.55
93.56
100.01
106.99
114.42
122.06
129.85
137.93
146.58
156.11
166.61
177.95
189.81
201.90
214.02
226.21
238.61
251.45
265.06
279.93
296.81
316.26
338.09
360.75
381.20
395.68
400.99
395.77
381.15
360.16
336.54
313.39
292.41
274.02
257.96
243.89
231.37
219.52
206.93
191.97
173.53
151.83
128.62
106.65
88.62
75.99
68.51
64.45
61.56
58.09
53.45
48.02
42.50
37.21
31.73
25.04
16.06
4.42
-9.14
-22.56
-32.88
-37.01
-32.97
-20.75
-2.62
17.31
34.41
45.11
48.00
43.98
35.39
24.73
13.85
3.95
-3.80
-7.59
-5.01
5.94
25.72
52.32
81.33
106.85
122.90
125.08
111.65
84.13
46.94
6.17
-32.05
-63.11
-85.11
-99.19
-108.86
-118.92
-134.34
-159.10
-195.10
-241.26
-292.90
-342.24
-380.06
-398.28
-392.49
-363.17
-315.12
-255.28
-190.50
-125.78
-64.08
-6.79
45.53
92.92
136.23
177.54
219.91
266.41
318.61
375.34
432.57
484.29
524.18
547.70
553.40
543.12
520.83
490.87
456.35
418.41
376.80
331.09
281.99
231.72
183.38
139.48
100.66
65.31
30.18
-8.10
-51.53
-99.79
-150.62
-200.48
-245.93
-284.53
-315.43
-339.86
-361.13
-384.24
-414.52
-455.44
-506.32
-561.27
-610.37
-643.05
-652.02
-636.02
-599.78
-551.40
-498.60
-445.96
-394.54
-343.45
-292.17
-241.85
-194.73
-152.51
-114.85
-79.02
-41.26
1.21
48.74
99.20
148.97
195.13
236.68
274.57
310.35
344.67
376.60
404.26
426.00
441.03
449.11
449.20
438.79
414.81
375.80
324.30
267.18
213.52
170.70
141.29
122.54
108.91
95.87
82.34
70.50
63.29
61.57
62.91
62.68
56.57
43.01
23.93
3.38
-14.76
-28.66
-38.90
-47.21
-54.85
-61.57
-66.00
-67.09
-65.55
-64.08
-66.46
-75.51
-91.22
-110.28
-127.28
-137.01
-136.68
-126.97
-111.23
-93.84
-78.53
-67.43
-60.97
-58.55
-58.95
-60.56
-61.25
-58.52
-50.13
-35.25
-15.17
6.65
25.79
38.55
43.37
41.14
34.48
26.32
18.72
12.33
6.72
1.13
-5.00
-11.72
-18.60
-24.94
-29.95
-32.84
-33.03
-30.33
-25.12
-18.29
-11.15
-5.12
-1.50
-1.26
-4.90
-12.25
-22.47
-34.19
-45.72
-55.46
-62.31
-65.76
-65.72
-62.32
-55.64
-45.92
-33.98
-21.47
-10.61
-3.39
-0.54
-1.18
-3.15
-4.27
-3.45
-1.10
1.41
2.87
3.02
2.62
2.66
3.55
4.61
4.53
2.19
-2.75
-9.75
-17.92
-26.51
-35.17
-43.66
-51.39
-57.10
-59.18
-56.29
-47.99
-34.94
-18.32
0.84
22.21
45.92
71.74
98.30
123.01
142.89
155.87
161.72
161.94
158.65
153.26
145.75
135.16
120.55
101.79
79.50
54.67
28.48
2.95
-18.57
-31.66
-32.48
-19.89
3.54
32.37
60.80
85.10
104.53
120.16
132.53
140.22
140.22
129.77
108.67
79.60
46.83
14.00
-17.41
-48.23
-80.17
-113.99
-148.51
-180.96
-208.44
-229.36
-243.77
-252.65
-256.31
-253.09
-239.64
-212.41
-169.60
-112.67
-46.08
24.19
92.57
154.80
207.47
247.38
271.69
279.69
274.64
263.93
257.01
261.09
278.06
303.35
327.81
341.45
337.29
313.50
273.39
223.70
172.10
125.16
86.84
58.22
38.18
24.54
15.54
10.78
10.88
16.36
26.66
39.75
53.08
64.74
74.32
82.65
90.85
99.22
106.80
111.97
113.30
110.35
104.12
96.54
89.76
85.32
83.62
83.85
84.33
83.19
79.10
71.56
60.95
48.33
35.02
22.16
10.31
-0.58
-11.16
-22.23
-34.42
-47.88
-62.15
-76.28
-89.26
-100.49
-110.22
-119.63
-130.44
-144.37
-162.32
-183.92
-207.72
-231.71
-254.10
-274.06
-291.98
-309.16
-327.46
-348.78
-374.52
-404.86
-437.95
-469.44
-492.66
-500.09
-485.55
-446.63
-386.17
-311.69
-233.19
-159.99
-97.84
-47.93
-7.79
26.52
58.02
87.80
115.18
139.05
158.85
175.22
189.42
202.41
214.16
223.82
230.76
235.37
239.50
245.59
255.42
268.76
282.64
291.96
290.88
274.90
242.68
196.74
142.67
87.13
35.19
-11.45
-53.91
-94.61
-134.75
-173.25
-207.42
-234.75
-254.67
-268.74
-279.59
-288.91
-297.01
-303.41
-308.30
-313.66
-322.51
-337.05
-356.98
-379.60
-401.33
-419.90
-435.11
-447.68
-458.03
-465.39
-468.68
-468.11
-465.76
-464.46
-465.21
-465.02
-456.73
-432.38
-386.25
-317.54
-229.91
-128.85
-19.41
93.99
205.68
306.88
385.03
428.73
433.35
404.71
357.82
310.76
277.44
262.84
263.00
266.84
263.99
249.45
224.90
196.31
170.07
150.35
139.13
137.73
144.05
156.15
172.49
191.16
208.80
219.85
217.50
196.38
154.92
90.72
4.56
-99.64
-215.20
-333.94
-447.80
-549.98
-635.04
-673.93
-645.96
-545.32
-387.96
-204.76
-26.60
127.04
249.13
337.84
403.15
447.22
467.70
461.31
427.52
370.00
296.40
217.06
145.53
95.72
73.66
78.57
103.64
138.42
170.83
190.00
189.05
167.27
129.99
83.94
36.25
-6.72
-40.11
-62.23
-74.69
-81.44
-87.33
-96.59
-113.13
-138.99
-172.73
-204.33
-223.20
-224.15
-210.86
-192.65
-182.20
-181.41
-187.96
-198.47
-210.12
-220.25
-228.17
-233.39
-234.60
-229.93
-217.73
-199.00
-176.52
-153.46
-133.20
-118.11
-108.38
-102.17
-96.49
-88.30
-76.65
-62.15
-46.21
-30.80
-17.69
-7.53
0.23
6.85
13.86
21.64
29.84
37.77
44.58
49.55
52.63
54.36
55.96
58.67
62.98
68.77
75.22
81.66
87.65
93.05
97.96
102.87
108.13
113.62
118.88
122.79
124.55
123.56
119.44
112.08
102.31
90.99
78.82
66.16
52.42
37.83
23.11
9.07
-3.47
-12.00
-14.73
-11.27
-2.83
6.21
13.57
18.38
20.36
20.11
22.13
30.13
45.59
67.43
88.53
106.34
121.11
134.12
147.81
170.19
207.24
260.92
328.43
397.21
461.88
521.56
577.04
631.11
693.50
770.96
864.65
969.41
1067.09
1148.57
1210.42
1251.29
1218.37
1077.92
823.02
480.57
153.88
-123.80
-345.26
-512.44
-643.74
-744.44
-809.61
-835.69
-824.69
-782.59
-726.85
-664.93
-599.50
-532.76
-464.26
-390.49
-310.98
-230.68
-155.43
-97.90
-60.86
-42.18
-38.04
-40.27
-39.73
-32.01
-22.12
-18.28
-33.75
-71.73
-125.88
-198.05
-276.64
-344.94
-371.45
-353.22
-299.65
-233.83
-168.56
-109.10
-56.11
-6.26
41.68
86.01
121.01
144.80
158.27
166.37
173.80
183.46
198.02
217.40
239.71
259.93
274.67
281.25
278.13
263.80
237.58
201.43
158.36
111.58
62.74
14.42
-30.44
-68.32
-96.62
-114.37
-122.44
-124.24
-124.59
-128.55
-138.27
-152.70
-168.20
-180.67
-187.11
-186.45
-179.65
-169.10
-157.73
-147.85
-140.79
-136.66
-134.63
-132.95
-129.35
-121.41
-107.32
-86.42
-59.69
-29.62
0.42
27.13
48.21
62.87
71.76
76.38
78.29
78.63
77.86
76.16
73.56
70.30
66.92
64.07
62.35
62.10
63.20
64.98
66.43
66.46
64.55
60.98
56.85
53.56
51.99
51.98
52.33
51.35
47.75
41.48
33.75
26.63
22.05
20.97
23.09
27.11
31.60
35.68
39.32
43.21
48.09
54.23
61.13
67.58
72.08
73.03
68.79
57.57
37.63
8.21
-29.38
-70.79
-108.81
-135.35
-144.34
-134.38
-109.61
-77.62
-45.61
-16.58
11.78
44.70
85.62
132.00
174.46
200.01
197.82
164.12
103.44
25.62
-59.30
-145.07
-229.53
-311.84
-388.78
-453.21
-495.96
-510.14
-494.99
-456.76
-406.30
-354.47
-308.46
-270.64
-239.47
-212.49
-188.06
-165.91
-146.25
-128.38
-109.76
-86.33
-53.96
-10.53
42.17
97.64
145.79
175.38
177.91
151.38
102.30
44.53
-4.81
-31.10
-26.94
6.09
59.07
119.73
176.79
222.48
252.63
265.34
259.71
235.95
196.53
147.39
97.94
58.70
37.65
36.90
51.72
72.53
89.12
95.28
90.87
81.05
72.72
70.51
74.34
79.78
80.69
72.56
54.74
30.31
4.58
-17.26
-31.66
-37.08
-34.05
-24.85
-13.02
-2.04
5.98
11.34
16.38
23.61
33.76
45.04
54.02
57.96
56.95
53.81
52.22
54.23
58.89
63.71
67.21
70.48
76.38
87.22
102.45
118.42
130.39
135.21
132.75
125.19
115.20
104.19
92.13
78.61
63.93
49.31
36.05
24.70
14.79
5.60
-2.73
-8.70
-10.07
-4.85
7.71
26.23
47.15
64.92
72.89
64.99
37.92
-6.93
-62.94
-120.16
-168.85
-203.06
-222.47
-231.42
-236.15
-241.75
-250.66
-262.94
-277.64
-294.03
-311.72
-329.85
-345.97
-355.82
-354.43
-338.01
-306.00
-261.89
-212.36
-164.89
-124.95
-94.14
-69.64
-46.11
-18.62
14.78
52.02
87.99
116.80
134.13
138.69
132.58
120.52
108.73
103.37
108.97
127.07
155.56
189.28
221.51
246.17
259.44
260.44
250.83
233.77
212.79
191.17
171.74
156.87
148.24
146.54
151.12
160.11
170.79
180.47
187.31
190.70
191.14
189.65
187.30
184.78
182.39
179.92
176.87
172.54
166.18
157.17
145.03
129.68
111.18
89.81
65.93
40.19
13.61
-12.53
-37.27
-60.87
-84.80
-111.09
-141.08
-174.35
-208.60
-240.48
-266.91
-285.94
-297.57
-302.76
-302.64
-297.84
-288.25
-273.11
-250.89
-219.65
-177.83
-126.54
-69.63
-12.84
38.47
81.34
115.48
141.70
159.23
164.58
151.39
114.32
52.48
-29.11
-121.09
-213.51
-299.44
-376.19
-436.19
-471.77
-476.08
-446.60
-387.71
-309.44
-223.61
-140.24
-65.88
-3.54
45.33
80.63
103.29
115.26
119.33
118.67
116.09
113.58
112.16
111.20
109.34
105.33
98.66
90.03
81.06
73.50
68.59
66.47
65.81
64.63
61.23
55.04
47.10
39.71
35.09
35.00
39.47
46.95
55.00
60.99
62.98
59.65
50.90
38.27
24.99
15.50
13.82
21.67
37.22
55.24
69.24
74.58
70.59
60.33
48.51
38.80
32.06
26.71
20.53
12.45
3.30
-4.79
-10.07
-11.95
-10.98
-8.40
-6.53
-7.60
-14.12
-28.03
-49.34
-75.25
-100.30
-117.42
-121.98
-113.24
-94.39
-70.89
-47.75
-27.69
-11.00
3.12
15.13
24.20
29.10
29.36
25.89
20.85
16.71
15.34
17.14
21.12
25.27
27.87
28.16
26.45
23.93
22.07
21.87
23.54
26.38
29.24
31.10
31.52
30.69
29.39
28.62
29.28
31.84
36.24
42.06
48.76
55.82
62.60
68.55
73.00
75.13
74.17
69.50
60.73
47.91
31.66
12.85
-7.35
-27.63
-47.01
-64.64
-79.69
-91.56
-100.52
-105.61
-106.56
-103.33
-96.16
-85.48
-71.91
-56.31
-39.53
-22.45
-5.51
10.77
25.96
39.48
50.67
59.07
64.15
65.59
63.53
58.51
50.91
41.09
29.61
16.28
1.38
-14.91
-31.93
-48.47
-62.73
-73.49
-80.22
-83.32
-85.21
-86.21
-87.18
-88.24
-88.76
-87.27
-82.58
-74.21
-62.79
-49.99
-37.63
-27.89
-22.49
-22.85
-29.53
-41.67
-55.38
-66.31
-69.61
-62.14
-44.91
-22.79
-2.74
9.33
11.15
4.47
-6.25
-16.49
-23.45
-27.05
-27.81
-26.10
-21.76
-13.95
-2.47
11.74
26.50
39.26
47.88
51.53
50.76
47.04
42.38
38.23
35.13
32.79
30.38
27.19
22.98
17.93
12.51
7.75
4.11
1.48
-0.77
-3.76
-8.26
-14.75
-23.27
-33.56
-44.28
-54.23
-62.50
-68.60
-72.86
-75.47
-76.73
-76.97
-76.29
-73.62
-67.83
-57.84
-42.76
-22.70
2.80
34.38
73.17
113.17
149.85
179.32
199.30
209.74
211.01
205.09
193.78
178.27
160.20
141.74
124.74
110.71
106.27
109.49
117.99
129.13
140.23
150.04
158.13
164.34
169.44
175.50
183.95
196.89
215.55
232.78
242.80
239.39
216.90
172.77
109.11
30.76
-54.28
-137.62
-212.39
-269.58
-300.23
-300.14
-271.97
-223.41
-165.47
-107.08
-53.90
-8.65
29.15
60.23
85.34
105.92
123.21
135.46
140.76
137.86
126.59
107.95
82.15
48.25
4.59
-48.08
-110.89
-183.56
-263.31
-344.57
-420.28
-484.33
-532.43
-562.33
-554.15
-499.21
-403.35
-284.77
-164.40
-57.18
30.16
97.62
148.47
185.38
210.76
224.79
227.60
220.78
206.81
188.30
167.13
144.18
120.42
93.85
61.74
22.45
-24.27
-78.23
-139.01
-205.32
-274.16
-338.97
-391.98
-425.68
-435.06
-419.74
-384.78
-338.36
-288.55
-241.19
-197.52
-155.90
-114.07
-70.56
-24.68
23.41
74.89
130.94
186.53
234.24
268.72
288.85
296.01
292.45
279.91
261.15
240.12
219.45
201.33
187.20
177.17
169.93
167.99
167.38
165.92
164.09
161.77
158.79
155.26
151.11
145.68
138.24
127.76
105.68
74.45
38.31
1.36
-33.14
-63.08
-87.97
-108.38
-125.89
-141.44
-154.37
-165.06
-174.03
-181.14
-185.26
-185.37
-180.78
-171.70
-158.77
-142.05
-122.89
-103.11
-83.61
-64.04
-44.01
-22.85
-0.18
24.19
51.50
83.49
117.06
144.20
159.78
161.89
153.38
139.31
124.01
110.09
98.10
87.36
77.56
69.25
68.31
74.62
86.68
102.10
118.44
133.65
146.34
156.50
165.67
161.33
142.29
112.36
76.85
40.36
5.97
-24.78
-51.09
-72.46
-89.04
-99.91
-105.36
-106.70
-105.64
-103.70
-101.92
-101.03
-101.34
-103.41
-106.46
-110.49
-115.76
-122.38
-129.99
-137.37
-143.62
-147.73
-149.04
-146.29
-138.93
-126.47
-108.73
-85.73
-57.66
-25.80
7.54
39.27
66.69
87.64
101.75
109.61
112.65
112.73
110.81
107.09
101.48
94.66
87.79
83.03
82.36
82.97
83.96
85.52
89.29
98.11
115.09
136.57
157.83
172.78
176.90
169.48
152.71
129.50
101.58
69.71
34.64
-1.07
-33.52
-56.61
-67.76
-66.95
-57.31
-45.31
-39.13
-46.45
-71.33
-112.79
-164.37
-213.72
-246.92
-254.84
-237.26
-202.52
-163.42
-131.31
-113.05
-106.42
-105.83
-105.17
-100.46
-90.91
-78.22
-64.75
-51.54
-37.21
-18.51
6.77
39.06
76.05
113.04
144.97
168.29
181.86
186.71
184.92
178.56
170.20
163.03
160.12
163.90
175.12
192.06
210.59
225.21
230.31
221.67
197.16
156.21
100.50
34.29
-35.77
-102.04
-157.97
-200.21
-229.20
-243.49
-243.70
-232.72
-215.30
-195.96
-177.23
-159.53
-142.19
-124.55
-106.60
-89.68
-75.40
-64.72
-57.37
-51.95
-47.02
-41.61
-35.62
-29.69
-25.40
-23.89
-25.15
-27.80
-29.57
-28.78
-24.84
-18.30
-10.49
-3.45
1.12
2.50
1.58
1.08
4.99
17.00
39.25
71.15
108.58
144.72
171.77
181.68
172.31
146.26
109.74
70.34
34.70
6.37
-14.28
-29.18
-40.73
-50.16
-57.79
-63.36
-66.89
-69.06
-71.80
-76.04
-81.82
-87.71
-91.14
-90.20
-84.19
-73.86
-60.28
-44.76
-28.67
-13.91
-3.11
1.07
-2.90
-14.07
-28.50
-39.79
-42.03
-31.77
-9.21
22.22
57.42
91.22
119.49
136.75
141.93
136.03
121.45
101.49
79.94
60.17
44.70
34.66
29.60
28.38
28.91
29.08
27.73
24.91
21.57
19.02
17.72
17.04
16.05
13.34
8.07
0.47
-7.89
-15.25
-19.28
-18.02
-10.68
1.66
15.13
23.60
20.70
2.52
-30.32
-70.49
-107.28
-131.10
-137.37
-128.04
-109.96
-90.99
-76.71
-69.17
-66.18
-64.57
-61.49
-54.80
-42.93
-24.74
-0.17
29.07
58.88
84.16
100.52
105.87
100.73
87.60
69.87
50.73
32.72
18.05
7.62
2.06
1.53
5.44
12.79
22.33
33.16
44.54
55.46
64.35
68.99
67.36
58.54
43.70
25.91
9.07
-3.40
-9.76
-10.16
-6.29
-0.47
4.95
8.19
8.19
4.67
-1.84
-9.55
-15.51
-16.35
-9.30
6.88
31.36
61.21
92.06
119.13
136.95
141.83
132.82
111.64
81.45
45.11
3.99
-41.94
-92.79
-147.12
-200.62
-246.70
-278.42
-290.86
-282.93
-257.37
-219.68
-176.28
-132.91
-93.69
-61.10
-36.15
-18.92
-8.84
-4.70
-4.69
-6.60
-7.93
-6.14
0.63
13.17
31.03
52.63
75.85
98.57
119.42
137.81
153.96
168.35
181.20
192.28
200.87
206.14
207.42
204.45
197.20
185.72
170.18
150.86
128.45
104.11
79.30
55.53
33.87
14.72
-2.12
-17.20
-31.08
-43.98
-55.76
-66.08
-74.63
-81.37
-86.47
-90.23
-92.74
-93.92
-93.47
-91.23
-87.49
-83.01
-78.77
-75.50
-73.34
-71.80
-70.29
-68.24
-65.47
-62.34
-59.64
-58.16
-58.38
-60.16
-62.66
-64.81
-65.44
-63.70
-59.63
-54.16
-48.69
-44.25
-40.81
-37.08
-31.58
-23.12
-11.45
2.05
14.85
24.18
28.01
25.66
17.82
5.49
-9.68
-25.63
-40.32
-52.32
-61.59
-69.96
-80.89
-93.67
-107.68
-120.95
-129.86
-130.56
-121.17
-103.14
-81.11
-60.91
-47.23
-42.24
-44.03
-46.91
-43.05
-25.67
7.67
52.81
99.69
135.86
151.51
144.09
119.12
87.03
58.04
38.26
28.74
27.50
32.21
41.87
56.36
74.92
94.91
112.10
122.54
124.25
119.16
109.91
100.05
92.51
87.99
85.05
80.89
72.79
59.33
40.68
17.56
-9.05
-38.40
-69.19
-98.52
-121.49
-131.79
-124.57
-98.39
-57.77
-11.41
30.54
60.04
73.90
73.67
64.20
50.90
38.41
29.63
26.71
31.29
44.10
64.15
85.86
101.44
104.00
90.80
64.09
29.88
-5.12
-36.23
-61.38
-80.50
-93.69
-102.23
-105.28
-102.58
-95.14
-84.86
-74.15
-64.48
-56.32
-49.10
-41.70
-33.05
-23.02
-12.13
-0.35
12.06
24.81
37.54
49.72
60.92
70.98
79.51
85.84
88.93
87.46
79.78
64.68
41.74
11.99
-22.11
-57.28
-89.86
-116.83
-136.35
-148.99
-156.51
-160.96
-162.32
-157.61
-142.13
-111.52
-64.60
-4.24
62.88
128.92
183.23
216.96
226.52
212.98
179.52
129.26
69.54
3.23
-65.59
-132.38
-193.34
-246.72
-293.58
-333.01
-364.85
-387.96
-400.54
-399.02
-379.88
-341.12
-283.69
-212.40
-135.26
-61.75
0.60
47.48
79.44
99.92
113.67
125.09
136.89
149.94
163.02
173.94
180.53
182.22
180.37
177.95
178.31
183.69
194.32
208.41
223.19
235.71
243.72
245.67
240.51
227.76
207.81
182.46
155.09
129.98
110.63
98.58
92.65
89.78
86.80
81.91
75.34
68.70
63.39
59.46
55.38
48.91
38.41
23.71
6.14
-12.39
-29.89
-44.61
-55.07
-59.94
-58.95
-53.68
-48.01
-46.96
-54.64
-71.78
-94.95
-117.84
-134.06
-139.80
-134.64
-120.46
-99.05
-70.77
-34.80
8.74
56.91
103.96
143.29
170.69
185.87
192.05
193.39
192.39
188.49
179.00
161.36
134.84
101.22
63.33
23.34
-18.18
-62.08
-109.68
-161.82
-218.05
-276.09
-330.78
-375.15
-401.34
-402.17
-373.27
-315.13
-234.80
-145.20
-62.12
1.61
39.62
53.95
54.10
53.03
62.07
86.71
125.53
172.41
220.90
265.26
300.84
323.17
327.31
308.66
264.59
196.75
108.14
11.59
-75.05
-136.48
-167.09
-171.88
-160.96
-143.89
-126.32
-109.82
-92.99
-75.17
-57.04
-40.37
-26.84
-16.80
-9.28
-2.66
4.96
15.58
29.34
45.07
60.43
72.77
81.53
87.31
90.93
93.09
94.41
94.13
91.40
84.90
74.17
60.07
45.33
32.30
22.76
17.48
15.12
14.38
13.29
10.75
6.76
3.48
1.74
1.00
4.20
9.80
16.14
20.78
22.46
21.02
18.98
16.92
14.24
8.57
-5.35
-21.98
-35.98
-43.03
-56.72
-79.84
-113.44
-150.06
-186.83
-226.10
-269.78
-319.13
-372.62
-426.80
-475.69
-515.81
-545.47
-542.33
-494.70
-404.36
-287.91
-166.58
-56.20
37.51
114.31
176.76
227.23
264.64
288.28
298.84
299.68
295.69
291.68
289.93
291.18
294.05
294.19
287.30
271.48
248.22
221.27
194.06
168.38
144.30
120.45
93.66
59.89
17.11
-34.39
-86.15
-131.96
-167.85
-192.35
-206.04
-211.21
-212.33
-212.31
-211.67
-209.49
-206.21
-203.76
-205.51
-215.02
-220.95
-217.37
-204.68
-188.82
-175.09
-164.22
-151.26
-129.09
-92.46
-41.13
17.06
71.39
112.79
137.51
147.05
146.59
141.76
136.24
131.32
124.82
115.19
103.06
91.05
81.71
76.11
73.42
71.73
69.20
63.83
55.27
44.79
34.49
25.92
19.54
14.52
9.49
3.66
-3.64
-11.90
-19.38
-23.77
-23.18
-16.68
-4.45
12.45
32.79
54.65
76.19
95.89
112.46
124.76
131.80
132.86
125.80
111.97
93.23
71.66
49.34
28.07
9.13
-6.71
-19.23
-28.62
-34.97
-38.99
-41.43
-42.95
-44.06
-45.19
-46.61
-48.50
-50.96
-53.73
-56.74
-59.91
-62.99
-65.65
-67.48
-68.00
-66.88
-63.93
-58.97
-52.23
-44.21
-35.53
-26.88
-18.95
-12.31
-7.43
-4.65
-4.02
-5.41
-8.52
-12.84
-17.60
-21.83
-24.54
-24.93
-22.55
-17.31
-9.50
0.13
10.53
20.60
29.40
36.20
40.45
41.75
39.79
34.56
26.26
15.37
2.83
-10.07
-21.86
-31.19
-37.31
-40.15
-39.98
-37.42
-33.10
-27.28
-19.72
-9.75
3.69
21.94
44.04
69.55
97.53
125.98
151.72
171.04
180.74
179.40
167.87
148.90
126.34
103.45
82.13
63.00
46.15
31.79
20.46
12.64
8.10
5.99
4.74
2.84
-0.60
-5.43
-10.73
-15.10
-17.50
-17.63
-15.76
-12.69
-9.32
-6.31
-3.86
-1.70
0.82
4.07
7.90
11.80
15.25
18.20
21.16
25.05
30.67
38.38
47.84
58.21
69.18
81.39
96.20
114.68
136.49
159.64
181.38
198.48
207.72
206.07
190.61
158.99
110.20
45.68
-31.41
-112.48
-185.98
-241.47
-273.50
-282.99
-275.27
-256.77
-232.52
-205.66
-177.84
-150.64
-125.92
-105.33
-89.68
-78.64
-70.76
-64.29
-57.77
-50.24
-41.83
-33.47
-26.30
-21.08
-17.79
-15.74
-13.97
-11.71
-8.49
-4.49
-0.34
3.19
5.59
6.86
7.37
7.71
8.32
9.46
11.07
12.83
14.35
15.39
15.93
16.14
16.29
16.59
17.19
18.10
19.31
20.75
22.43
24.41
26.76
29.50
32.57
35.73
38.69
41.10
42.40
42.35
40.80
37.66
33.09
27.41
21.08
14.66
8.86
4.07
0.77
-0.81
-0.65
1.02
3.79
7.11
10.34
13.07
14.68
14.89
13.62
10.96
7.05
2.17
-3.38
-9.43
-14.59
-19.31
-23.75
-28.00
-32.08
-36.05
-39.81
-43.25
-47.48
-51.53
-54.94
-57.23
-57.94
-56.85
-53.84
-49.01
-42.55
-35.18
-27.21
-19.21
-11.51
-4.27
2.27
7.92
12.54
16.05
17.84
17.94
16.39
13.41
9.28
4.12
-2.08
-9.31
-17.57
-27.50
-38.89
-51.18
-63.44
-74.58
-83.59
-89.75
-92.56
-86.83
-72.82
-52.64
-29.06
-4.82
17.87
37.36
52.52
62.84
68.03
68.26
64.28
57.26
48.54
39.45
32.01
27.27
25.56
26.70
29.57
33.34
37.49
41.81
46.36
51.44
57.31
63.98
71.34
78.79
85.82
92.06
97.32
101.55
104.92
107.74
109.44
109.49
107.08
101.67
93.18
82.18
69.91
58.02
48.23
40.83
35.63
31.65
27.57
22.23
15.24
7.03
-1.25
-8.24
-14.09
-19.37
-25.21
-33.07
-44.43
-60.54
-82.71
-112.49
-143.56
-171.73
-192.22
-200.58
-194.35
-174.64
-146.35
-116.62
-91.98
-75.66
-67.80
-65.01
-62.98
-58.95
-52.45
-44.59
-36.52
-28.40
-19.49
-10.05
-1.10
5.40
7.31
3.42
-5.83
-18.45
-31.69
-43.02
-51.44
-57.09
-61.14
-65.18
-70.40
-76.84
-83.25
-87.23
-86.03
-77.84
-62.16
-40.17
-14.32
12.16
35.96
54.18
64.88
67.51
62.94
53.54
42.56
33.31
28.29
28.76
34.80
45.62
59.78
75.27
89.70
100.52
105.70
104.29
96.72
84.70
70.85
58.33
50.56
50.81
61.45
82.95
113.07
146.58
176.27
194.73
196.30
178.50
142.48
92.59
35.44
-21.35
-70.60
-107.06
-128.54
-136.22
-133.87
-126.19
-116.90
-107.64
-97.96
-86.47
-72.17
-55.28
-37.10
-19.27
-2.93
11.55
24.29
35.28
43.91
49.08
49.70
45.37
36.94
26.16
15.07
5.08
-3.50
-11.31
-19.45
-28.86
-40.05
-52.98
-67.17
-81.83
-95.82
-107.68
-115.92
-119.39
-117.73
-111.72
-103.19
-94.51
-87.76
-84.27
-84.50
-88.13
-94.30
-101.63
-108.48
-113.17
-114.42
-111.49
-104.60
-94.96
-84.37
-74.50
-65.87
-57.78
-48.74
-37.39
-22.94
-5.81
12.37
29.16
42.28
50.97
55.45
56.55
54.41
49.62
42.52
33.14
20.99
5.66
-11.28
-27.58
-40.82
-50.07
-53.39
-49.21
-37.06
-18.72
2.69
25.96
50.35
75.49
99.34
122.76
147.64
175.74
206.73
238.79
272.04
306.09
339.59
367.74
388.85
403.01
411.70
415.88
399.78
356.50
290.87
234.01
193.69
168.69
149.88
132.83
114.33
92.03
66.96
40.46
13.59
-15.50
-46.01
-74.53
-96.50
-109.67
-114.76
-113.06
-107.17
-100.01
-96.55
-100.35
-111.69
-128.25
-147.70
-168.71
-190.58
-213.91
-240.11
-272.69
-314.91
-364.61
-413.63
-450.95
-466.76
-456.60
-422.41
-371.46
-297.73
-208.24
-118.76
-45.93
0.63
19.69
13.78
-15.48
-62.37
-121.15
-188.31
-259.13
-328.25
-391.35
-437.49
-461.15
-459.96
-434.37
-388.54
-331.34
-271.14
-213.75
-161.89
-116.32
-78.45
-49.26
-28.88
-16.81
-12.60
-13.75
-16.22
-15.77
-9.24
3.98
23.57
49.39
81.62
120.36
166.45
221.04
284.71
356.59
433.09
508.94
578.11
634.97
675.29
697.35
701.60
689.55
662.67
621.46
566.47
499.46
424.13
345.69
269.53
199.50
136.79
80.37
28.22
-21.20
-68.24
-112.31
-152.51
-187.79
-216.53
-235.90
-242.00
-231.41
-203.50
-161.89
-114.29
-69.99
-36.31
-15.50
-4.41
3.53
14.59
31.74
54.00
77.95
100.34
119.80
136.57
150.94
161.79
166.10
160.28
142.09
111.67
71.21
23.56
-28.96
-84.25
-138.70
-185.60
-215.04
-216.31
-182.01
-111.85
-14.51
94.00
194.75
271.48
315.11
325.13
307.98
273.26
229.85
183.26
135.49
86.37
35.33
-17.52
-71.11
-123.36
-171.16
-210.12
-235.41
-243.71
-235.69
-217.49
-199.71
-193.75
-207.11
-240.10
-286.10
-334.92
-377.31
-407.87
-425.15
-429.42
-420.37
-396.53
-356.65
-301.78
-236.32
-167.01
-100.73
-42.01
8.31
52.50
94.01
135.43
177.22
217.73
254.47
285.34
309.20
325.68
334.83
336.84
332.35
323.07
311.80
302.12
297.17
298.63
306.11
317.30
328.93
337.84
341.63
338.27
326.40
305.92
278.29
246.35
213.50
182.51
154.90
130.96
109.03
88.13
69.04
54.09
45.44
43.05
44.05
44.08
39.28
25.40
1.39
-29.65
-61.27
-86.46
-100.57
-102.64
-95.36
-83.97
