1722446691.00
64.000000
-0.00
-0.00
-0.00
-0.00
-0.00
-0.00
-0.00
-0.00
-0.00
-0.00
0.00
0.01
0.01
-0.00
-0.03
-0.05
-0.05
0.00
0.13
0.36
0.66
1.01
1.37
1.72
2.06
2.40
2.79
3.24
3.80
4.42
5.06
5.66
6.20
6.68
7.15
7.68
8.31
9.14
10.09
11.04
11.88
12.56
13.14
13.76
14.65
15.96
17.91
20.32
22.90
25.38
27.58
29.57
31.68
34.32
37.81
42.54
48.15
54.10
59.83
64.97
69.58
74.14
79.34
85.71
93.76
103.00
112.62
121.73
129.77
136.75
143.30
150.75
157.77
166.64
177.95
191.79
206.97
220.57
228.25
225.36
208.53
176.87
132.76
80.05
23.07
-34.94
-92.44
-149.16
-205.23
-260.37
-313.74
-363.87
-409.83
-450.91
-486.50
-515.74
-537.23
-549.22
-549.96
-538.37
-514.21
-478.67
-433.88
-382.45
-327.02
-269.84
-212.63
-156.66
-102.95
-52.37
-5.90
35.58
71.43
101.35
125.50
144.38
158.69
169.15
176.37
180.75
182.57
182.07
179.51
175.23
169.65
163.18
156.15
148.81
141.30
133.69
126.02
118.33
110.69
103.16
95.80
88.68
81.83
75.25
68.95
62.95
57.25
51.86
46.78
42.03
37.59
33.45
29.61
26.07
22.81
19.83
17.11
14.67
12.48
10.54
8.83
7.35
6.07
4.97
4.05
3.27
2.62
2.09
1.65
1.30
1.01
0.79
0.61
0.48
0.37
0.29
0.22
0.18
0.14
0.11
0.09
0.08
0.07
0.06
0.05
0.05
0.04
0.04
0.04
0.03
0.03
0.03
0.03
0.03
0.03
0.02
0.02
0.02
0.04
0.06
0.09
0.11
0.11
0.07
0.01
-0.07
-0.14
-0.18
-0.17
-0.11
-0.02
0.06
0.10
0.08
-0.00
-0.11
-0.19
-0.18
-0.09
0.07
0.20
0.23
0.12
-0.09
-0.30
-0.39
-0.27
0.04
0.42
0.69
0.68
0.34
-0.24
-0.83
-1.13
-0.95
-0.29
0.60
1.35
1.56
1.04
-0.05
-1.28
-2.02
-1.83
-0.62
1.18
2.85
3.57
2.94
1.14
-1.05
-2.63
-2.69
-0.95
2.10
5.37
7.48
7.13
3.70
-2.41
-9.48
-14.85
-15.84
-10.92
-0.42
13.37
27.22
38.10
44.00
44.22
39.11
30.16
19.67
10.66
6.09
7.40
13.56
21.36
26.98
28.20
25.56
22.01
20.71
22.71
26.35
28.47
26.68
21.20
14.78
10.93
12.13
18.03
26.06
33.17
37.40
38.44
37.40
35.58
33.41
30.68
26.45
19.70
10.01
-1.95
-14.88
-27.16
-36.71
-43.48
-47.82
-50.51
-52.46
-54.22
-55.92
-57.30
-57.93
-57.59
-56.44
-54.69
-52.75
-51.10
-50.06
-49.79
-50.21
-51.11
-52.21
-53.32
-54.10
-54.31
-54.05
-53.49
-52.98
-53.09
-53.47
-53.65
-52.94
-50.75
-46.13
-38.92
-29.67
-19.47
-9.52
-0.75
6.44
12.25
17.23
21.91
26.34
30.11
32.42
32.42
29.22
21.97
10.43
-4.39
-19.58
-30.60
-32.53
-22.03
0.74
31.57
62.99
86.78
96.69
90.53
70.46
42.11
12.59
-11.63
-26.24
-29.85
-23.90
-12.08
0.71
9.44
10.63
3.51
-9.73
-24.56
-35.64
-38.80
-32.72
-19.38
-3.89
7.61
10.37
2.52
-14.32
-36.01
-57.33
-73.71
-82.71
-85.68
-87.39
-94.34
-111.95
-141.74
-180.13
-219.47
-251.40
-266.82
-262.13
-240.05
-207.81
-173.52
-142.61
-116.47
-93.47
-71.28
-48.76
-26.90
-7.14
10.13
26.26
43.72
64.82
90.67
121.20
155.65
192.87
231.67
270.31
305.85
334.07
350.49
351.97
338.03
311.30
276.48
239.04
203.83
174.06
150.89
133.57
119.83
106.88
92.46
75.73
57.73
40.81
27.40
18.74
14.33
12.50
11.29
9.13
4.79
-2.85
-14.69
-30.69
-49.09
-66.42
-78.61
-82.96
-79.44
-70.75
-60.87
-52.95
-48.14
-45.54
-43.56
-41.23
-38.82
-37.31
-37.37
-38.52
-39.40
-38.65
-35.89
-32.22
-29.69
-30.45
-35.69
-45.18
-57.49
-70.59
-82.56
-91.95
-97.60
-98.31
-92.72
-79.68
-59.12
-32.60
-3.24
25.16
49.55
68.41
81.93
91.18
97.23
100.56
101.04
98.55
93.47
86.42
77.77
67.02
52.89
33.98
9.74
-18.92
-49.73
-79.78
-106.33
-127.30
-141.39
-147.75
-145.72
-135.15
-116.91
-93.10
-66.91
-41.77
-20.46
-4.36
6.71
14.44
20.76
26.95
33.30
39.34
44.42
47.98
49.81
50.08
50.27
51.92
56.00
62.53
70.69
79.29
86.99
92.70
95.83
97.85
100.31
103.88
108.03
111.63
113.95
114.63
113.81
111.37
108.78
106.57
103.90
99.33
92.21
84.13
77.30
74.30
64.83
42.27
5.34
-40.78
-88.61
-133.01
-171.06
-202.93
-228.01
-244.91
-249.72
-238.23
-208.68
-163.73
-110.27
-56.56
-13.42
12.33
14.04
-6.48
-40.94
-77.32
-103.69
-111.94
-98.07
-66.92
-25.34
19.16
62.87
105.54
149.05
194.98
232.77
270.65
300.05
314.36
309.80
287.68
253.08
212.17
168.97
123.97
77.07
26.23
-24.68
-67.38
-92.10
-92.98
-72.16
-40.40
-12.67
-0.31
-10.00
-39.46
-81.28
-127.12
-170.02
-204.62
-227.12
-234.57
-223.78
-194.39
-147.59
-87.30
-20.18
46.09
103.38
143.12
158.22
146.56
111.83
63.73
13.83
-29.31
-61.60
-77.96
-75.69
-57.45
-30.06
-0.21
25.25
46.53
62.03
68.06
60.49
37.27
-2.16
-55.37
-117.76
-177.76
-224.69
-253.51
-265.67
-266.81
-263.31
-260.04
-259.18
-260.55
-262.12
-260.96
-253.85
-237.07
-208.19
-168.08
-121.98
-77.44
-41.09
-15.94
-1.35
5.11
7.43
8.00
7.79
6.63
4.64
2.97
3.36
6.56
11.56
16.14
17.77
14.96
7.57
-3.02
-14.36
-23.84
-29.70
-31.40
-29.06
-25.81
-22.94
-20.53
-17.58
-12.36
-3.24
10.53
28.40
48.71
69.12
87.90
104.01
117.37
128.74
139.22
149.64
160.15
170.34
179.39
186.95
193.17
198.85
205.31
214.27
227.66
247.27
274.17
307.80
345.50
382.26
411.73
428.11
428.08
411.92
383.06
346.51
306.84
266.85
227.41
188.30
149.44
111.55
76.09
44.43
17.07
-6.75
-28.62
-50.20
-72.57
-95.95
-120.01
-144.43
-169.31
-195.01
-221.54
-247.80
-271.35
-289.12
-298.71
-299.62
-293.32
-282.56
-270.00
-257.10
-243.90
-229.78
-214.95
-201.15
-191.23
-186.97
-187.71
-190.03
-189.24
-181.66
-166.31
-145.71
-124.40
-106.65
-93.49
-82.81
-71.16
-56.33
-38.61
-19.96
-2.76
11.62
23.35
34.81
48.20
63.70
78.95
90.71
97.81
101.62
104.87
109.64
117.11
126.23
133.87
136.41
127.95
106.94
76.40
44.71
12.84
-20.80
-57.57
-94.91
-127.33
-148.73
-154.79
-143.92
-121.80
-99.82
-87.62
-88.35
-98.29
-110.62
-119.57
-122.22
-118.20
-108.95
-96.39
-80.73
-61.04
-37.33
-10.58
17.64
45.98
73.73
100.53
126.63
153.27
181.46
210.33
236.49
254.86
260.99
253.23
233.64
207.50
181.35
159.91
144.02
130.92
116.45
97.75
74.76
49.64
25.38
4.34
-12.26
-24.04
-30.71
-31.70
-26.63
-16.17
-2.43
11.59
23.10
30.41
33.38
32.97
30.57
27.08
22.50
16.29
8.03
-1.93
-12.53
-22.32
-30.13
-35.25
-37.73
-38.46
-38.84
-40.33
-43.90
-49.67
-56.62
-62.61
-64.56
-59.79
-47.44
-29.18
-8.77
9.37
21.82
27.45
26.65
22.37
19.20
20.89
28.34
39.74
52.47
64.73
76.00
86.16
95.27
102.96
108.29
110.63
109.42
104.95
98.06
89.81
80.33
69.66
57.51
43.44
27.04
8.01
-13.84
-39.14
-65.08
-90.33
-113.93
-135.35
-154.43
-171.34
-186.45
-200.19
-213.14
-226.32
-241.87
-262.07
-288.51
-320.86
-356.02
-388.33
-411.02
-418.60
-408.66
-383.00
-345.95
-302.61
-257.14
-212.18
-169.20
-129.43
-94.19
-64.56
-41.04
-22.67
-7.32
7.53
23.80
42.42
63.44
86.34
110.45
134.75
157.82
177.73
192.15
199.05
197.48
188.05
172.89
154.97
137.29
122.39
112.43
109.23
114.24
128.03
149.62
176.47
205.18
232.77
257.62
279.50
298.92
316.60
333.49
351.40
373.13
401.41
436.72
475.37
509.36
528.89
526.33
499.67
453.37
396.21
337.30
282.81
234.64
191.48
151.09
111.95
73.63
36.07
-1.01
-38.24
-75.41
-110.51
-139.51
-157.54
-161.21
-150.67
-130.20
-106.95
-88.22
-78.79
-79.54
-87.91
-99.65
-110.76
-118.57
-121.88
-120.47
-114.67
-105.23
-93.59
-81.83
-72.34
-67.24
-67.54
-73.08
-82.73
-95.12
-109.33
-125.28
-143.83
-166.43
-194.81
-230.11
-272.07
-318.15
-363.38
-401.21
-425.34
-431.86
-420.63
-395.30
-361.66
-325.48
-290.60
-258.47
-228.84
-201.14
-175.52
-152.96
-134.72
-121.45
-112.82
-107.63
-104.37
-101.77
-99.11
-96.27
-93.27
-89.88
-85.26
-78.04
-66.83
-50.80
-30.28
-6.91
16.82
38.36
55.92
68.84
77.49
82.77
85.47
86.02
84.54
81.14
76.27
70.76
65.55
61.40
58.53
56.64
55.04
52.97
49.86
45.48
39.91
33.42
26.38
19.19
12.23
5.81
0.19
-4.47
-8.10
-10.77
-12.77
-14.52
-16.42
-18.60
-20.77
-22.19
-21.90
-19.14
-13.64
-5.69
4.00
14.54
25.04
34.62
42.35
47.40
49.25
47.96
44.32
39.59
35.10
31.79
30.01
29.62
30.13
31.00
31.73
31.91
31.17
29.27
26.14
21.86
16.62
10.76
4.67
-1.17
-6.29
-10.36
-13.33
-15.57
-17.78
-20.79
-25.17
-30.87
-37.07
-42.37
-45.27
-44.66
-40.23
-32.62
-23.06
-13.04
-3.83
3.80
9.53
13.38
15.55
16.29
16.03
15.31
14.82
15.11
16.33
18.09
19.54
19.72
17.96
14.25
9.21
3.76
-1.30
-5.70
-9.68
-13.90
-18.92
-24.92
-31.49
-37.80
-42.97
-46.55
-48.87
-51.12
-55.07
-62.70
-75.58
-94.20
-117.53
-142.72
-165.56
-181.43
-186.80
-180.48
-164.32
-142.80
-121.50
-105.22
-96.38
-94.58
-97.18
-100.87
-103.07
-102.81
-100.65
-97.74
-94.79
-91.15
-84.68
-72.27
-50.58
-17.08
29.28
87.17
152.29
217.35
272.98
310.09
322.93
311.60
282.63
246.63
214.04
191.22
178.95
173.71
170.99
168.16
165.54
165.40
170.47
182.61
202.35
228.51
257.69
284.26
301.89
306.28
297.92
282.66
269.00
262.99
264.20
265.49
257.33
233.86
196.82
154.67
117.57
91.47
75.31
62.35
45.06
19.60
-12.53
-46.39
-77.03
-102.51
-124.25
-145.10
-166.72
-188.20
-206.31
-217.54
-219.98
-214.20
-202.48
-187.19
-169.22
-147.87
-122.08
-92.45
-62.66
-39.10
-28.36
-33.66
-52.36
-75.99
-93.60
-96.66
-83.13
-58.14
-30.89
-9.47
3.31
10.35
16.95
25.80
34.30
35.98
25.38
2.92
-23.69
-42.92
-45.43
-29.10
0.32
32.75
59.33
76.31
85.18
89.34
90.11
85.11
70.00
42.24
4.04
-37.95
-75.97
-105.24
-126.18
-143.21
-161.27
-181.87
-201.59
-213.51
-211.08
-191.67
-158.22
-117.80
-78.30
-45.08
-19.36
1.19
20.39
41.28
65.02
90.96
117.88
145.04
172.32
199.27
223.88
242.14
249.37
242.76
223.57
197.34
171.62
152.27
140.45
132.38
121.88
104.25
78.90
49.40
21.00
-2.50
-20.34
-34.02
-45.03
-52.97
-55.63
-50.76
-38.31
-21.30
-4.83
6.34
10.04
7.52
2.46
-0.82
0.86
8.86
22.94
41.95
64.24
87.67
109.66
127.41
138.72
142.70
139.92
131.85
120.00
105.43
88.88
71.12
53.18
36.08
20.24
5.35
-9.09
-23.13
-35.82
-45.66
-51.71
-54.51
-56.23
-59.66
-66.70
-77.32
-89.71
-101.23
-109.89
-115.11
-117.58
-118.64
-119.53
-121.14
-124.08
-129.09
-137.07
-148.66
-163.33
-178.76
-191.14
-196.60
-192.84
-180.26
-161.73
-140.89
-120.21
-99.93
-78.47
-54.06
-26.33
3.02
30.86
53.88
69.95
78.73
81.61
81.22
80.54
81.95
86.45
93.33
100.65
106.30
108.90
107.84
102.65
92.11
74.09
46.50
8.93
-36.02
-82.63
-123.71
-152.88
-166.67
-165.37
-152.37
-132.69
-111.34
-92.20
-77.48
-67.76
-62.19
-58.96
-55.72
-50.24
-40.99
-27.59
-10.78
8.01
27.22
45.58
62.32
76.89
88.81
97.47
102.18
102.17
96.68
85.01
66.79
42.26
12.71
-19.39
-50.60
-77.18
-95.98
-105.10
-104.07
-93.77
-75.95
-52.86
-26.84
-0.13
25.39
48.31
67.76
83.37
95.26
103.97
110.32
115.20
119.36
123.07
126.03
127.47
126.39
122.02
114.15
103.19
89.94
75.20
59.62
43.75
28.24
13.95
1.82
-7.63
-14.68
-20.48
-26.62
-34.39
-44.20
-55.32
-66.36
-75.86
-82.93
-87.49
-89.98
-90.99
-90.89
-89.75
-87.52
-84.21
-80.11
-75.67
-71.46
-68.06
-65.91
-65.10
-65.17
-64.89
-62.53
-56.34
-45.32
-29.62
-10.61
9.66
29.08
45.83
58.57
66.36
68.85
66.54
60.85
53.86
47.53
42.99
40.13
37.96
35.35
31.76
27.38
22.77
18.24
13.70
8.78
3.33
-2.31
-7.35
-11.01
-12.91
-13.19
-12.47
-11.45
-10.77
-10.75
-11.35
-12.22
-12.81
-12.61
-11.34
-9.02
-5.88
-2.26
1.59
5.46
9.09
12.20
14.46
15.64
15.69
14.68
12.70
9.74
5.76
0.89
-4.54
-9.91
-14.54
-17.96
-20.14
-21.49
-22.61
-24.07
-26.23
-29.12
-32.56
-36.18
-39.64
-42.69
-45.16
-47.11
-48.69
-50.10
-51.50
-52.98
-54.52
-55.97
-57.08
-57.49
-56.85
-54.92
-51.57
-46.88
-41.03
-34.29
-27.01
-19.61
-12.65
-6.69
-2.12
0.98
2.91
4.08
4.79
5.12
4.97
4.36
3.67
3.58
4.62
6.74
9.06
10.22
8.92
4.72
-1.83
-9.45
-16.86
-23.40
-29.27
-35.15
-41.61
-48.67
-55.78
-62.25
-67.71
-72.32
-76.45
-80.23
-83.07
-83.81
-81.33
-75.23
-66.33
-56.36
-47.28
-40.52
-36.29
-33.38
-29.33
-20.94
-5.05
20.32
54.89
95.57
136.94
172.83
198.46
211.84
214.01
207.66
195.55
179.78
162.35
146.44
136.92
138.78
154.24
180.33
208.84
229.49
234.68
222.90
198.96
170.75
144.78
123.38
104.80
85.80
64.47
41.45
18.95
-1.41
-20.24
-40.33
-65.00
-95.83
-131.29
-166.68
-195.64
-212.21
-212.57
-196.01
-164.59
-121.62
-70.11
-11.84
51.97
119.06
184.53
240.90
280.00
296.11
288.43
261.65
224.05
184.43
149.26
121.43
100.67
85.27
73.38
63.61
54.68
44.97
32.56
15.86
-5.70
-31.41
-59.52
-88.11
-116.01
-143.32
-171.49
-203.01
-240.66
-286.35
-339.68
-396.86
-450.79
-492.78
-515.32
-514.93
-493.32
-456.63
-412.88
-369.10
-329.50
-295.34
-266.42
-242.39
-223.30
-208.89
-197.83
-187.64
-175.42
-159.18
-138.58
-115.25
-91.85
-70.82
-52.90
-36.63
-18.86
4.39
36.43
78.79
129.78
184.14
233.95
270.88
289.13
287.33
269.23
241.76
214.44
196.12
191.62
199.02
211.37
222.16
228.48
230.95
231.08
229.71
225.88
218.01
205.22
187.93
168.32
149.11
133.62
123.43
118.55
117.67
119.07
123.56
131.63
143.12
154.40
165.07
174.94
184.18
191.45
194.96
193.06
184.51
169.26
148.49
124.61
99.72
75.42
52.27
29.98
7.53
-16.65
-43.57
-73.29
-104.45
-135.70
-165.84
-194.55
-222.37
-250.57
-280.98
-315.58
-356.27
-404.25
-459.69
-520.17
-580.06
-630.88
-663.69
-672.34
-655.84
-618.77
-569.22
-515.82
-464.70
-418.40
-376.55
-337.86
-301.61
-268.03
-237.62
-210.16
-184.53
-159.18
-133.00
-105.94
-78.91
-53.49
-30.96
-11.81
4.45
18.91
32.80
46.95
61.57
76.36
90.80
104.53
117.49
129.94
142.29
154.90
167.92
181.34
194.98
208.69
222.48
236.71
252.05
269.17
288.19
308.10
326.56
340.45
346.90
344.47
333.68
316.65
296.11
274.09
251.35
227.52
201.94
174.64
146.74
120.18
96.99
78.51
64.98
55.83
50.10
47.01
46.13
47.35
50.49
54.98
59.90
64.11
66.72
67.43
66.51
64.58
62.19
59.56
56.55
52.94
48.72
44.23
40.05
36.78
34.71
33.69
33.25
32.92
32.47
31.99
31.63
31.31
30.56
28.54
24.58
18.53
11.12
3.64
-2.59
-6.83
-9.26
-10.87
-12.92
-16.34
-21.40
-27.63
-34.11
-39.72
-43.32
-44.00
-41.15
-34.66
-25.07
-13.50
-1.48
9.42
18.06
23.87
26.91
27.59
26.42
23.97
20.89
18.06
16.52
17.08
19.98
24.50
29.16
32.25
32.69
30.58
27.20
24.29
23.20
24.07
25.88
27.07
26.39
23.60
19.47
15.17
11.61
8.92
6.61
4.01
0.70
-3.25
-7.60
-12.23
-17.40
-23.50
-30.57
-37.94
-44.30
-48.27
-49.16
-47.40
-44.42
-41.89
-40.87
-41.30
-42.16
-42.08
-40.21
-36.62
-32.26
-28.39
-25.77
-24.25
-22.80
-20.03
-14.93
-7.40
1.74
11.13
19.70
27.23
34.41
42.21
51.04
60.09
67.46
71.01
69.53
63.46
54.72
45.82
38.68
33.89
30.70
27.68
23.47
17.36
9.33
-0.16
-10.58
-21.34
-31.73
-40.76
-47.19
-49.88
-48.24
-42.60
-34.22
-24.91
-16.27
-9.16
-3.41
1.81
7.43
13.81
20.47
26.33
30.18
31.20
29.23
24.76
18.68
12.13
6.27
2.10
0.19
0.57
2.69
5.65
8.52
10.71
12.06
12.70
12.80
12.32
11.10
8.96
5.93
2.21
-1.96
-6.39
-11.08
-16.03
-21.06
-25.73
-29.38
-31.39
-31.30
-29.06
-24.91
-19.37
-13.14
-6.86
-1.09
3.93
8.23
12.00
15.34
18.06
19.75
20.01
18.82
16.71
14.60
13.35
13.34
14.27
15.43
16.16
16.28
16.12
16.29
17.13
18.46
19.60
19.70
18.24
15.29
11.46
7.61
4.36
1.88
-0.23
-2.62
-5.82
-9.82
-13.92
-16.93
-17.67
-15.50
-10.63
-4.07
2.84
8.92
13.67
17.22
20.17
23.14
26.39
29.80
32.94
35.38
36.93
37.73
38.07
38.21
38.19
37.79
36.68
34.66
31.86
28.70
25.75
23.38
21.57
19.88
17.76
14.79
10.97
6.68
2.42
-1.41
-4.75
-7.90
-11.26
-15.12
-19.43
-23.79
-27.58
-30.24
-31.35
-30.85
-28.88
-25.77
-21.87
-17.53
-12.99
-8.46
-4.14
-0.14
3.43
6.42
8.69
10.13
10.68
10.48
9.83
9.13
8.69
8.62
8.77
8.84
8.49
7.60
6.29
4.86
3.61
2.66
1.87
0.92
-0.49
-2.47
-4.83
-7.23
-9.35
-11.16
-12.93
-15.16
-18.29
-22.36
-26.98
-31.35
-34.53
-35.86
-35.11
-32.61
-29.03
-25.07
-21.17
-17.41
-13.55
-9.36
-4.88
-0.44
3.39
6.16
7.71
8.26
8.25
8.07
7.92
7.75
7.39
6.76
5.89
4.97
4.28
3.93
3.91
4.01
3.91
3.37
2.34
1.03
-0.18
-1.00
-1.40
-1.70
-2.46
-4.20
-7.12
-11.02
-15.30
-19.25
-22.24
-23.90
-24.19
-23.31
-21.73
-19.95
-18.41
-17.24
-16.22
-14.83
-12.56
-9.15
-4.80
-0.13
4.04
7.12
8.84
9.39
9.18
8.60
7.87
7.03
6.03
4.87
3.67
2.60
1.84
1.46
1.33
1.15
0.61
-0.53
-2.29
-4.48
-6.79
-8.89
-10.65
-12.11
-13.47
-14.91
-16.52
-18.22
-19.87
-21.33
-22.59
-23.61
-24.27
-24.33
-23.43
-21.31
-17.99
-13.78
-9.20
-4.77
-0.85
2.42
5.10
7.29
9.00
10.26
11.13
11.80
12.57
13.66
15.11
16.68
17.88
18.30
17.71
16.30
14.59
13.12
12.24
11.94
11.85
11.60
10.90
9.81
8.58
7.49
6.66
5.96
5.07
3.65
1.49
-1.31
-4.31
-6.84
-8.13
-7.62
-5.18
-1.14
3.81
8.95
13.70
17.77
21.05
23.42
24.62
24.31
22.27
18.55
13.55
7.85
2.05
-3.41
-8.17
-11.92
-14.36
-15.21
-14.37
-11.99
-8.40
-4.07
0.54
4.87
8.24
9.87
9.09
5.64
-0.11
-7.26
-14.72
-21.70
-27.93
-33.63
-39.07
-44.20
-48.46
-50.96
-50.91
-48.01
-42.64
-35.66
-28.09
-20.76
-14.12
-8.31
-3.25
1.08
4.56
6.99
8.23
8.32
7.57
6.46
5.48
4.93
4.86
5.07
5.27
5.23
4.87
4.31
3.73
3.27
2.93
2.58
2.01
1.08
-0.24
-1.88
-3.67
-5.50
-7.28
-8.96
-10.60
-12.28
-14.14
-16.30
-18.75
-21.26
-23.42
-24.70
-24.74
-23.46
-21.14
-18.26
-15.32
-12.63
-10.23
-7.92
-5.49
-2.78
0.15
3.10
5.71
7.69
8.89
9.42
9.61
9.92
10.77
12.31
14.37
16.49
17.99
18.30
17.12
14.66
11.67
9.12
7.95
8.55
10.55
12.79
13.69
11.87
6.61
-1.85
-12.50
-24.00
-35.13
-45.09
-53.53
-60.53
-66.36
-71.40
-75.84
-79.38
-81.06
-79.31
-72.58
-60.45
-44.56
-28.92
-18.94
-19.35
-32.03
-54.80
-82.14
-107.29
-124.75
-131.78
-128.54
-116.59
-97.18
-70.13
-34.33
10.48
62.09
115.12
162.43
197.57
217.35
222.99
219.54
213.42
209.71
210.46
214.42
218.30
218.14
210.86
195.33
172.96
146.85
120.49
96.83
77.24
61.67
47.90
31.90
9.26
-22.01
-61.08
-104.03
-143.73
-171.46
-177.96
-157.73
-112.21
-50.14
15.70
70.51
101.30
101.13
70.97
21.37
-32.42
-75.05
-94.09
-80.31
-31.77
44.83
135.56
222.22
290.00
329.81
340.44
315.14
259.76
191.44
130.32
94.34
76.52
65.41
51.45
27.11
-9.78
-54.51
-98.38
-131.09
-143.75
-133.13
-101.53
-58.91
-19.91
2.71
5.04
-8.51
-28.80
-47.13
-59.38
-64.76
-65.70
-65.55
-66.30
-68.14
-72.40
-83.12
-105.74
-143.87
-194.53
-248.24
-292.05
-313.91
-306.91
-271.56
-214.41
-144.32
-69.15
6.06
77.50
140.55
189.61
219.73
228.86
219.31
197.00
169.07
141.40
116.85
95.57
76.16
57.11
37.21
15.02
-12.02
-47.92
-97.08
-162.10
-241.50
-328.61
-412.47
-481.17
-526.03
-544.62
-541.31
-524.67
-503.71
-484.14
-467.14
-450.45
-430.77
-405.79
-374.96
-339.12
-299.78
-258.79
-217.92
-178.57
-141.19
-104.92
-68.11
-29.00
13.13
57.41
101.77
143.92
182.31
216.50
246.75
273.33
296.72
318.40
341.25
368.83
403.45
443.76
483.71
514.03
525.11
511.60
475.01
423.33
367.45
317.14
277.96
250.53
231.81
216.43
199.15
175.60
142.59
98.17
42.62
-19.90
-81.00
-129.38
-155.36
-153.76
-126.27
-81.53
-33.18
4.57
21.96
15.94
-10.37
-52.51
-106.31
-168.12
-233.78
-297.81
-353.28
-392.84
-411.84
-401.74
-364.00
-312.01
-264.33
-232.72
-217.15
-211.15
-205.25
-194.83
-179.94
-164.29
-150.77
-139.50
-127.40
-110.43
-85.91
-53.47
-15.73
23.19
57.78
84.01
101.15
111.92
120.54
130.46
143.15
157.33
170.07
177.46
177.03
169.31
157.94
147.90
143.87
149.20
165.41
192.19
226.62
262.77
291.97
304.56
293.07
256.00
200.11
139.20
89.52
63.38
64.81
88.91
125.20
162.42
192.33
210.71
215.92
206.77
181.65
139.41
81.20
11.93
-60.02
-124.70
-173.51
-201.49
-208.25
-197.35
-174.36
-144.81
-112.80
-80.65
-49.59
-20.78
4.01
22.55
32.94
34.66
29.09
19.22
8.67
0.50
-3.72
-4.11
-2.07
0.53
2.03
1.57
-1.00
-5.23
-10.44
-15.90
-21.01
-25.23
-28.17
-29.52
-29.13
-27.11
-23.81
-19.86
-16.01
-12.93
-10.97
-10.05
-9.75
-9.53
-8.99
-8.08
-7.04
-6.32
-6.21
-6.82
-7.94
-9.17
-10.05
-10.23
-9.53
-8.03
-6.10
-4.24
-2.96
-2.56
-2.98
-3.90
-4.80
-5.29
-5.27
-4.94
-4.66
-4.76
-5.41
-6.54
-7.96
-9.50
-11.03
-12.43
-13.48
-13.89
-13.35
-11.76
-9.36
-6.62
-4.14
-2.28
-1.01
0.05
1.41
3.37
5.87
8.47
10.57
11.70
11.69
10.74
9.23
7.66
6.45
5.85
5.95
6.62
7.63
8.67
9.49
9.95
10.02
9.76
9.23
8.45
7.43
6.19
4.77
3.21
1.49
-0.46
-2.82
-5.69
-8.98
-12.34
-15.19
-16.90
-17.01
-15.44
-12.55
-8.98
-5.39
-2.19
0.53
2.94
5.25
7.54
9.61
11.15
11.92
11.91
11.32
10.53
9.81
9.26
8.79
8.22
7.44
6.50
5.62
5.05
4.98
5.34
5.85
6.08
5.71
4.61
2.98
1.21
-0.36
-1.55
-2.54
-3.71
-5.40
-7.74
-10.47
-13.04
-14.81
-15.29
-14.36
-12.25
-9.44
-6.44
-3.61
-1.10
1.15
3.21
5.04
6.48
7.28
7.31
6.65
5.57
4.42
3.45
2.66
1.90
0.98
-0.10
-1.15
-1.84
-1.93
-1.39
-0.49
0.32
0.63
0.23
-0.82
-2.23
-3.63
-4.78
-5.65
-6.49
-7.71
-9.72
-12.64
-16.29
-20.06
-23.20
-25.00
-25.08
-23.52
-20.77
-17.44
-14.03
-10.82
-7.81
-4.86
-1.89
1.01
3.63
5.72
7.10
7.81
8.04
8.11
8.25
8.58
9.00
9.35
9.49
9.40
9.18
8.98
8.88
8.77
8.46
7.72
6.44
4.70
2.66
0.52
-1.63
-3.83
-6.16
-8.63
-11.10
-13.40
-15.35
-16.96
-18.43
-20.07
-22.03
-24.09
-25.73
-26.26
-25.17
-22.40
-18.32
-13.57
-8.75
-4.16
0.15
4.24
8.10
11.54
14.29
16.14
17.07
17.24
16.91
16.29
15.49
14.49
13.30
11.97
10.68
9.69
9.23
9.40
10.03
10.75
11.11
10.73
9.49
7.51
5.04
2.36
-0.34
-2.95
-5.34
-7.40
-9.07
-10.33
-11.38
-12.46
-13.86
-15.73
-18.09
-20.81
-23.69
-26.41
-28.59
-29.76
-29.53
-27.70
-24.39
-20.06
-15.36
-10.83
-6.75
-3.09
0.39
3.82
7.09
9.87
11.81
12.77
12.91
12.63
12.32
12.16
12.06
11.78
11.16
10.29
9.48
9.07
9.20
9.76
10.40
10.74
10.55
9.84
8.66
7.10
5.11
2.58
-0.48
-3.89
-7.27
-10.18
-12.34
-13.69
-14.45
-15.05
-15.93
-17.45
-19.76
-22.76
-26.09
-29.20
-31.46
-32.40
-31.76
-29.66
-26.44
-22.53
-18.34
-14.04
-9.74
-5.48
-1.38
2.34
5.44
7.78
9.37
10.40
11.14
11.79
12.45
13.06
13.56
13.89
14.08
14.26
14.54
15.00
15.61
16.27
16.86
17.26
17.37
17.07
16.29
15.00
13.23
11.11
8.83
6.67
4.85
3.50
2.59
1.86
0.98
-0.39
-2.45
-5.19
-8.30
-11.31
-13.68
-14.97
-14.92
-13.52
-10.95
-7.53
-3.59
0.58
4.75
8.75
12.43
15.66
18.29
20.28
21.59
22.31
22.51
22.29
21.77
21.00
20.08
19.08
18.04
16.99
15.92
14.81
13.63
12.40
11.10
9.73
8.26
6.71
5.13
3.57
2.07
0.62
-0.81
-2.22
-3.58
-4.87
-6.08
-7.28
-8.59
-10.17
-12.07
-14.28
-16.72
-19.27
-21.81
-24.20
-26.15
-27.28
-27.21
-25.69
-22.77
-18.81
-14.35
-9.88
-5.71
-1.90
1.59
4.77
7.48
9.47
10.53
10.62
9.95
8.96
8.06
7.56
7.46
7.56
7.57
7.27
6.65
5.95
5.43
5.30
5.48
5.75
5.75
5.29
4.39
3.21
1.94
0.67
-0.67
-2.19
-3.94
-5.85
-7.73
-9.43
-10.87
-12.14
-13.48
-15.14
-17.33
-20.05
-23.08
-25.98
-28.18
-29.16
-28.63
-26.60
-23.28
-18.97
-13.87
-8.07
-1.71
4.88
11.05
15.95
18.82
19.31
17.65
14.61
11.15
8.08
5.79
4.19
2.89
1.38
-0.69
-3.42
-6.50
-9.32
-10.98
-10.60
-7.62
-2.11
5.08
12.47
18.43
21.67
21.71
18.91
14.16
8.46
2.53
-3.30
-8.99
-14.50
-19.72
-24.41
-28.39
-31.62
-34.17
-36.10
-37.36
-37.69
-36.81
-34.53
-30.92
-26.30
-21.09
-15.69
-10.42
-5.48
-1.08
2.54
5.15
6.65
7.14
6.93
6.45
6.01
5.80
5.76
5.80
5.87
6.10
6.64
7.69
9.22
11.01
12.66
13.71
13.94
13.39
12.41
11.48
10.96
10.94
11.17
11.23
10.69
9.34
7.18
4.43
1.30
-1.99
-5.25
-8.28
-10.72
-12.22
-12.44
-11.22
-8.65
-4.98
-0.60
4.06
8.56
12.54
15.70
17.86
19.03
19.39
19.23
18.84
18.43
18.14
18.03
18.14
18.56
19.26
20.15
20.98
21.48
21.41
20.67
19.36
17.60
15.54
13.29
10.89
8.39
5.86
3.38
1.00
-1.27
-3.53
-5.89
-8.45
-11.26
-14.26
-17.37
-20.34
-22.90
-24.74
-25.56
-25.24
-23.84
-21.58
-18.70
-15.44
-11.89
-8.13
-4.23
-0.34
3.30
6.44
8.90
10.62
11.67
12.19
12.36
12.28
12.00
11.52
10.83
10.01
9.29
8.88
8.95
9.44
10.02
10.20
9.55
7.93
5.50
2.67
-0.14
-2.75
-5.17
-7.62
-10.18
-12.79
-15.25
-17.35
-19.13
-20.82
-22.73
-24.94
-27.16
-28.78
-29.17
-28.00
-25.38
-21.78
-17.71
-13.52
-9.29
-4.99
-0.68
3.37
6.76
9.21
10.71
11.52
12.02
12.41
12.66
12.55
11.88
10.63
8.99
7.32
5.99
5.23
5.11
5.46
5.96
6.21
5.81
4.50
2.22
-0.87
-4.42
-8.00
-11.21
-13.80
-15.67
-16.87
-17.53
-17.92
-18.37
-19.28
-20.93
-23.40
-26.38
-29.26
-31.22
-31.65
-30.28
-27.36
-23.49
-19.37
-15.51
-12.13
-9.19
-6.60
-4.34
-2.53
-1.29
-0.64
-0.36
-0.15
0.31
1.12
2.15
3.06
3.57
3.60
3.36
3.29
3.81
5.10
7.01
9.10
10.83
11.80
11.91
11.33
10.40
9.41
8.53
7.79
7.08
6.28
5.24
3.82
1.96
-0.37
-2.99
-5.61
-7.76
-9.03
-9.14
-8.06
-5.96
-3.13
0.12
3.56
7.01
10.31
13.30
15.82
17.77
19.14
20.00
20.46
20.65
20.60
20.32
19.72
18.77
17.53
16.17
14.96
14.21
14.07
14.52
15.26
15.86
15.94
15.22
13.73
11.67
9.32
6.90
4.51
2.15
-0.23
-2.71
-5.35
-8.21
-11.30
-14.56
-17.72
-20.35
-21.93
-22.01
-20.44
-17.39
-13.33
-8.78
-4.16
0.29
4.52
8.52
12.20
15.36
17.82
19.42
20.19
20.32
20.07
19.67
19.21
18.67
17.95
17.00
15.90
14.85
14.06
13.63
13.45
13.22
12.58
11.26
9.19
6.53
3.60
0.72
-1.79
-3.81
-5.41
-6.76
-8.20
-10.01
-12.39
-15.33
-18.68
-22.20
-25.58
-28.51
-30.65
-31.66
-31.26
-29.38
-26.25
-22.36
-18.26
-14.35
-10.73
-7.22
-3.57
0.33
4.32
8.04
11.11
13.31
14.68
15.48
16.02
16.46
16.84
17.03
16.91
16.47
15.90
15.50
15.48
15.85
16.42
16.77
16.56
15.65
14.11
12.18
10.12
8.07
6.01
3.91
1.73
-0.47
-2.59
-4.60
-6.53
-8.57
-10.93
-13.71
-16.81
-19.89
-22.45
-23.88
-23.74
-21.87
-18.50
-14.18
-9.64
-5.43
-1.78
1.48
4.70
8.11
11.67
14.89
17.16
18.01
17.40
15.74
13.75
12.03
10.88
10.10
9.29
8.02
6.14
3.90
1.71
-0.03
-1.15
-1.85
-2.49
-3.43
-4.86
-6.75
-8.86
-10.92
-12.75
-14.27
-15.51
-16.52
-17.37
-18.10
-18.77
-19.52
-20.51
-21.96
-24.04
-26.85
-30.32
-34.16
-37.89
-40.90
-42.58
-42.52
-40.67
-37.31
-32.92
-28.01
-22.93
-17.82
-12.79
-8.03
-3.83
-0.52
1.72
3.00
3.65
4.10
4.59
5.18
5.74
6.14
6.30
6.33
6.38
6.57
6.92
7.34
7.62
7.54
6.89
5.64
3.94
2.08
0.43
-0.78
-1.54
-2.06
-2.67
-3.63
-4.98
-6.51
-7.89
-8.74
-8.84
-8.08
-6.54
-4.30
-1.44
2.03
6.16
10.86
15.93
20.93
25.35
28.77
31.03
32.26
32.76
32.81
32.49
31.75
30.49
28.78
26.91
25.32
24.39
24.21
24.58
25.10
25.33
25.01
24.14
22.86
21.34
19.72
18.00
16.13
14.09
11.94
9.75
7.54
5.22
2.59
-0.52
-4.08
-7.80
-11.13
-13.46
-14.33
-13.54
-11.26
-7.90
-3.94
0.23
4.33
8.17
11.62
14.57
16.97
18.77
20.06
20.95
21.58
22.06
22.37
22.48
22.28
21.73
20.88
19.85
18.84
18.00
17.42
17.03
16.63
15.92
14.69
12.83
10.50
7.96
5.45
3.13
0.90
-1.45
-4.20
-7.52
-11.34
-15.41
-19.37
-22.79
-25.33
-26.76
-26.91
-25.73
-23.30
-19.85
-15.75
-11.42
-7.27
-3.55
-0.41
2.17
4.24
5.84
6.94
7.47
7.36
6.61
5.29
3.62
1.89
0.40
-0.61
-1.00
-0.82
-0.19
0.63
1.37
1.82
1.81
1.25
0.16
-1.42
-3.35
-5.48
-7.64
-9.72
-11.69
-13.60
-15.63
-17.96
-20.69
-23.67
-26.47
-28.48
-29.10
-27.96
-25.06
-20.81
-15.86
-10.90
-6.44
-2.69
0.39
2.93
5.08
6.82
8.05
8.68
8.73
8.36
7.79
7.20
6.63
5.96
5.08
4.02
2.97
2.22
1.90
1.94
2.00
1.67
0.69
-0.89
-2.82
-4.75
-6.49
-8.08
-9.71
-11.61
-13.91
-16.55
-19.41
-22.31
-25.07
-27.47
-29.19
-29.88
-29.25
-27.22
-24.00
-19.95
-15.49
-10.85
-6.09
-1.17
3.83
8.63
12.80
15.89
17.69
18.31
18.17
17.73
17.33
17.07
16.85
16.52
16.04
15.56
15.32
15.50
16.03
16.49
16.27
14.81
11.90
7.82
3.21
-1.20
-4.89
-7.76
-10.04
-12.12
-14.33
-16.80
-19.48
-22.23
-24.80
-26.94
-28.36
-28.77
-27.99
-26.01
-23.07
-19.51
-15.71
-11.89
-8.12
-4.39
-0.75
2.60
5.37
7.23
8.00
7.70
6.61
5.20
3.98
3.43
3.81
5.15
7.21
9.61
11.89
13.69
14.82
15.30
15.27
14.92
14.42
13.83
13.20
12.54
11.89
11.30
10.85
10.54
10.33
10.05
9.53
8.55
6.99
4.87
2.37
-0.19
-2.51
-4.42
-5.96
-7.35
-8.83
-10.49
-12.18
-13.49
-13.96
-13.29
-11.48
-8.88
-5.99
-3.15
-0.47
2.22
5.14
8.32
11.52
14.30
16.21
17.09
17.11
16.69
16.21
15.85
15.46
14.76
13.58
12.05
10.65
9.91
10.20
11.42
12.96
14.04
13.98
12.62
10.35
7.91
5.95
4.72
3.93
3.04
1.51
-0.85
-3.82
-7.00
-10.02
-12.69
-14.98
-16.77
-17.85
-17.95
-16.89
-14.76
-11.98
-9.01
-6.25
-3.77
-1.39
1.13
3.87
6.69
9.19
11.04
12.06
12.33
12.14
11.84
11.61
11.43
11.05
10.23
8.85
7.11
5.43
4.30
3.98
4.29
4.67
4.46
3.22
1.03
-1.59
-3.91
-5.45
-6.19
-6.62
-7.41
-9.12
-11.87
-15.38
-19.06
-22.29
-24.57
-25.54
-25.01
-22.87
-19.27
-14.66
-9.87
-5.89
-3.49
-2.85
-3.44
-4.20
-4.09
-2.58
0.16
3.41
6.45
8.90
10.89
12.84
14.97
17.13
18.76
19.29
18.52
16.79
14.89
13.63
13.48
14.33
15.53
16.21
15.70
13.87
11.21
8.58
6.80
6.17
6.32
6.43
5.61
3.39
-0.01
-3.90
-7.39
-9.84
-10.93
-10.68
-9.27
-7.18
-5.31
-5.09
-8.11
-15.54
-27.31
-41.81
-56.27
-67.62
-73.63
-73.61
-68.39
-59.72
-49.43
-38.87
-28.78
-19.50
-11.22
-4.20
1.30
5.21
7.71
9.30
10.56
11.97
13.67
15.41
16.70
17.01
16.07
14.03
11.41
8.81
6.69
5.20
4.12
3.11
1.86
0.26
-1.65
-3.71
-5.78
-7.78
-9.65
-11.33
-12.63
-13.27
-12.98
-11.54
-8.88
-5.16
-0.65
4.28
9.22
13.82
17.78
20.89
23.05
24.27
24.69
24.56
24.14
23.67
23.20
22.61
21.71
20.28
18.31
16.00
13.73
11.92
10.79
10.30
10.11
9.81
9.03
7.67
5.93
4.19
2.79
1.90
1.47
1.29
1.19
1.04
0.77
0.33
-0.46
-1.82
-3.83
-6.30
-8.65
-10.10
-9.95
-7.87
-4.09
0.71
5.73
10.31
14.11
17.07
19.31
20.90
21.82
22.01
21.48
20.41
19.13
17.98
17.14
16.54
15.90
14.90
13.35
11.37
9.26
7.40
5.98
4.92
3.85
2.34
0.11
-2.90
-6.42
-10.15
-13.80
-17.22
-20.39
-23.32
-26.03
-28.51
-30.80
-33.01
-35.25
-37.54
-39.65
-41.08
-41.22
-39.69
-36.51
-32.19
-27.54
-23.32
-19.94
-17.38
-15.31
-13.33
-11.22
-9.10
-7.29
-6.08
-5.55
-5.55
-5.84
-6.22
-6.62
-7.21
-8.29
-10.04
-12.40
-15.05
-17.62
-20.00
-22.33
-24.97
-28.32
-32.83
-38.74
-46.00
-54.33
-63.41
-72.94
-82.52
-91.31
-98.40
-103.13
-105.47
-106.07
-106.09
-106.64
-108.04
-108.91
-106.14
-96.20
-76.90
-48.64
-14.55
20.46
51.21
72.92
81.41
75.77
59.21
37.38
15.50
-3.40
-18.58
-30.62
-40.37
-48.22
-53.19
-53.40
-47.19
-33.34
-11.12
19.83
59.09
102.51
143.93
175.76
190.86
185.39
161.26
126.47
92.63
70.56
66.15
79.36
105.94
140.51
179.20
219.91
260.69
297.83
325.45
337.15
329.19
302.21
260.97
212.66
164.68
123.34
93.48
78.23
78.26
91.23
111.74
132.92
149.09
157.91
160.55
159.84
157.90
155.05
150.63
144.53
138.17
133.82
132.59
133.08
131.80
125.21
112.00
94.05
75.17
58.94
46.78
37.63
29.14
19.29
7.44
-5.77
-19.19
-31.95
-43.76
-54.74
-65.26
-75.50
-85.54
-95.20
-104.25
-112.36
-119.28
-125.16
-130.68
-136.97
-145.15
-155.43
-166.71
-177.05
-184.49
-188.26
-188.91
-187.49
-184.79
-181.01
-176.32
-171.70
-169.10
-170.40
-175.65
-181.88
-184.00
-177.61
-162.30
-142.75
-126.59
-120.01
-123.86
-132.76
-137.99
-131.79
-111.26
-79.13
-42.28
-8.90
14.25
23.38
18.03
0.66
-23.53
-47.79
-65.07
-70.52
-63.56
-48.91
-35.53
-33.51
-50.08
-86.01
-134.27
-181.44
-212.32
-215.68
-189.33
-141.31
-86.66
-41.07
-14.26
-7.06
-12.90
-22.65
-29.62
-31.89
-31.46
-30.85
-30.82
-30.41
-29.19
-29.74
-37.45
-57.63
-91.14
-131.87
-168.14
-187.72
-183.25
-155.35
-111.73
-62.81
-17.27
20.60
50.44
73.46
90.22
100.33
103.53
101.39
97.94
98.70
108.72
130.47
162.73
200.61
237.04
265.08
280.09
281.33
271.71
256.10
239.21
223.85
210.79
199.59
189.79
181.40
174.87
170.52
168.08
166.79
165.51
163.09
158.35
150.28
138.43
123.15
105.77
88.04
71.25
55.56
40.01
23.55
6.14
-11.11
-26.44
-39.04
-50.27
-63.61
-83.55
-113.48
-153.81
-201.17
-249.04
-289.38
-314.74
-319.95
-303.46
-267.84
-219.53
-167.50
-120.74
-85.49
-63.24
-50.63
-41.87
-32.02
-19.64
-7.15
1.23
2.55
-2.95
-11.95
-20.13
-24.21
-22.93
-16.78
-6.80
5.93
19.94
32.68
40.37
39.08
26.66
4.13
-24.09
-51.66
-72.64
-83.39
-83.50
-75.10
-61.33
-45.08
-28.23
-11.83
3.34
16.38
26.27
32.39
35.04
35.37
34.86
34.39
33.66
31.27
25.57
15.82
2.98
-10.51
-21.61
-28.16
-29.79
-27.88
-24.73
-22.31
-21.37
-21.59
-22.14
-22.58
-23.20
-24.63
-27.32
-31.02
-34.74
-37.32
-37.87
-36.17
-32.55
-27.60
-21.98
-16.29
-11.16
-7.41
-5.79
-6.78
-10.15
-14.67
-18.53
-19.82
-17.32
-11.24
-3.09
4.86
10.50
12.98
12.97
12.25
12.78
15.50
19.96
24.59
27.61
28.02
25.89
22.10
17.75
13.41
9.04
4.19
-1.61
-8.35
-15.70
-23.06
-29.76
-35.30
-39.23
-41.39
-41.89
-41.15
-39.84
-38.59
-37.68
-36.92
-35.67
-33.13
-28.71
-22.37
-14.78
-7.08
-0.39
4.57
7.88
10.29
12.70
15.70
19.11
22.13
23.87
23.91
22.53
20.56
18.82
17.69
16.91
15.86
14.16
11.82
9.33
7.19
5.52
3.96
1.80
-1.49
-5.87
-10.72
-15.03
-18.14
-20.08
-21.74
-24.45
-29.33
-36.44
-44.77
-52.41
-57.48
-58.97
-57.18
-53.62
-50.19
-48.31
-48.30
-49.46
-50.46
-50.05
-47.64
-43.55
-38.92
-35.35
-34.58
-38.11
-46.90
-60.89
-78.48
-96.27
-109.39
-112.80
-103.28
-81.11
-50.68
-19.38
4.96
16.81
14.57
0.65
-20.09
-42.27
-61.51
-74.89
-80.90
-79.28
-71.09
-58.91
-46.70
-39.22
-40.87
-54.47
-80.31
-115.96
-156.54
-195.68
-226.91
-245.16
-247.99
-236.09
-212.70
-182.38
-149.46
-116.91
-86.10
-57.13
-29.54
-2.90
23.11
48.61
73.73
98.55
123.19
147.59
171.54
194.84
217.46
239.71
262.45
287.17
315.65
349.18
387.60
428.61
467.85
499.88
519.80
524.54
513.59
488.61
452.50
408.51
359.69
308.80
258.42
210.81
167.45
128.65
93.39
59.58
24.83
-12.65
-53.31
-95.80
-136.96
-172.61
-198.89
-213.58
-217.08
-212.22
-203.21
-193.93
-186.63
-181.27
-176.00
-168.30
-156.11
-138.55
-116.11
-90.26
-62.97
-35.96
-10.16
14.68
39.78
66.57
95.75
126.49
156.27
181.57
198.73
204.90
198.69
180.22
151.05
113.85
71.85
28.11
-15.18
-56.91
-96.99
-135.95
-174.30
-211.96
-247.91
-279.97
-304.70
-317.91
-315.51
-295.10
-257.21
-205.69
-146.74
-86.95
-31.44
16.83
56.57
86.89
106.57
114.35
109.88
94.71
72.33
47.29
24.11
6.29
-4.10
-6.37
-1.03
10.31
25.14
40.46
53.61
63.01
68.32
70.13
69.25
66.29
61.68
56.09
50.74
47.15
46.27
47.72
49.50
48.76
43.24
32.54
18.43
3.87
-8.52
-17.89
-25.25
-32.52
-40.94
-50.14
-58.24
-63.02
-63.12
-58.72
-51.22
-42.36
-33.56
-25.74
-19.49
-15.41
-14.03
-15.51
-19.41
-24.70
-30.15
-34.73
-37.66
-38.50
-37.04
-33.42
-28.34
-23.13
-19.45
-18.61
-21.00
-25.78
-30.92
-33.65
-31.04
-20.91
-2.67
22.05
49.39
74.19
91.63
98.91
95.99
85.17
69.63
52.03
33.89
15.91
-1.10
-15.83
-26.65
-32.46
-33.30
-30.42
-25.57
-20.21
-15.14
-10.57
-6.57
-3.33
-1.08
0.16
0.71
1.06
1.51
1.92
1.86
1.10
-0.08
-0.86
-0.32
1.90
5.31
8.74
10.95
11.28
9.94
7.73
5.52
3.71
2.11
0.18
-2.46
-5.79
-9.30
-12.44
-14.98
-17.23
-19.84
-23.47
-28.28
-33.74
-38.71
-41.91
-42.38
-39.87
-34.80
-28.06
-20.61
-13.19
-6.31
-0.29
4.69
8.48
11.12
12.81
13.90
14.77
15.63
16.53
17.34
17.94
18.26
18.37
18.44
18.61
18.99
19.58
20.29
20.96
21.36
21.28
20.44
18.73
16.08
12.60
8.57
4.43
0.60
-2.65
-5.32
-7.70
-10.22
-13.24
-16.91
-21.08
-25.37
-29.27
-32.23
-33.68
-33.13
-30.30
-25.21
-18.32
-10.47
-2.67
4.14
9.42
13.07
15.28
16.40
16.70
16.38
15.55
14.39
13.17
12.23
11.86
12.21
13.25
14.78
16.51
18.07
19.15
19.44
18.80
17.23
14.88
12.02
8.88
5.60
2.21
-1.31
-4.96
-8.68
-12.38
-16.00
-19.64
-23.45
-27.48
-31.51
-34.95
-36.90
-36.52
-33.31
-27.46
-19.76
-11.34
-3.25
3.85
9.80
14.73
18.83
22.10
24.37
25.42
25.21
23.90
21.91
19.77
18.09
17.45
18.21
20.41
23.59
26.85
29.11
29.53
27.81
24.29
19.70
14.83
10.19
5.90
1.86
-2.07
-5.96
-9.88
-13.93
-18.26
-22.95
-27.85
-32.55
-36.42
-38.88
-39.58
-38.47
-35.75
-31.71
-26.59
-20.58
-13.85
-6.70
0.40
6.93
12.47
16.89
20.34
23.14
25.56
27.68
29.33
30.35
30.77
30.90
31.23
32.05
33.13
33.78
33.10
30.48
25.97
20.27
14.45
9.53
6.04
4.00
3.03
2.59
2.23
1.56
0.27
-2.02
-5.65
-10.82
-17.39
-24.81
-32.12
-38.29
-42.35
-43.76
-42.42
-38.60
-32.86
-25.78
-17.83
-9.41
-0.95
7.03
13.95
19.31
22.89
24.74
25.26
24.90
24.07
23.05
22.09
21.51
21.68
22.86
24.96
27.43
29.39
30.00
28.81
26.03
22.37
18.66
15.48
12.88
10.48
7.64
3.86
-1.01
-6.77
-12.97
-19.19
-25.13
-30.68
-35.71
-39.95
-42.88
-43.83
-42.27
-38.05
-31.61
-23.85
-15.99
-9.19
-4.15
-1.04
0.59
1.60
2.93
5.34
9.10
14.01
19.46
24.68
29.04
32.23
34.24
35.32
35.67
35.42
34.52
32.82
30.30
27.10
23.58
20.10
16.92
13.99
11.05
7.70
3.65
-1.03
-6.02
-10.72
-14.70
-17.86
-20.60
-23.73
-28.15
-34.34
-42.04
-50.12
-56.84
-60.39
-59.61
-54.46
-46.21
-37.13
-29.71
-25.70
-25.31
-27.12
-28.60
-27.16
-21.02
-9.74
5.94
24.51
44.16
63.08
79.52
91.98
99.54
102.26
101.20
97.98
93.88
89.15
82.87
73.68
60.76
44.59
26.84
9.60
-5.54
-18.01
-28.09
-36.40
-43.18
-48.23
-51.24
-52.20
-51.70
-50.65
-49.73
-48.99
-47.75
-44.98
-39.87
-32.32
-23.03
-13.21
-4.13
3.28
8.72
12.42
14.92
16.78
18.33
19.58
20.33
20.44
19.95
19.18
18.59
18.61
19.38
20.64
21.92
22.68
22.47
21.13
18.69
15.35
11.35
6.94
2.40
-2.06
-6.26
-10.14
-13.81
-17.50
-21.54
-26.16
-31.36
-36.78
-41.74
-45.36
-46.81
-45.54
-41.45
-34.96
-26.89
-18.19
-9.74
-2.14
4.36
9.83
14.45
18.42
21.82
24.60
26.69
28.06
28.83
29.22
29.49
29.75
29.95
29.88
29.28
27.99
25.99
23.39
20.31
16.87
13.17
9.31
5.46
1.82
-1.44
-4.40
-7.32
-10.64
-14.70
-19.61
-25.08
-30.55
-35.38
-39.04
-41.19
-41.66
-40.30
-37.00
-31.72
-24.63
-16.21
-7.27
1.28
8.61
14.25
18.12
20.53
21.99
23.00
23.89
24.77
25.58
26.21
26.69
27.13
27.72
28.48
29.21
29.45
28.61
26.37
22.76
18.35
13.85
9.90
6.72
4.11
1.56
-1.43
-5.14
-9.61
-14.66
-20.05
-25.53
-30.90
-35.90
-40.15
-43.16
-44.36
-43.28
-39.76
-33.96
-26.44
-17.99
-9.38
-1.26
6.03
12.26
17.38
21.32
24.07
25.73
26.52
26.68
26.43
25.86
25.09
24.35
23.93
24.16
25.08
26.40
27.44
27.44
25.83
22.53
17.93
12.71
7.53
2.80
-1.38
-5.09
-8.47
-11.65
-14.78
-18.10
-21.89
-26.37
-31.50
-36.90
-41.81
-45.35
-46.79
-45.72
-42.16
-36.43
-29.00
-20.47
-11.51
-2.84
4.84
11.00
15.38
18.05
19.35
19.69
19.45
18.95
18.45
18.22
18.48
19.37
20.75
22.21
23.17
23.07
21.61
18.90
15.42
11.79
8.59
6.01
3.91
1.88
-0.52
-3.58
-7.36
-11.71
-16.36
-21.03
-25.45
-29.32
-32.31
-33.99
-33.92
-31.74
-27.32
-20.93
-13.20
-5.01
2.73
9.29
14.35
17.94
20.38
22.01
23.07
23.67
23.78
23.44
22.78
22.09
21.63
21.56
21.83
22.20
22.36
22.01
20.97
19.15
16.57
13.31
9.52
5.46
1.48
-2.11
-5.14
-7.72
-10.26
-13.29
-17.30
-22.37
-28.19
-34.00
-38.93
-42.18
-43.23
-41.94
-38.42
-32.98
-26.07
-18.25
-10.19
-2.59
3.95
9.15
13.03
15.93
18.24
20.21
21.83
22.91
23.34
23.21
22.87
22.76
23.09
23.78
24.34
24.19
22.89
20.36
17.00
13.37
10.01
7.19
4.81
2.56
0.12
-2.66
-5.77
-9.11
-12.58
-16.24
-20.21
-24.65
-29.49
-34.37
-38.64
-41.42
-41.93
-39.78
-35.09
-28.50
-20.89
-13.12
-5.72
1.03
7.03
12.16
16.23
19.12
20.88
21.81
22.29
22.57
22.62
22.27
21.46
20.37
19.48
19.24
19.82
20.89
21.73
21.64
20.27
17.77
14.64
11.40
8.32
5.38
2.42
-0.63
-3.66
-6.47
-8.96
-11.34
-14.03
-17.45
-21.70
-26.41
-30.84
-34.17
-35.84
-35.70
-33.95
-30.90
-26.82
-21.80
-15.96
-9.51
-2.93
3.17
8.26
12.05
14.60
16.24
17.30
17.97
18.27
18.10
17.43
16.41
15.38
14.78
14.90
15.77
17.09
18.36
19.04
18.72
17.30
14.99
12.18
9.28
6.56
4.08
1.70
-0.74
-3.30
-5.88
-8.31
-10.51
-12.58
-14.82
-17.61
-21.15
-25.37
-29.78
-33.63
-36.13
-36.63
-34.81
-30.72
-24.78
-17.68
-10.25
-3.31
2.55
7.10
10.43
12.92
14.97
16.75
18.23
19.09
19.06
18.14
16.70
15.34
14.65
14.92
15.98
17.34
18.34
18.46
17.47
15.48
12.81
9.90
7.11
4.63
2.47
0.50
-1.50
-3.68
-6.15
-8.94
-11.97
-15.19
-18.54
-21.96
-25.33
-28.49
-31.20
-33.17
-34.05
-33.53
-31.32
-27.33
-21.71
-14.87
-7.50
-0.38
5.75
10.41
13.52
15.47
16.87
18.34
20.15
22.14
23.79
24.59
24.34
23.30
22.06
21.18
20.86
20.82
20.54
19.53
17.65
15.17
12.59
10.36
8.63
7.18
5.58
3.37
0.35
-3.34
-7.26
-10.86
-13.84
-16.23
-18.40
-20.83
-23.86
-27.37
-30.95
-33.99
-35.98
-36.61
-35.84
-33.69
-30.23
-25.52
-19.76
-13.32
-6.91
-1.24
3.12
6.01
7.72
8.80
9.75
10.82
11.87
12.61
12.84
12.62
12.35
12.52
13.45
15.04
16.81
18.05
18.19
17.00
14.77
12.06
9.51
7.46
5.92
4.54
2.97
0.94
-1.60
-4.52
-7.74
-11.20
-14.90
-18.82
-22.84
-26.72
-30.19
-33.02
-35.05
-36.21
-36.41
-35.52
-33.38
-29.90
-25.17
-19.53
-13.52
-7.77
-2.78
1.23
4.30
6.66
8.58
10.28
11.75
12.90
13.61
13.81
13.62
13.29
13.12
13.28
13.71
14.03
13.69
12.23
9.56
6.02
2.31
-0.89
-3.24
-4.88
-6.34
-8.18
-10.65
-13.69
-17.06
-20.56
-24.23
-28.25
-32.83
-37.90
-43.22
-48.44
-53.36
-57.96
-62.22
-65.94
-68.55
-69.37
-68.01
-64.85
-61.07
-58.33
-58.07
-60.86
-66.21
-72.95
-79.87
-86.31
-92.39
-98.68
-105.80
-114.15
-123.98
-135.65
-149.63
-166.09
-184.22
-201.73
-215.14
-220.87
-216.61
-202.32
-180.24
-153.83
-126.16
-98.89
-72.28
-46.17
-21.21
0.67
17.11
26.85
30.90
32.52
35.61
42.86
54.53
68.73
83.02
96.30
109.62
125.71
147.36
175.79
210.00
247.11
283.21
314.42
337.34
349.50
349.54
337.52
314.84
283.97
247.90
209.50
171.24
134.93
101.83
72.71
47.92
27.48
11.25
-1.02
-9.78
-15.83
-20.50
-25.38
-31.65
-39.31
-46.86
-51.79
-51.73
-45.68
-34.46
-20.29
-5.61
7.90
19.57
29.15
35.85
37.87
32.88
19.19
-3.11
-31.74
-62.89
-92.49
-117.27
-135.25
-145.37
-147.06
-139.89
-123.88
-99.99
-70.43
-38.38
-7.34
19.79
41.20
56.18
64.94
68.24
67.20
63.24
57.90
52.65
48.55
46.14
45.32
45.49
45.77
45.18
42.83
38.16
31.09
22.03
11.84
1.59
-7.76
-15.57
-21.52
-25.52
-27.61
-27.85
-26.42
-23.66
-20.08
-16.21
-12.54
-9.32
-6.70
-4.77
-3.70
-3.66
-4.64
-6.32
-8.01
-8.88
-8.30
-6.08
-2.54
1.59
5.44
8.18
9.14
7.97
4.67
-0.29
-5.95
-10.85
-13.39
-12.19
-6.59
2.97
14.90
26.78
36.05
40.86
40.67
36.44
30.23
24.43
21.01
21.01
24.51
30.89
39.27
48.87
59.05
69.41
79.58
89.15
97.59
104.32
108.90
111.16
111.32
109.96
107.88
105.87
104.61
104.54
105.78
108.12
110.97
113.42
114.41
112.88
107.94
99.29
87.32
73.21
58.56
44.77
32.27
20.16
6.48
-11.04
-33.96
-62.50
-95.64
-131.70
-168.96
-206.00
-241.39
-273.29
-299.40
-317.39
-325.74
-324.38
-314.65
-298.79
-279.11
-257.51
-235.45
-214.11
-194.61
-178.00
-164.88
-155.11
-147.88
-141.94
-136.21
-130.12
-123.63
-116.80
-109.39
-100.62
-89.46
-75.02
-57.07
-36.06
-12.94
11.17
35.34
58.76
80.63
100.03
115.97
127.67
134.79
137.44
136.10
131.32
123.74
114.05
103.28
92.79
83.95
77.81
74.64
73.88
74.40
75.09
75.23
74.69
73.69
72.45
70.94
68.83
65.76
61.56
56.44
50.92
45.62
40.97
37.18
34.15
31.63
29.32
26.97
24.42
21.58
18.45
15.10
11.61
8.08
4.58
1.15
-2.25
-5.67
-9.25
-13.06
-17.11
-21.30
-25.30
-28.65
-30.83
-31.43
-30.31
-27.61
-23.71
-19.03
-13.77
-7.91
-1.16
6.61
15.23
24.11
32.39
39.33
44.59
48.27
50.77
52.49
53.68
54.48
55.05
55.75
56.99
59.01
61.60
63.95
64.89
63.20
58.13
49.57
38.21
25.21
12.02
-0.10
-10.26
-18.13
-23.84
-27.86
-30.76
-33.07
-35.12
-37.06
-38.90
-40.51
-41.68
-42.09
-41.36
-39.21
-35.53
-30.55
-24.74
-18.64
-12.62
-6.75
-0.83
5.43
12.07
18.73
24.73
29.31
31.98
32.82
32.48
31.88
31.92
33.07
35.42
38.68
42.55
46.84
51.52
56.56
61.85
67.07
71.87
76.08
79.74
83.19
86.69
90.23
93.36
95.19
94.62
90.65
82.62
70.47
54.82
36.80
17.94
-0.29
-16.79
-30.99
-42.67
-51.72
-57.98
-61.26
-61.80
-60.55
-59.20
-59.64
-63.26
-70.29
-79.75
-89.84
-98.67
-104.89
-107.85
-107.51
-104.09
-97.91
-89.37
-78.96
-67.28
-54.88
-42.24
-29.87
-18.16
-7.34
2.56
11.65
20.02
27.65
34.36
39.70
43.13
44.37
43.73
42.10
40.52
39.67
39.76
40.61
41.77
42.68
43.00
42.77
42.32
41.83
41.31
40.84
40.72
41.21
41.86
41.34
37.99
30.41
18.11
2.03
-15.38
-29.55
-34.66
-26.84
-7.07
19.78
48.21
74.57
97.51
116.99
133.35
147.01
157.43
163.77
166.13
165.70
164.29
163.53
164.46
167.21
170.85
174.98
178.60
181.03
182.03
181.57
179.53
175.51
168.86
158.69
144.04
124.04
98.70
69.00
36.61
3.63
-27.96
-56.67
-81.86
-103.96
-124.31
-144.42
-165.38
-187.46
-209.74
-230.67
-248.61
-262.79
-274.07
-284.89
-298.35
-316.42
-338.75
-362.28
-381.98
-392.39
-389.32
-371.17
-339.46
-298.47
-253.95
-211.74
-176.17
-149.15
-130.03
-116.31
-105.15
-94.60
-84.42
-76.07
-72.34
-76.35
-90.31
-114.21
-144.91
-176.09
-199.51
-208.40
-200.51
-179.83
-154.94
-134.70
-123.61
-119.63
-115.86
-105.21
-85.05
-58.77
-33.31
-14.47
-3.25
4.77
16.58
37.26
66.99
100.81
131.60
153.65
164.98
167.38
164.61
160.14
155.47
149.87
141.20
127.27
106.74
79.69
47.79
13.60
-19.83
-49.69
-73.79
-90.55
-98.77
-97.26
-85.13
-62.66
-32.42
0.17
27.93
44.27
45.45
31.95
8.02
-20.25
-46.87
-67.32
-78.68
-79.41
-69.49
-50.75
-26.95
-2.87
17.38
31.84
41.06
47.06
51.71
55.77
59.24
62.30
66.15
72.60
82.98
97.01
112.72
127.64
140.23
150.95
162.13
176.89
197.74
225.31
257.68
290.66
318.72
336.49
340.34
329.39
305.54
272.35
233.36
190.65
144.55
94.78
42.20
-9.94
-56.02
-89.80
-106.81
-106.28
-91.72
-69.73
-47.74
-31.73
-24.55
-25.64
-32.00
-39.68
-45.43
-47.44
-45.28
-39.21
-29.84
-18.01
-4.87
8.06
19.20
27.53
33.26
37.80
43.28
51.12
61.57
73.92
87.14
100.44
113.05
123.56
129.61
128.76
119.12
100.96
77.04
51.81
29.67
13.45
3.73
-1.97
-4.42
-3.40
1.60
10.57
22.52
35.71
48.14
58.42
65.66
70.14
72.43
73.01
71.86
68.25
60.76
48.94
32.77
12.94
-9.10
-31.98
-54.81
-77.36
-100.08
-123.75
-149.20
-177.14
-207.70
-239.70
-270.88
-298.05
-317.89
-328.27
-329.11
-322.52
-312.07
-301.33
-292.51
-286.22
-281.43
-276.12
-267.95
-254.68
-234.71
-207.47
-173.56
-134.37
-91.39
-45.54
2.73
52.51
101.13
143.92
175.42
191.84
193.25
183.97
170.77
159.86
154.56
155.15
159.94
167.21
176.17
186.49
197.26
206.44
211.53
210.99
205.39
197.04
188.56
181.20
173.89
163.94
148.68
126.89
99.55
69.04
37.90
7.56
-22.12
-52.68
-86.21
-124.30
-167.01
-212.23
-255.77
-292.10
-315.96
-323.88
-315.45
-293.28
-261.94
-226.47
-190.94
-158.06
-129.39
-105.89
-88.21
-76.27
-68.67
-62.54
-53.84
-38.34
-13.01
22.99
67.54
115.95
161.48
197.03
216.58
216.71
197.35
161.71
115.15
63.45
11.32
-38.27
-83.58
-122.91
-153.88
-173.60
-180.06
-173.51
-157.15
-136.18
-115.72
-98.69
-84.63
-70.40
-51.95
-26.37
7.01
46.41
88.43
128.90
163.67
189.40
204.26
208.69
204.85
195.77
183.81
169.69
152.86
132.84
110.58
88.77
70.79
58.70
52.21
48.94
46.10
42.46
39.23
39.16
44.63
55.83
70.28
83.99
93.27
96.11
92.52
84.13
73.27
62.28
52.99
46.40
42.45
40.01
37.21
32.09
23.43
11.35
-2.53
-15.82
-26.49
-33.63
-37.55
-38.99
-38.19
-34.76
-28.33
-19.74
-11.54
-7.26
-9.74
-19.43
-33.76
-48.22
-58.42
-62.06
-59.64
-53.60
-46.94
-41.89
-39.57
-40.11
-42.95
-46.87
-50.18
-51.12
-48.82
-43.85
-38.20
-34.45
-34.42
-38.31
-44.70
-51.33
-56.27
-58.55
-58.20
-55.79
-51.84
-46.66
-40.44
-33.40
-25.97
-18.55
-11.45
-4.80
1.38
7.04
12.03
16.20
19.33
21.28
22.01
21.70
20.81
20.07
20.33
22.26
25.91
30.60
35.04
37.72
37.44
33.77
27.14
18.64
9.50
0.70
-7.14
-13.89
-19.69
-24.85
-29.82
-34.96
-40.47
-46.14
-51.14
-54.28
-54.36
-50.78
-43.87
-34.84
-25.38
-16.88
-9.95
-4.34
0.74
5.94
11.49
17.15
22.44
27.03
30.97
34.46
37.63
40.32
42.06
42.54
41.74
40.25
38.95
38.58
39.31
40.49
40.96
39.62
35.91
30.11
23.18
16.33
10.56
6.30
3.40
1.33
-0.64
-3.12
-6.44
-10.69
-15.71
-21.32
-27.19
-32.85
-37.71
-41.08
-42.30
-40.95
-37.02
-30.95
-23.51
-15.54
-7.82
-0.82
5.20
10.15
14.02
16.86
18.80
20.13
21.10
21.95
22.80
23.59
24.27
24.78
25.22
25.77
26.56
27.56
28.45
28.89
28.55
27.33
25.33
22.73
19.56
15.74
11.15
5.73
-0.29
-6.47
-12.26
-17.20
-21.13
-24.12
-26.43
-28.34
-30.01
-31.50
-32.74
-33.51
-33.61
-32.84
-31.11
-28.56
-25.48
-22.21
-18.93
-15.56
-11.83
-7.45
-2.39
3.03
8.27
12.75
16.23
18.89
21.13
23.35
25.71
27.97
29.74
30.69
30.80
30.48
30.35
30.98
32.52
34.54
36.22
36.61
35.06
31.61
26.90
21.98
17.88
15.23
14.08
13.79
13.40
11.96
8.96
4.45
-0.88
-6.06
-10.09
-12.44
-13.30
-13.47
-14.26
-16.79
-21.47
-27.71
-33.85
-37.64
-36.97
-30.50
-18.02
-0.57
19.70
39.53
54.89
61.88
58.56
46.75
32.46
24.15
28.92
48.64
78.31
107.79
126.57
128.62
114.68
90.81
64.31
39.69
17.35
-5.05
-29.43
-55.15
-79.18
-97.94
-109.44
-114.34
-114.96
-113.77
-111.96
-109.34
-105.03
-98.61
-90.68
-82.57
-75.55
-70.37
-66.96
-64.65
-62.61
-60.05
-56.33
-50.96
-43.66
-34.55
-24.23
-13.62
-3.76
4.65
11.37
16.62
20.88
24.53
27.80
30.68
32.96
34.35
34.52
33.18
30.24
25.95
21.06
16.71
14.10
13.96
16.06
19.09
21.18
20.68
17.11
11.53
6.02
2.77
2.98
6.41
11.64
16.87
20.78
22.94
23.59
23.20
21.98
19.78
16.19
10.97
4.38
-2.69
-8.89
-12.77
-13.38
-10.63
-5.41
0.70
6.10
9.82
11.76
12.53
12.86
13.15
13.53
13.75
13.53
12.65
10.95
8.29
4.60
-0.01
-5.17
-10.23
-14.61
-18.16
-21.26
-24.55
-28.63
-33.56
-38.98
-44.51
-49.73
-54.79
-60.37
-67.31
-76.15
-86.99
-99.22
-112.02
-124.70
-136.05
-145.41
-153.02
-160.08
-168.09
-178.23
-189.79
-200.56
-207.44
-205.90
-193.06
-169.29
-138.05
-104.11
-72.16
-43.70
-18.38
4.88
29.47
57.56
88.91
121.34
152.35
179.49
203.40
225.20
245.30
266.57
290.78
317.31
343.46
366.16
382.03
391.45
395.40
373.64
314.80
221.50
110.14
0.69
-83.44
-144.19
-186.35
-214.22
-231.29
-239.02
-237.38
-227.42
-211.58
-192.30
-172.42
-151.39
-128.53
-104.44
-78.26
-49.84
-20.45
8.07
35.28
62.13
93.45
133.44
182.34
236.43
286.85
321.54
329.49
305.40
251.73
179.98
105.95
44.82
8.24
1.73
24.22
69.35
127.38
186.93
237.50
270.46
280.34
266.29
231.96
184.19
130.81
78.15
29.80
-12.48
-47.26
-71.98
-82.95
-77.48
-56.45
-25.61
5.43
27.17
33.88
25.38
5.80
-19.69
-47.82
-78.12
-111.42
-147.78
-183.52
-211.27
-222.56
-211.59
-178.14
-128.11
-71.84
-20.91
14.14
28.41
23.41
5.25
-18.72
-42.78
-64.01
-81.56
-96.17
-110.97
-127.59
-146.11
-166.22
-188.80
-216.19
-250.84
-293.08
-340.86
-391.98
-440.56
-478.63
-499.10
-499.07
-480.93
-450.58
-414.54
-359.82
-283.87
-193.47
-102.25
-22.86
38.23
81.25
108.19
129.72
155.15
187.59
227.57
273.47
322.34
367.80
398.55
405.17
386.23
349.29
305.55
266.01
236.34
216.26
201.57
188.26
175.83
166.89
163.54
164.23
165.37
162.98
154.58
140.00
119.86
96.88
74.29
53.73
34.10
12.78
-12.95
-42.02
-73.25
-104.47
-132.30
-153.27
-165.57
-169.65
-167.78
-163.05
-158.06
-154.84
-154.36
-156.60
-160.97
-166.08
-169.15
-166.05
-152.54
-126.22
-88.85
-46.12
-5.70
25.66
44.76
52.61
53.11
50.53
47.52
44.39
40.40
35.21
29.54
24.87
22.37
22.09
22.88
23.06
21.03
16.39
9.87
2.95
-2.88
-6.82
-9.01
-10.39
-12.26
-15.66
-20.82
-27.28
-34.10
-40.31
-45.35
-49.21
-52.22
-54.93
-57.86
-60.66
-62.66
-62.97
-60.79
-55.65
-47.70
-37.20
-24.78
-11.22
2.74
16.39
29.13
40.41
49.79
56.88
61.48
63.54
63.19
60.84
56.95
52.09
46.77
41.46
36.47
31.98
28.06
24.63
21.61
18.89
16.43
14.24
12.36
10.78
9.42
8.20
6.94
5.55
4.02
2.48
1.15
0.27
-0.08
-0.00
0.38
0.77
0.93
0.81
0.60
0.67
1.37
2.88
5.05
7.70
10.49
13.07
15.35
17.46
19.76
22.68
26.72
32.29
39.94
49.56
60.23
70.20
77.40
80.14
77.91
71.67
61.72
49.93
38.19
27.70
18.89
11.65
5.81
1.30
-1.88
-3.92
-5.06
-5.91
-7.16
-9.32
-12.48
-16.43
-20.74
-25.04
-29.09
-32.68
-35.87
-38.92
-42.06
-45.29
-48.36
-50.86
-52.47
-53.17
-53.19
-53.07
-53.37
-54.24
-55.29
-55.76
-54.81
-51.95
-47.26
-41.25
-34.62
-27.98
-21.63
-15.56
-9.73
-4.20
0.78
4.79
7.57
9.09
9.67
9.93
10.54
11.96
14.26
17.07
19.74
21.69
22.60
22.58
22.01
21.32
20.71
20.12
19.26
17.87
15.91
13.58
11.23
9.15
7.50
6.30
5.57
5.41
6.04
7.74
10.61
14.49
18.88
23.09
26.44
28.43
28.91
28.08
26.28
23.93
21.35
18.71
16.05
13.33
10.56
7.72
4.84
1.95
-0.96
-3.89
-6.80
-9.53
-11.80
-13.21
-13.34
-11.93
-9.01
-5.03
-0.81
2.64
4.43
4.01
1.32
-3.22
-8.84
-14.70
-19.94
-23.84
-25.85
-25.64
-23.20
-18.85
-13.18
-6.88
-0.57
5.33
10.60
15.08
18.61
20.98
22.08
22.08
21.47
21.00
21.42
23.15
26.13
29.82
33.34
35.77
36.38
34.82
31.21
26.05
20.12
14.22
9.05
5.04
2.33
0.84
0.32
0.39
0.60
0.43
-0.65
-3.11
-7.24
-13.00
-19.94
-27.26
-33.87
-38.72
-40.94
-40.04
-36.05
-29.37
-20.78
-11.13
-1.33
7.87
15.80
21.97
25.97
27.54
26.57
23.21
17.93
11.46
4.75
-1.23
-5.65
-8.02
-8.30
-6.89
-4.55
-2.19
-0.60
-0.23
-1.10
-2.88
-5.11
-7.43
-9.68
-11.92
-14.25
-16.63
-18.96
-21.09
-22.98
-24.65
-26.15
-27.31
-27.80
-27.14
-25.06
-21.59
-17.12
-12.30
-7.69
-3.63
-0.18
2.78
5.34
7.54
9.34
10.75
11.88
12.91
14.02
15.24
16.43
17.37
17.81
17.62
16.85
15.66
14.32
12.97
11.68
10.37
9.00
7.56
6.16
4.92
3.90
3.07
2.27
1.37
0.31
-0.87
-2.07
-3.24
-4.36
-5.40
-6.21
-6.49
-5.80
-3.86
-0.63
3.52
7.89
11.77
14.60
16.23
16.78
16.65
16.21
15.74
15.36
15.07
14.83
14.59
14.36
14.15
13.99
13.92
13.93
13.98
14.00
13.86
13.52
13.02
12.54
12.28
12.35
12.67
13.00
13.02
12.55
11.58
10.26
8.76
7.10
5.16
2.77
-0.08
-3.14
-5.97
-8.07
-9.15
-9.21
-8.50
-7.39
-6.15
-4.94
-3.79
-2.68
-1.64
-0.71
0.06
0.64
1.08
1.44
1.79
2.19
2.68
3.24
3.78
4.19
4.30
4.01
3.29
2.22
0.93
-0.44
-1.80
-3.14
-4.49
-5.87
-7.29
-8.69
-10.02
-11.25
-12.41
-13.55
-14.70
-15.79
-16.62
-16.91
-16.44
-15.14
-13.18
-10.87
-8.55
-6.47
-4.68
-3.15
-1.77
-0.57
0.38
1.00
1.22
1.12
0.83
0.54
0.40
0.53
0.96
1.68
2.59
3.54
4.32
4.76
4.73
4.26
3.43
2.41
1.34
0.29
-0.73
-1.79
-2.99
-4.40
-6.06
-7.95
-9.98
-12.03
-14.05
-15.94
-17.63
-18.95
-19.62
-19.39
-18.05
-15.61
-12.32
-8.56
-4.74
-1.13
2.11
4.95
7.28
8.95
9.78
9.71
8.90
7.76
6.75
6.30
6.56
7.39
8.47
9.43
9.99
10.07
9.74
9.10
8.23
7.20
6.00
4.65
3.21
1.73
0.29
-1.07
-2.36
-3.62
-4.88
-6.15
-7.41
-8.66
-9.94
-11.28
-12.67
-13.92
-14.80
-14.96
-14.16
-12.38
-9.79
-6.78
-3.77
-1.12
0.95
2.40
3.27
3.70
3.83
3.85
3.92
4.16
4.67
5.47
6.51
7.71
8.91
9.97
10.73
11.10
11.01
10.47
9.54
8.28
6.74
5.02
3.18
1.38
-0.21
-1.48
-2.39
-3.04
-3.65
-4.42
-5.49
-6.90
-8.62
-10.57
-12.68
-14.76
-16.54
-17.64
-17.75
-16.77
-14.91
-12.59
-10.30
-8.34
-6.72
-5.27
-3.84
-2.45
-1.28
-0.60
-0.49
-0.77
-1.08
-1.01
-0.32
0.99
2.70
4.51
6.17
7.50
8.44
8.94
8.96
8.48
7.53
6.21
4.66
3.06
1.63
0.59
0.09
0.22
0.91
1.95
3.03
3.83
4.11
3.73
2.68
1.04
-1.00
-3.15
-5.04
-6.24
-6.45
-5.58
-3.83
-1.60
0.60
2.39
3.53
4.04
4.03
3.70
3.18
2.55
1.90
1.31
0.89
0.73
0.86
1.26
1.78
2.29
2.66
2.81
2.73
2.47
2.02
1.40
0.60
-0.33
-1.31
-2.19
-2.83
-3.17
-3.20
-3.04
-2.86
-2.79
-2.92
-3.18
-3.53
-3.94
-4.45
-5.13
-5.97
-6.78
-7.21
-6.89
-5.59
-3.35
-0.48
2.60
5.50
8.00
10.07
11.75
13.10
14.11
14.73
14.91
14.65
14.05
13.25
12.43
11.69
11.07
10.49
9.83
8.97
7.89
6.64
5.34
4.13
3.05
2.11
1.23
0.35
-0.61
-1.62
-2.61
-3.51
-4.25
-4.84
-5.42
-6.17
-7.27
-8.82
-10.78
-13.00
-15.16
-16.89
-17.83
-17.70
-16.40
-14.08
-11.09
-7.91
-4.98
-2.59
-0.80
0.48
1.37
1.95
2.26
2.30
2.17
2.03
2.08
2.43
3.08
3.88
4.63
5.16
5.38
5.32
5.04
4.60
4.00
3.17
2.06
0.66
-0.94
-2.61
-4.14
-5.38
-6.27
-6.88
-7.37
-7.94
-8.80
-10.14
-12.01
-14.35
-16.88
-19.17
-20.69
-20.97
-19.78
-17.25
-13.81
-10.05
-6.51
-3.48
-0.99
1.07
2.83
4.33
5.51
6.27
6.57
6.51
6.28
6.14
6.29
6.80
7.63
8.57
9.34
9.72
9.54
8.87
7.88
6.80
5.80
4.92
4.07
3.15
2.07
0.89
-0.28
-1.34
-2.28
-3.21
-4.32
-5.83
-7.83
-10.30
-13.03
-15.69
-17.90
-19.27
-19.55
-18.66
-16.71
-13.98
-10.80
-7.50
-4.33
-1.43
1.09
3.20
4.92
6.31
7.43
8.40
9.32
10.26
11.26
12.34
13.47
14.57
15.52
16.16
16.36
16.03
15.21
14.04
12.65
11.14
9.53
7.78
5.87
3.81
1.71
-0.30
-2.16
-3.87
-5.54
-7.32
-9.25
-11.31
-13.38
-15.38
-17.30
-19.13
-20.81
-22.14
-22.79
-22.42
-20.87
-18.23
-14.85
-11.19
-7.63
-4.38
-1.46
1.17
3.50
5.49
7.00
7.98
8.47
8.62
8.67
8.86
9.38
10.29
11.55
12.97
14.28
15.26
15.76
15.83
15.59
15.23
14.81
14.33
13.68
12.80
11.73
10.59
9.52
8.57
7.64
6.55
5.09
3.17
0.80
-1.99
-5.14
-8.63
-12.31
-15.89
-18.88
-20.77
-21.17
-20.10
-17.88
-15.09
-12.25
-9.64
-7.27
-4.97
-2.64
-0.33
1.72
3.28
4.21
4.60
4.77
5.02
5.60
6.55
7.73
8.92
9.90
10.55
10.82
10.74
10.39
9.81
9.07
8.18
7.15
5.98
4.65
3.15
1.52
-0.16
-1.80
-3.36
-4.86
-6.40
-8.04
-9.85
-11.82
-13.94
-16.15
-18.40
-20.52
-22.23
-23.14
-22.89
-21.29
-18.46
-14.74
-10.67
-6.74
-3.25
-0.32
2.15
4.27
6.13
7.72
9.03
10.03
10.79
11.47
12.20
13.07
14.06
15.05
15.85
16.33
16.42
16.08
15.39
14.43
13.27
12.00
10.67
9.23
7.64
5.88
3.99
2.14
0.48
-0.90
-2.05
-3.19
-4.57
-6.35
-8.56
-11.11
-13.87
-16.74
-19.62
-22.29
-24.41
-25.52
-25.19
-23.23
-19.80
-15.39
-10.68
-6.26
-2.46
0.67
3.30
5.64
7.77
9.61
10.98
11.71
11.82
11.54
11.23
11.25
11.79
12.82
14.06
15.18
15.88
16.01
15.59
14.74
13.67
12.52
11.36
10.17
8.84
7.24
5.32
3.13
0.79
-1.46
-3.44
-5.06
-6.34
-7.37
-8.26
-9.16
-10.22
-11.57
-13.32
-15.42
-17.63
-19.48
-20.40
-19.90
-17.79
-14.28
-9.89
-5.21
-0.75
3.25
6.73
9.73
12.25
14.22
15.48
15.95
15.68
14.88
13.92
13.14
12.72
12.68
12.87
13.12
13.26
13.24
13.05
12.71
12.21
11.53
10.60
9.39
7.91
6.21
4.38
2.52
0.76
-0.82
-2.20
-3.42
-4.59
-5.80
-7.15
-8.73
-10.60
-12.77
-15.18
-17.57
-19.56
-20.67
-20.50
-18.92
-16.08
-12.40
-8.37
-4.44
-0.87
2.15
4.53
6.14
6.94
6.98
6.45
5.63
4.79
4.10
3.57
3.08
2.44
1.47
0.07
-1.82
-4.23
-7.17
-10.63
-14.54
-18.84
-23.41
-28.16
-32.99
-37.83
-42.66
-47.45
-52.20
-56.94
-61.68
-66.50
-71.48
-76.73
-82.37
-88.50
-95.11
-102.02
-108.78
-114.67
-118.84
-120.47
-118.97
-114.02
-105.56
-93.76
-78.85
-61.16
-41.11
-19.30
3.45
26.14
47.77
67.47
84.63
98.90
110.14
118.32
123.44
125.61
125.07
122.28
117.86
112.51
106.84
101.25
95.91
90.80
85.82
80.89
75.96
71.12
66.48
62.25
58.56
55.49
52.95
50.75
48.62
46.38
44.02
41.74
39.99
39.30
40.17
42.84
47.29
53.17
60.01
67.29
74.62
81.80
88.67
95.09
100.78
105.29
108.14
109.01
107.99
105.68
103.09
101.33
101.19
102.67
104.88
106.26
105.20
100.61
92.35
81.11
67.94
53.64
38.41
21.96
4.04
-15.08
-34.26
-51.85
-66.26
-76.65
-83.35
-87.89
-92.52
-99.74
-111.79
-130.04
-154.39
-182.47
-209.36
-228.52
-233.75
-221.67
-193.33
-154.12
-112.09
-75.41
-50.26
-39.80
-44.33
-61.98
-89.32
-121.80
-154.20
-181.53
-200.12
-208.50
-207.58
-199.88
-188.42
-175.80
-163.77
-153.13
-143.71
-134.55
-124.27
-111.79
-97.03
-81.09
-65.88
-52.95
-42.41
-32.40
-19.61
-0.52
27.24
64.14
108.50
156.96
205.16
248.54
282.94
305.47
314.82
311.40
296.97
273.77
243.45
206.57
163.14
114.12
63.46
18.79
-10.10
-15.03
6.06
46.73
93.32
130.00
145.14
135.70
107.22
69.84
32.78
0.24
-28.64
-57.20
-88.06
-121.01
-153.13
-180.02
-197.17
-201.39
-192.25
-173.01
-150.52
-133.38
-128.04
-135.44
-149.90
-161.55
-161.31
-145.56
-117.65
-85.62
-57.57
-37.75
-25.52
-17.29
-9.70
-1.73
5.43
10.08
11.70
11.75
13.18
18.88
30.41
47.45
67.82
88.35
105.80
117.90
124.02
125.23
123.60
121.14
118.66
115.20
108.58
96.54
78.20
54.91
29.93
7.16
-10.40
-21.65
-27.53
-30.20
-32.01
-34.55
-38.33
-43.12
-48.33
-53.46
-58.09
-61.79
-64.02
-64.34
-62.81
-60.16
-57.53
-55.79
-54.66
-52.41
-46.44
-34.53
-16.33
6.23
29.41
49.12
62.39
68.03
66.47
59.04
47.36
33.19
18.63
6.07
-2.30
-5.29
-3.48
0.78
4.15
3.64
-2.24
-12.93
-26.23
-39.34
-49.85
-56.30
-58.10
-55.23
-47.90
-36.77
-23.18
-9.42
1.75
8.08
8.91
5.76
2.03
1.72
7.90
21.44
40.74
62.45
82.79
98.89
109.66
115.69
118.69
120.43
121.91
123.05
122.77
119.52
111.95
99.51
82.82
63.83
45.41
30.65
21.80
19.32
21.35
24.01
22.48
12.31
-9.10
-41.65
-82.25
-125.32
-164.10
-192.37
-206.32
-205.68
-193.72
-175.81
-157.24
-141.13
-127.52
-114.04
-97.59
-76.33
-50.58
-22.73
3.98
26.87
44.69
57.62
66.66
72.89
76.91
79.00
79.46
79.22
79.80
82.77
88.92
97.56
106.44
112.48
112.86
106.02
92.09
72.63
49.89
26.19
3.46
-16.83
-33.67
-46.61
-55.82
-62.18
-67.04
-71.92
-78.17
-86.62
-97.43
-109.97
-122.87
-134.27
-142.08
-144.28
-139.29
-126.12
-104.72
-76.23
-43.07
-8.77
22.89
48.82
67.66
80.01
87.89
93.56
98.37
102.28
104.43
104.17
101.97
99.43
98.61
100.90
106.34
113.57
120.51
125.31
127.01
125.62
121.74
115.92
108.26
98.22
84.85
67.25
44.90
18.01
-12.36
-44.41
-75.79
-103.97
-126.68
-142.37
-150.46
-151.33
-146.07
-136.04
-122.42
-106.14
-87.94
-68.77
-49.98
-33.24
-20.15
-11.61
-7.40
-6.32
-6.75
-7.42
-7.91
-8.56
-9.90
-12.09
-14.61
-16.71
-18.15
-19.65
-22.67
-28.47
-37.18
-47.26
-56.05
-60.88
-60.29
-54.56
-45.36
-34.80
-24.57
-15.49
-7.75
-1.31
3.83
7.64
10.46
13.16
16.92
22.83
31.33
41.99
53.59
64.52
73.30
79.01
81.42
80.97
78.53
75.11
71.71
69.18
68.20
69.21
72.27
77.04
82.79
88.59
93.49
96.70
97.62
95.89
91.23
83.61
73.35
61.35
49.03
37.94
29.11
22.44
16.37
8.25
-4.71
-24.45
-51.17
-83.05
-116.44
-146.45
-167.89
-176.09
-167.91
-142.65
-102.58
-52.89
-0.66
46.73
83.36
106.07
114.81
111.98
101.35
86.72
71.17
56.71
44.40
34.57
27.19
21.93
18.34
15.91
14.13
12.58
10.96
9.11
7.00
4.71
2.38
0.13
-1.97
-3.95
-5.96
-8.19
-10.70
-13.26
-15.38
-16.54
-16.53
-15.73
-14.99
-15.20
-16.69
-18.88
-20.38
-19.67
-15.89
-9.32
-1.23
6.64
12.88
16.86
18.77
19.35
19.46
19.81
20.72
22.08
23.43
24.04
23.19
20.41
15.78
9.89
3.62
-2.19
-7.10
-11.07
-14.33
-17.15
-19.67
-21.94
-24.03
-26.08
-28.28
-30.58
-32.65
-33.95
-33.92
-32.26
-29.09
-24.83
-20.05
-15.20
-10.63
-6.57
-3.19
-0.67
0.94
1.73
1.88
1.64
1.20
0.63
0.02
-0.56
-0.95
-1.06
-0.87
-0.53
-0.21
-0.06
-0.08
-0.26
-0.62
-1.29
-2.52
-4.51
-7.28
-10.58
-14.04
-17.26
-20.06
-22.37
-24.21
-25.48
-25.96
-25.42
-23.72
-21.01
-17.65
-14.05
-10.52
-7.15
-3.92
-0.77
2.15
4.60
6.22
6.81
6.38
5.18
3.61
2.02
0.65
-0.38
-1.04
-1.32
-1.24
-0.83
-0.20
0.38
0.66
0.42
-0.39
-1.65
-3.13
-4.60
-5.87
-6.85
-7.54
-7.99
-8.30
-8.60
-8.88
-8.99
-8.62
-7.39
-5.07
-1.68
2.45
6.86
11.10
14.89
18.14
20.85
22.99
24.52
25.35
25.48
25.01
24.11
22.98
21.79
20.61
19.52
18.53
17.67
16.98
16.45
16.05
15.70
15.25
14.55
13.45
11.80
9.54
6.66
3.25
-0.49
-4.32
-7.97
-11.16
-13.70
-15.45
-16.34
-16.41
-15.81
-14.70
-13.26
-11.54
-9.46
-6.88
-3.79
-0.34
3.10
6.01
8.00
8.91
8.87
8.23
7.35
6.53
5.88
5.39
5.05
4.83
4.73
4.71
4.73
4.70
4.52
4.09
3.35
2.26
0.86
-0.82
-2.67
-4.60
-6.56
-8.56
-10.68
-13.00
-15.50
-17.98
-20.05
-21.29
-21.39
-20.31
-18.24
-15.52
-12.44
-9.18
-5.74
-2.16
1.44
4.76
7.42
9.12
9.83
9.75
9.21
8.56
7.97
7.45
6.95
6.49
6.20
6.22
6.56
7.06
7.36
7.12
6.19
4.68
2.91
1.20
-0.29
-1.60
-2.89
-4.35
-6.11
-8.19
-10.55
-13.12
-15.78
-18.33
-20.49
-22.00
-22.68
-22.52
-21.61
-20.09
-18.02
-15.33
-11.97
-7.93
-3.44
1.14
5.32
8.67
10.93
12.06
12.24
11.77
11.03
10.34
9.93
9.86
10.04
10.29
10.40
10.26
9.85
9.24
8.52
7.70
6.72
5.50
4.02
2.37
0.67
-0.94
-2.42
-3.85
-5.35
-7.04
-8.92
-10.89
-12.84
-14.66
-16.31
-17.78
-19.04
-19.98
-20.38
-20.04
-18.79
-16.59
-13.51
-9.71
-5.45
-1.03
3.19
6.86
9.66
11.38
12.00
11.71
10.82
9.72
8.71
7.98
7.54
7.33
7.22
7.17
7.20
7.31
7.49
7.63
7.53
6.97
5.78
3.91
1.44
-1.39
-4.31
-6.97
-9.19
-10.91
-12.23
-13.41
-14.70
-16.26
-18.19
-20.46
-22.97
-25.56
-27.96
-29.80
-30.71
-30.46
-29.01
-26.61
-23.65
-20.53
-17.49
-14.65
-11.95
-9.36
-6.91
-4.72
-3.00
-2.00
-1.95
-2.98
-5.04
-7.72
-10.24
-11.55
-10.68
-7.16
-1.24
6.02
13.15
18.71
21.80
22.28
20.66
17.82
14.59
11.50
8.67
5.92
2.99
-0.28
-3.84
-7.40
-10.46
-12.50
-13.08
-11.99
-9.33
-5.47
-0.95
3.60
7.63
10.73
12.76
13.81
14.24
14.52
15.06
16.14
17.78
19.75
21.71
23.30
24.25
24.48
24.04
23.10
21.91
20.68
19.58
18.70
18.02
17.50
17.07
16.64
16.14
15.52
14.70
13.64
12.40
11.09
9.86
8.81
7.92
7.02
5.88
4.25
2.04
-0.65
-3.58
-6.46
-9.02
-11.06
-12.52
-13.44
-13.94
-14.22
-14.40
-14.50
-14.37
-13.74
-12.32
-10.02
-7.03
-3.81
-0.87
1.44
3.04
4.11
4.94
5.72
6.42
6.89
7.00
6.74
6.32
6.03
6.09
6.52
7.08
7.42
7.22
6.33
4.86
3.09
1.39
0.02
-0.93
-1.59
-2.21
-3.08
-4.39
-6.18
-8.36
-10.77
-13.23
-15.57
-17.68
-19.42
-20.68
-21.40
-21.57
-21.21
-20.35
-18.94
-16.92
-14.24
-10.99
-7.39
-3.79
-0.54
2.11
4.01
5.13
5.51
5.26
4.54
3.62
2.77
2.15
1.77
1.42
0.88
0.01
-1.14
-2.34
-3.41
-4.26
-5.05
-6.12
-7.84
-10.41
-13.79
-17.70
-21.68
-25.30
-28.29
-30.70
-32.88
-35.43
-38.95
-43.84
-50.08
-57.18
-64.30
-70.59
-75.56
-79.28
-82.46
-85.99
-90.57
-96.26
-102.43
-108.07
-112.06
-113.43
-111.44
-105.75
-96.94
-86.86
-78.52
-75.03
-77.86
-85.43
-92.98
-94.44
-85.19
-64.44
-35.53
-4.14
24.62
48.40
68.04
86.32
106.09
129.31
156.69
187.81
221.07
253.50
280.85
298.57
303.47
295.45
277.93
256.49
236.38
219.98
205.93
190.24
168.85
140.06
105.47
69.19
35.76
7.96
-14.21
-33.14
-52.53
-76.05
-106.13
-143.30
-185.62
-228.61
-265.82
-290.50
-297.89
-287.09
-261.34
-226.72
-189.59
-154.27
-121.96
-91.30
-60.01
-26.60
8.56
43.00
72.71
93.21
100.80
93.98
74.50
47.33
19.16
-3.61
-16.65
-18.42
-9.61
7.96
32.05
59.88
87.52
109.79
121.59
120.07
106.37
85.65
64.75
48.64
37.88
28.67
15.66
-4.30
-29.72
-54.58
-70.86
-71.92
-55.10
-22.56
20.04
65.66
107.64
140.79
161.42
166.91
155.52
126.80
82.72
28.64
-26.97
-74.52
-106.61
-120.95
-121.29
-115.52
-112.19
-117.11
-131.87
-154.57
-181.63
-209.14
-233.40
-250.86
-257.99
-252.06
-232.33
-200.78
-161.71
-120.31
-81.16
-47.38
-20.56
-0.62
14.00
26.18
39.00
53.92
69.35
81.16
85.10
79.86
68.78
58.87
57.65
69.72
94.61
127.31
160.69
188.65
208.40
220.88
229.47
237.76
247.43
257.05
262.82
260.82
249.78
232.63
215.38
203.61
198.72
196.73
190.76
175.88
152.61
126.84
106.17
95.13
92.75
93.85
92.98
87.71
79.55
71.78
66.34
62.26
56.59
46.97
33.81
20.39
10.90
7.88
10.84
16.93
22.74
25.98
26.02
23.42
19.22
14.66
11.26
10.72
14.32
21.84
31.05
38.17
39.46
32.78
18.37
-1.67
-24.63
-48.28
-71.02
-91.53
-108.59
-121.70
-131.81
-141.34
-153.00
-167.82
-183.90
-196.90
-202.23
-197.64
-184.60
-166.99
-148.35
-129.52
-108.54
-83.18
-54.21
-27.05
-9.50
-7.20
-19.11
-36.66
-47.61
-42.92
-21.90
7.49
33.48
47.42
48.23
41.58
34.87
31.75
30.64
27.67
21.74
17.19
21.90
41.89
76.40
117.09
152.12
172.38
175.72
166.92
153.99
143.34
137.26
134.69
133.71
133.71
135.91
141.70
150.68
159.87
164.42
159.07
139.95
105.96
59.87
8.75
-36.71
-64.83
-66.71
-40.23
8.06
64.56
113.67
143.87
151.88
142.52
124.79
107.05
93.58
84.23
76.77
69.63
63.32
59.70
59.89
62.34
63.49
59.34
47.42
27.96
3.52
-22.22
-46.09
-66.97
-87.25
-110.20
-138.21
-171.53
-208.00
-244.12
-276.47
-302.38
-321.68
-338.77
-357.87
-381.60
-409.96
-440.61
-470.55
-497.42
-519.28
-537.51
-560.12
-594.80
-646.65
-715.62
-795.70
-876.39
-945.50
-990.90
-1007.53
-1002.27
-984.22
-960.73
-934.49
-904.19
-868.50
-829.47
-790.98
-719.31
-594.39
-408.60
-173.40
84.35
334.50
553.66
715.60
827.48
898.63
930.33
923.79
882.35
813.54
731.20
650.59
585.36
545.95
531.89
530.01
524.01
499.93
451.13
380.32
297.31
215.16
147.75
102.73
79.94
76.10
86.01
103.74
123.25
138.52
145.03
142.36
132.45
119.48
110.05
110.71
125.82
156.17
198.37
245.90
291.03
325.30
341.26
334.71
305.45
257.44
197.76
134.64
75.31
24.46
-16.88
-50.61
-79.98
-108.16
-136.84
-165.99
-194.17
-219.15
-238.61
-250.36
-252.64
-244.59
-226.96
-202.65
-176.53
-154.28
-140.26
-135.85
-138.73
-143.85
-145.30
-138.30
-120.38
-91.69
-54.46
-12.04
31.87
73.70
110.24
138.67
156.73
163.18
158.37
144.61
125.70
105.71
87.60
72.12
58.06
43.41
26.87
8.56
-10.14
-27.51
-42.29
-53.42
-59.35
-57.61
-45.43
-21.22
13.85
55.56
97.82
134.77
162.53
179.60
185.98
181.90
167.36
142.63
109.56
72.41
37.28
10.24
-4.90
-7.94
-1.93
8.63
20.07
30.80
41.07
51.44
61.16
67.39
66.19
54.45
31.91
2.02
-29.22
-55.61
-73.26
-81.70
-83.13
-80.40
-74.94
-66.14
-52.22
-32.51
-9.14
12.66
26.11
25.68
9.69
-18.60
-51.93
-81.81
-101.68
-108.90
-105.16
-94.95
-83.24
-73.36
-66.28
-61.13
-56.59
-52.20
-48.62
-47.05
-48.10
-51.21
-54.77
-57.09
-57.34
-55.83
-53.54
-50.91
-46.98
-39.37
-25.35
-3.65
24.28
54.19
80.43
98.17
105.33
103.19
95.46
86.53
79.64
76.03
75.16
75.67
76.26
76.16
74.84
71.86
66.82
59.58
50.57
40.72
31.13
22.46
14.77
7.75
1.37
-3.65
-5.91
-3.96
2.78
13.42
25.68
36.79
44.46
47.64
46.60
42.45
36.50
29.79
22.87
15.91
8.91
1.76
-5.61
-13.27
-21.33
-29.87
-38.92
-48.48
-58.43
-68.66
-78.96
-89.00
-98.26
-105.96
-111.09
-112.57
-109.41
-101.03
-87.55
-70.02
-50.25
-30.55
-13.26
-0.16
7.80
10.72
9.68
6.32
2.37
-0.94
-3.32
-5.23
-7.32
-9.53
-10.62
-8.33
-0.46
13.85
33.23
54.23
72.52
84.59
89.03
86.72
80.09
71.79
63.70
56.50
50.09
44.15
38.77
34.48
31.90
31.29
32.19
33.48
33.76
31.97
27.75
21.42
13.77
5.62
-2.32
-9.40
-14.84
-17.63
-16.92
-12.45
-5.01
3.64
11.30
16.17
17.54
15.94
12.78
9.71
8.03
8.31
10.31
12.98
14.65
13.39
7.71
-2.68
-16.40
-30.48
-41.23
-45.47
-41.78
-30.94
-15.69
0.26
13.42
21.46
23.67
20.86
14.89
7.91
1.63
-3.09
-6.21
-8.16
-9.31
-9.61
-8.72
-6.29
-2.44
2.17
6.53
9.82
11.75
12.69
13.27
13.96
14.77
15.42
15.74
16.07
17.26
20.14
24.88
30.58
35.48
37.75
36.25
31.07
23.30
14.56
6.31
-0.61
-6.13
-10.95
-16.27
-23.41
-33.30
-45.80
-59.34
-71.05
-77.63
-76.68
-67.72
-52.54
-34.58
-17.54
-4.22
4.21
7.95
7.98
5.36
1.04
-4.09
-8.92
-12.07
-12.22
-8.74
-2.09
6.21
14.12
19.90
22.81
23.33
22.79
22.69
23.92
26.34
28.86
29.96
28.61
24.79
19.70
15.34
13.61
15.36
20.04
25.76
30.08
31.01
27.80
21.15
12.84
4.95
-1.07
-5.12
-8.54
-13.74
-23.21
-38.39
-58.81
-81.91
-103.58
-119.38
-125.82
-121.41
-106.96
-85.24
-60.13
-35.74
-15.51
-1.71
4.85
4.82
0.06
-6.91
-13.37
-16.88
-15.51
-8.04
5.76
24.77
46.44
67.15
83.29
92.48
94.37
90.56
83.69
76.07
68.85
62.03
55.09
47.88
40.93
35.17
31.31
29.34
28.67
28.50
28.26
27.67
26.53
24.43
20.71
14.68
5.94
-5.36
-18.61
-32.84
-46.89
-59.39
-68.85
-73.73
-72.79
-65.54
-52.58
-35.61
-17.07
0.44
14.77
24.59
29.54
30.18
27.73
23.62
19.05
14.62
10.36
5.97
1.36
-2.96
-5.90
-6.35
-3.89
0.78
5.96
9.67
10.56
8.55
4.65
0.46
-2.76
-4.45
-4.82
-4.29
-3.10
-1.06
2.15
6.55
11.52
15.86
18.23
17.71
14.20
8.43
1.62
-5.16
-11.43
-17.53
-24.36
-32.67
-42.28
-51.64
-58.10
-58.87
-52.31
-38.93
-21.43
-3.80
10.29
18.86
22.20
22.37
21.90
22.51
24.32
26.14
26.25
23.59
18.39
12.15
6.91
4.36
5.01
8.06
11.83
14.47
14.63
11.86
6.67
0.30
-5.56
-9.22
-9.46
-5.85
0.86
8.90
15.99
19.94
19.43
14.32
5.76
-4.25
-13.33
-19.44
-21.50
-19.78
-16.05
-12.93
-12.96
-17.48
-25.80
-35.37
-42.66
-44.50
-39.37
-28.03
-13.16
1.68
13.40
20.46
23.02
22.46
20.23
17.14
13.10
7.67
0.87
-6.27
-11.81
-13.80
-11.20
-4.56
4.15
12.41
18.13
20.36
19.32
16.02
11.64
7.22
3.56
1.20
0.54
1.66
4.33
7.89
11.43
14.02
15.01
14.11
11.43
7.25
1.83
-4.75
-12.59
-21.80
-32.22
-43.03
-52.72
-59.17
-60.25
-54.61
-42.35
-25.20
-6.13
11.45
24.87
32.76
35.33
33.88
30.03
25.12
19.90
14.71
9.92
6.17
4.34
5.07
8.23
12.63
16.35
17.52
15.25
10.07
3.83
-1.13
-3.04
-1.40
2.82
7.64
10.93
11.32
8.72
4.38
0.27
-1.77
-0.94
2.11
5.37
6.05
1.24
-11.30
-32.57
-61.82
-96.29
-131.39
-161.32
-180.40
-184.55
-172.51
-146.25
-110.45
-71.13
-34.06
-3.30
19.51
35.05
45.53
53.48
60.64
67.49
73.42
77.52
79.23
78.70
76.48
72.96
68.01
61.14
51.94
40.73
28.52
16.83
7.12
0.45
-2.54
-1.61
3.04
10.61
19.51
27.48
32.28
32.48
28.13
20.83
13.02
6.81
3.11
1.29
-0.49
-4.58
-13.38
-29.03
-53.31
-87.25
-130.22
-179.10
-227.93
-268.90
-294.48
-299.96
-285.16
-254.40
-214.74
-173.37
-135.34
-102.62
-74.62
-49.51
-25.54
-1.48
23.57
50.70
81.19
115.88
154.27
194.02
231.38
262.57
285.41
300.30
310.11
318.77
329.28
342.19
355.25
364.34
365.18
354.97
333.20
301.41
262.52
220.15
178.59
142.77
117.73
107.21
111.72
127.37
146.48
160.36
162.60
151.38
129.71
102.95
75.72
49.49
22.21
-10.49
-52.91
-107.97
-176.01
-254.27
-336.83
-415.28
-480.59
-525.66
-547.51
-547.08
-528.83
-498.44
-460.67
-418.41
-373.11
-325.78
-277.89
-231.19
-185.89
-141.18
-95.61
-48.12
0.98
49.98
96.30
137.40
171.86
201.22
228.16
255.30
283.92
313.44
341.69
365.74
382.77
381.59
355.13
301.80
226.87
140.39
53.04
-27.40
-96.92
-154.57
-200.87
-235.57
-258.83
-271.51
-275.87
-274.43
-269.40
-262.39
-254.40
-245.81
-235.85
-224.02
-210.42
-195.77
-180.85
-166.02
-150.82
-135.36
-119.31
-101.80
-82.41
-61.06
-38.01
-13.43
12.77
40.81
71.13
104.67
143.29
189.20
243.77
305.58
369.48
426.72
467.27
483.56
473.13
439.37
389.35
330.71
269.42
209.61
154.86
109.75
79.72
68.77
76.69
97.60
121.10
135.94
134.09
112.97
75.11
26.16
-27.72
-81.25
-130.13
-170.34
-197.78
-208.83
-201.68
-177.86
-142.68
-104.36
-71.53
-50.77
-45.23
-54.27
-74.74
-102.19
-131.86
-159.13
-179.85
-190.80
-190.51
-180.06
-162.99
-144.80
-131.17
-126.12
-130.58
-141.99
-154.82
-162.15
-157.62
-137.41
-102.09
-56.93
-10.55
28.15
53.10
63.03
61.39
54.59
49.67
52.25
64.72
85.76
110.69
133.29
148.54
154.61
153.17
147.65
140.90
133.93
126.67
119.79
116.01
119.29
132.09
152.53
173.91
187.55
187.49
173.95
153.17
133.84
122.60
121.06
126.09
132.09
133.71
127.17
110.38
82.97
46.87
7.50
-26.52
-45.69
-43.69
-21.36
12.12
41.90
52.93
35.28
-12.89
-86.08
-174.32
-266.41
-351.82
-421.28
-467.33
-485.28
-474.58
-439.42
-387.84
-329.68
-274.18
-228.29
-195.70
-176.61
-167.77
-163.68
-158.29
-147.27
-129.82
-108.74
-88.62
-73.28
-63.58
-57.24
-50.33
-39.53
-23.61
-3.50
18.84
41.63
63.98
85.56
106.13
124.93
140.59
151.76
157.70
158.76
156.20
151.63
146.12
139.54
130.57
117.55
99.89
79.06
58.51
42.15
32.40
28.80
28.31
26.77
21.06
10.42
-3.53
-18.22
-31.83
-44.16
-56.07
-68.01
-78.72
-85.24
-84.18
-73.39
-53.07
-25.80
4.40
33.37
57.78
75.75
86.99
92.46
93.93
93.28
92.08
91.33
91.63
93.33
96.66
101.60
107.55
113.11
116.37
115.71
110.79
102.96
94.68
88.22
84.15
80.75
74.54
62.20
42.49
17.38
-8.47
-29.66
-42.35
-45.89
-42.54
-35.89
-28.82
-22.54
-17.25
-13.54
-13.21
-18.21
-28.54
-40.59
-47.86
-44.18
-27.60
-2.15
24.23
44.14
54.83
59.05
62.48
69.65
81.01
93.21
101.52
102.80
96.59
84.28
67.60
47.87
26.61
6.40
-9.12
-16.51
-14.10
-2.73
14.90
35.55
56.35
74.94
88.94
96.08
94.72
85.01
69.45
52.29
37.90
29.09
26.32
27.81
31.70
36.89
43.39
52.00
63.39
77.36
92.61
107.47
120.21
129.48
134.48
134.97
131.13
123.80
113.63
100.96
85.79
67.87
47.12
23.75
-1.56
-27.80
-53.86
-78.97
-102.86
-125.63
-147.78
-169.99
-193.11
-218.06
-245.33
-274.47
-303.44
-328.64
-345.62
-350.68
-342.27
-321.83
-293.25
-261.33
-230.10
-201.81
-176.98
-155.26
-136.40
-120.56
-107.96
-98.34
-90.74
-83.77
-76.36
-68.20
-59.66
-51.30
-43.23
-34.80
-25.03
-13.20
0.60
15.34
29.63
42.27
52.76
61.41
68.91
75.99
83.04
90.02
96.51
101.75
104.85
105.00
101.78
95.49
87.24
78.75
71.93
68.16
67.90
70.65
75.19
80.20
84.96
89.78
95.96
105.23
118.72
135.96
154.17
168.92
175.39
170.37
153.62
128.05
98.78
71.39
50.30
37.86
34.34
38.59
48.70
62.48
77.78
92.92
107.13
120.98
136.36
155.49
179.61
207.62
235.76
258.66
271.37
271.28
259.15
238.65
214.61
191.03
169.93
151.37
134.36
118.10
102.58
88.34
75.81
64.45
52.57
37.78
17.89
-8.28
-40.39
-76.69
-114.93
-153.09
-190.22
-226.63
-263.49
-302.30
-344.59
-391.69
-444.62
-503.16
-564.84
-624.14
-672.99
-702.96
-708.18
-687.75
-646.11
-591.04
-530.49
-469.66
-410.36
-352.17
-294.63
-238.78
-187.09
-142.30
-105.95
-77.89
-56.88
-41.50
-30.74
-23.86
-20.07
-17.99
-15.73
-11.39
-3.55
8.35
24.09
42.82
63.16
83.24
100.71
113.19
118.73
116.55
107.53
94.11
79.73
67.77
60.48
58.29
59.75
62.16
62.59
59.11
51.41
40.83
29.79
20.91
16.34
17.30
24.00
35.89
51.81
70.09
88.71
105.53
118.59
126.53
128.87
126.11
119.59
111.10
102.45
95.06
89.61
86.11
83.99
82.41
80.66
78.27
75.22
71.66
67.82
63.83
59.61
55.05
50.09
44.81
39.38
34.00
28.72
23.54
18.38
13.31
8.57
4.59
1.76
0.21
-0.29
-0.38
-0.95
-2.74
-6.03
-10.36
-14.60
-17.31
-17.29
-14.08
-8.25
-1.12
5.80
11.44
15.60
18.77
21.68
24.82
28.08
30.91
32.62
32.83
31.71
29.91
28.19
27.17
27.00
27.35
27.63
27.24
25.87
23.57
20.69
17.72
15.02
12.86
11.44
10.97
11.58
13.04
14.52
14.81
12.72
7.82
0.78
-6.75
-12.88
-16.40
-17.38
-17.07
-17.25
-19.21
-23.10
-27.89
-31.86
-33.46
-31.98
-27.75
-21.95
-15.96
-10.87
-7.07
-4.27
-1.86
0.69
3.54
6.45
9.00
10.83
11.87
12.33
12.51
12.57
12.57
12.38
11.99
11.64
11.84
13.24
16.30
20.95
26.54
32.02
36.28
38.61
38.88
37.49
35.08
32.21
29.24
26.28
23.38
20.52
17.77
15.15
12.65
10.12
7.38
4.19
0.41
-3.88
-8.28
-12.10
-14.50
-14.91
-13.20
-9.86
-5.73
-1.61
2.09
5.49
9.03
13.09
17.68
22.24
25.99
28.25
28.80
28.04
26.80
25.93
25.94
26.73
27.76
28.37
28.19
27.34
26.37
25.87
26.13
26.93
27.68
27.72
26.70
24.71
22.19
19.60
17.24
15.04
12.75
10.12
7.11
3.94
0.98
-1.44
-3.14
-4.27
-5.23
-6.53
-8.61
-11.57
-15.06
-18.32
-20.40
-20.56
-18.59
-14.94
-10.54
-6.35
-3.01
-0.57
1.39
3.38
5.65
7.97
9.78
10.46
9.74
7.80
5.26
2.87
1.18
0.38
0.30
0.57
0.81
0.86
0.78
0.77
0.99
1.49
2.17
2.87
3.51
4.11
4.84
5.87
7.25
8.85
10.41
11.60
12.17
12.01
11.15
9.70
7.75
5.28
2.23
-1.47
-5.74
-10.23
-14.31
-17.21
-18.24
-17.07
-13.84
-9.15
-3.74
1.67
6.72
11.29
15.39
18.92
21.64
23.21
23.43
22.37
20.48
18.37
16.56
15.29
14.51
13.97
13.46
12.96
12.58
12.48
12.73
13.14
13.39
13.10
12.09
10.38
8.29
6.19
4.44
3.14
2.18
1.34
0.39
-0.75
-1.94
-3.00
-3.85
-4.67
-5.87
-7.90
-10.99
-14.99
-19.24
-22.89
-25.14
-25.60
-24.31
-21.70
-18.28
-14.38
-10.12
-5.49
-0.56
4.34
8.66
11.77
13.31
13.27
12.15
10.62
9.40
8.86
9.01
9.58
10.21
10.66
10.91
11.10
11.40
11.83
12.20
12.24
11.72
10.60
9.06
7.38
5.83
4.49
3.24
1.91
0.32
-1.52
-3.43
-5.20
-6.70
-8.00
-9.34
-11.08
-13.46
-16.45
-19.67
-22.49
-24.20
-24.36
-22.88
-20.04
-16.33
-12.20
-7.91
-3.55
0.82
5.03
8.73
11.52
13.08
13.40
12.73
11.54
10.31
9.38
8.83
8.56
8.40
8.22
8.00
7.82
7.80
7.95
8.14
8.17
7.76
6.80
5.31
3.51
1.67
0.07
-1.19
-2.15
-2.95
-3.74
-4.61
-5.57
-6.56
-7.66
-9.03
-10.86
-13.24
-16.00
-18.63
-20.47
-20.89
-19.59
-16.69
-12.68
-8.20
-3.82
0.13
3.60
6.70
9.51
12.06
14.23
15.79
16.59
16.62
16.06
15.34
14.93
15.26
16.56
18.72
21.34
23.85
25.60
26.20
25.63
24.26
22.79
21.91
21.99
22.84
23.80
24.01
22.79
20.06
16.35
12.70
10.39
10.52
13.62
19.08
24.81
27.44
23.17
9.25
-14.59
-45.46
-77.92
-105.70
-123.72
-129.59
-123.82
-108.97
-88.38
-65.08
-41.48
-19.45
-0.66
13.59
22.70
27.01
27.79
26.84
25.77
25.55
26.23
27.23
27.77
27.28
25.68
23.37
20.89
18.73
17.11
16.00
15.17
14.40
13.51
12.38
10.97
9.29
7.41
5.42
3.44
1.53
-0.41
-2.57
-5.26
-8.57
-12.37
-16.13
-19.14
-20.74
-20.59
-18.82
-15.96
-12.70
-9.59
-6.89
-4.51
-2.24
0.07
2.35
4.35
5.80
6.53
6.64
6.40
6.14
6.12
6.44
6.99
7.60
8.06
8.28
8.29
8.18
8.08
7.98
7.82
7.45
6.77
5.78
4.64
3.56
2.66
1.93
1.20
0.29
-0.96
-2.53
-4.25
-5.95
-7.52
-9.02
-10.63
-12.44
-14.39
-16.22
-17.56
-18.11
-17.76
-16.62
-14.89
-12.70
-10.11
-7.06
-3.61
0.00
3.31
5.75
6.92
6.74
5.50
3.74
2.04
0.76
-0.02
-0.47
-0.83
-1.19
-1.49
-1.54
-1.15
-0.36
0.57
1.22
1.20
0.37
-1.18
-3.11
-5.04
-6.67
-7.85
-8.59
-8.98
-9.19
-9.42
-9.87
-10.77
-12.25
-14.29
-16.62
-18.75
-20.08
-20.05
-18.40
-15.19
-10.85
-5.99
-1.22
3.09
6.81
10.00
12.76
15.03
16.66
17.43
17.26
16.30
14.92
13.56
12.57
12.12
12.11
12.32
12.52
12.66
12.82
13.18
13.82
14.66
15.39
15.63
15.07
13.61
11.42
8.73
5.78
2.66
-0.64
-4.01
-7.19
-9.72
-11.12
-11.17
-10.02
-8.15
-6.12
-4.30
-2.67
-0.95
1.24
4.04
7.29
10.58
13.44
15.58
16.99
17.93
18.77
19.85
21.23
22.78
24.13
24.92
24.88
23.99
22.45
20.58
18.67
16.86
15.22
13.78
12.61
11.82
11.52
11.76
12.50
13.70
15.36
17.58
20.39
23.58
26.59
28.52
28.46
25.82
20.65
13.58
5.69
-2.01
-8.82
-14.68
-20.07
-25.87
-32.96
-41.83
-52.30
-63.42
-73.63
-81.13
-84.43
-82.76
-76.23
-65.77
-52.84
-38.99
-25.62
-13.81
-4.38
2.03
4.89
3.82
-1.23
-9.68
-20.12
-30.44
-38.24
-41.49
-39.31
-32.32
-22.61
-13.07
-6.49
-4.65
-7.82
-14.77
-23.28
-30.93
-35.89
-37.44
-36.02
-32.81
-29.09
-25.67
-22.49
-18.80
-13.54
-5.85
4.51
17.06
30.68
43.88
55.22
63.54
68.25
69.36
67.39
63.15
57.50
51.10
44.41
37.69
31.09
24.61
18.08
11.14
3.43
-5.27
-14.75
-24.33
-33.06
-40.15
-45.28
-48.81
-51.53
-54.28
-57.48
-60.99
-64.26
-66.78
-68.54
-70.20
-72.85
-77.42
-84.23
-92.83
-102.27
-111.63
-120.41
-128.66
-136.71
-144.78
-152.75
-160.16
-166.42
-171.03
-173.65
-173.99
-171.86
-167.26
-160.66
-152.91
-144.90
-136.83
-127.76
-115.70
-98.37
-74.34
-43.83
-8.85
27.64
62.90
95.38
125.14
153.61
182.84
214.66
249.76
287.14
324.00
356.23
379.54
390.68
388.53
374.36
351.34
323.50
294.55
267.05
242.08
219.32
197.49
174.70
149.08
119.43
85.81
49.90
14.79
-15.74
-38.38
-51.21
-54.32
-49.65
-40.22
-29.04
-18.37
-9.34
-2.23
3.08
6.72
8.65
8.94
7.92
6.29
5.09
5.24
7.37
11.59
17.50
24.43
31.63
38.53
44.86
50.64
56.04
61.30
66.48
71.49
76.14
80.29
84.04
87.72
91.77
96.48
101.78
107.13
111.60
113.94
112.75
106.57
94.14
74.71
48.44
16.66
-18.30
-53.61
-86.58
-115.21
-138.29
-155.18
-165.35
-168.00
-162.27
-147.81
-125.68
-99.03
-73.15
-54.48
-48.81
-59.22
-84.59
-119.68
-156.68
-187.79
-207.76
-215.24
-212.58
-204.23
-194.85
-187.71
-184.11
-183.51
-184.18
-183.99
-180.87
-173.23
-160.11
-141.45
-118.15
-92.14
-66.13
-43.13
-25.72
-15.25
-11.40
-12.25
-14.97
-16.80
-16.00
-12.13
-5.97
1.27
8.56
15.47
22.04
28.49
34.97
41.40
47.60
53.35
58.43
62.57
65.44
66.76
66.46
64.92
62.86
61.09
60.17
60.09
60.30
59.87
57.94
53.99
48.01
40.40
31.92
23.44
15.80
9.70
5.56
3.60
3.75
5.72
9.09
13.20
17.22
20.30
21.73
21.29
19.44
17.17
15.71
15.90
17.76
20.39
22.42
22.61
20.50
16.67
12.43
9.24
8.04
8.94
11.23
13.87
15.86
16.61
16.05
14.49
12.51
10.76
9.86
10.16
11.64
13.82
15.92
17.14
16.89
14.99
11.65
7.31
2.45
-2.56
-7.42
-11.89
-15.68
-18.55
-20.31
-20.86
-20.31
-18.89
-16.94
-14.84
-12.93
-11.41
-10.27
-9.34
-8.37
-7.20
-5.82
-4.40
-3.18
-2.41
-2.15
-2.26
-2.46
-2.44
-1.95
-0.90
0.62
2.36
4.04
5.46
6.57
7.49
8.46
9.65
11.11
12.68
13.99
14.67
14.43
13.23
11.27
8.94
6.61
4.57
2.90
1.51
0.17
-1.39
-3.43
-6.06
-9.19
-12.55
-15.66
-17.96
-18.99
-18.55
-16.76
-14.12
-11.18
-8.41
-6.05
-4.05
-2.28
-0.71
0.52
1.13
0.89
-0.14
-1.61
-2.93
-3.63
-3.50
-2.73
-1.75
-1.00
-0.70
-0.72
-0.74
-0.42
0.39
1.53
2.60
3.15
2.86
1.71
-0.05
-2.01
-3.83
-5.31
-6.46
-7.36
-8.10
-8.71
-9.17
-9.52
-9.89
-10.51
-11.55
-13.01
-14.62
-15.91
-16.41
-15.83
-14.24
-11.97
-9.50
-7.15
-5.03
-3.07
-1.14
0.70
2.19
2.95
2.66
1.33
-0.67
-2.78
-4.43
-5.35
-5.54
-5.26
-4.78
-4.26
-3.68
-2.93
-1.91
-0.65
0.66
1.74
2.39
2.51
2.17
1.56
0.87
0.21
-0.42
-1.09
-1.90
-2.84
-3.87
-4.89
-5.90
-6.96
-8.12
-9.37
-10.54
-11.32
-11.43
-10.66
-9.02
-6.68
-3.92
-1.01
1.82
4.48
6.90
9.09
11.06
12.74
14.09
15.03
15.54
15.68
15.58
15.38
15.14
14.86
14.46
13.95
13.34
12.78
12.33
11.98
11.59
10.93
9.92
8.61
7.21
5.96
5.00
4.30
3.68
2.93
1.92
0.65
-0.78
-2.28
-3.77
-5.24
-6.63
-7.83
-8.61
-8.74
-8.04
-6.49
-4.25
-1.62
1.09
3.58
5.67
7.29
8.43
9.10
9.33
9.15
8.65
7.93
7.17
6.52
6.04
5.68
5.33
4.89
4.29
3.50
2.56
1.50
0.33
-0.96
-2.37
-3.86
-5.38
-6.88
-8.34
-9.78
-11.25
-12.80
-14.44
-16.16
-17.89
-19.56
-21.06
-22.29
-23.14
-23.54
-23.42
-22.71
-21.34
-19.27
-16.52
-13.19
-9.48
-5.63
-1.97
1.28
4.00
6.20
8.03
9.71
11.42
13.21
14.96
16.45
17.46
17.81
17.52
16.74
15.69
14.61
13.62
12.71
11.73
10.44
8.61
6.07
2.84
-0.90
-4.84
-8.67
-12.13
-15.18
-17.89
-20.49
-23.18
-26.02
-28.89
-31.36
-32.88
-32.88
-31.08
-27.71
-23.46
-19.28
-16.08
-14.37
-14.09
-14.75
-15.63
-16.17
-16.13
-15.57
-14.68
-13.64
-12.43
-10.92
-8.97
-6.51
-3.62
-0.40
3.00
6.49
9.99
13.29
16.14
18.18
19.05
18.58
16.88
14.31
11.43
8.77
6.68
5.19
4.08
3.01
1.67
-0.11
-2.33
-4.89
-7.70
-10.66
-13.64
-16.34
-18.38
-19.30
-18.86
-17.08
-14.28
-10.94
-7.53
-4.29
-1.29
1.49
4.05
6.26
7.89
8.76
8.82
8.24
7.37
6.58
6.11
6.04
6.33
6.84
7.48
8.23
9.15
10.27
11.55
12.85
14.00
14.82
15.16
15.02
14.47
13.65
12.69
11.66
10.52
9.15
7.48
5.47
3.28
1.13
-0.72
-2.05
-2.67
-2.39
-1.05
1.55
5.52
10.83
17.24
24.39
31.93
39.69
47.82
56.64
66.49
77.44
89.08
100.53
110.66
118.31
122.74
123.80
121.89
117.94
113.03
108.19
104.19
101.33
99.41
97.70
94.99
89.94
81.43
69.02
53.03
34.42
14.13
-7.34
-30.18
-54.93
-81.90
-110.57
-139.46
-166.57
-190.10
-209.06
-223.28
-232.90
-237.81
-237.40
-230.94
-218.24
-200.23
-178.80
-156.24
-134.35
-113.94
-94.87
-76.65
-59.27
-43.62
-31.37
-24.36
-23.86
-29.94
-41.35
-55.70
-69.99
-81.32
-87.47
-87.45
-81.56
-71.26
-58.69
-45.99
-34.97
-26.72
-21.69
-19.84
-20.85
-24.31
-29.84
-37.16
-46.08
-56.49
-68.20
-80.84
-93.64
-105.46
-114.69
-119.47
-118.04
-109.21
-92.84
-70.20
-43.85
-17.19
6.45
24.63
36.30
41.87
42.80
40.88
37.80
34.85
32.97
32.90
35.21
40.23
47.89
57.58
68.19
78.23
86.18
90.93
92.12
90.29
86.69
82.73
79.24
76.06
72.14
66.18
57.65
47.41
37.53
30.41
27.44
28.21
30.53
31.58
29.34
23.72
16.60
10.99
9.72
14.29
24.61
39.39
56.85
75.45
94.27
113.26
133.28
156.18
184.26
219.24
260.72
305.15
345.85
374.87
385.65
375.46
346.25
303.94
256.04
209.42
168.64
135.31
108.31
84.74
61.52
37.00
12.05
-10.15
-25.37
-30.53
-25.40
-12.91
2.18
15.74
25.57
31.92
36.03
38.37
37.64
31.28
17.02
-5.32
-32.72
-59.14
-77.13
-80.35
-66.07
-36.82
0.01
34.83
59.32
69.45
66.48
55.42
42.25
31.14
23.23
17.58
13.03
9.75
9.60
14.98
27.23
45.56
67.19
88.77
107.64
123.07
136.12
148.83
162.77
178.19
193.71
206.92
215.50
218.22
215.49
209.03
201.03
192.96
185.04
176.20
164.66
148.97
128.71
104.80
79.05
53.17
28.12
3.75
-20.89
-46.67
-73.89
-102.33
-131.84
-163.05
-196.70
-232.43
-267.27
-295.42
-310.18
-306.99
-286.27
-253.69
-217.60
-185.19
-159.97
-141.74
-128.83
-120.54
-117.54
-120.12
-125.65
-127.77
-118.85
-94.11
-55.34
-10.96
27.52
50.52
54.46
42.49
21.63
-0.86
-20.79
-37.73
-53.94
-73.04
-97.97
-129.70
-166.59
-203.89
-234.65
-251.23
-247.52
-220.99
-173.04
-108.12
-32.38
47.49
124.44
190.99
239.73
264.96
264.79
242.55
205.85
164.04
124.60
90.91
62.34
35.89
8.72
-20.30
-50.49
-80.33
-108.94
-136.80
-165.71
-198.42
-238.05
-287.04
-346.40
-414.23
-485.28
-551.57
-604.33
-637.05
-647.78
-639.75
-619.85
-595.60
-572.36
-552.15
-534.14
-516.47
-497.78
-477.53
-455.65
-431.46
-403.48
-369.89
-329.52
-282.75
-231.54
-178.91
-127.99
-80.97
-38.83
-1.45
31.86
61.68
88.03
110.36
127.75
139.53
145.67
146.93
144.74
140.70
136.22
132.22
129.03
126.75
125.49
125.58
127.57
131.94
138.79
147.60
157.50
167.81
178.63
191.27
207.64
228.71
253.00
276.11
291.97
295.34
284.30
261.26
232.25
204.31
182.93
170.73
167.53
171.10
177.68
182.19
178.85
163.06
133.73
94.92
55.46
26.24
16.14
28.43
59.37
99.09
134.59
153.80
149.41
121.18
75.70
24.09
-21.94
-54.29
-71.05
-76.18
-76.31
-76.78
-79.32
-82.61
-84.40
-83.86
-82.02
-80.28
-78.70
-75.07
-65.75
-47.73
-20.48
13.72
50.80
86.76
119.39
148.93
177.45
207.17
239.00
271.42
300.45
320.78
327.99
320.60
301.05
274.61
247.14
222.63
201.81
182.56
161.31
134.95
101.95
62.80
19.90
-22.89
-60.84
-88.82
-102.12
-97.49
-74.11
-34.68
14.13
62.50
99.44
115.81
107.57
77.47
34.49
-8.90
-41.00
-54.51
-48.21
-26.25
4.42
36.91
66.16
89.04
103.53
107.57
98.68
75.08
37.50
-9.06
-55.31
-90.28
-105.51
-99.31
-78.41
-55.47
-43.71
-50.79
-75.05
-106.17
-129.89
-134.82
-117.89
-85.98
-52.91
-33.54
-37.92
-67.50
-115.33
-168.85
-214.00
-239.82
-241.57
-222.08
-190.30
-157.79
-133.57
-120.14
-113.10
-104.35
-87.61
-62.42
-34.28
-10.96
2.37
5.47
1.83
-5.00
-14.52
-29.18
-51.79
-82.03
-114.83
-141.99
-155.21
-148.68
-120.24
-71.27
-6.69
64.82
131.18
179.44
200.58
193.42
165.45
129.20
96.08
71.49
54.30
40.74
29.50
24.24
31.28
54.36
90.78
131.50
165.60
185.87
191.69
187.27
177.48
164.76
149.03
130.42
111.54
96.92
89.88
89.42
89.25
80.54
56.51
16.85
-31.26
-75.99
-105.99
-115.79
-108.36
-94.21
-86.58
-95.48
-123.15
-163.01
-202.73
-229.73
-236.86
-225.42
-203.61
-181.66
-166.48
-158.46
-152.10
-139.81
-116.41
-82.19
-42.86
-7.02
17.87
28.73
27.81
21.38
16.67
18.90
29.22
45.02
61.55
74.13
80.47
81.47
80.76
82.19
87.50
94.82
99.79
98.54
90.86
81.18
76.57
82.97
101.63
127.90
153.03
167.93
167.45
152.43
129.03
105.54
88.31
79.08
75.05
71.42
64.61
54.38
43.41
34.93
30.09
27.05
22.41
14.20
4.13
-3.01
-2.50
6.84
21.30
34.08
39.06
33.89
20.66
4.26
-10.82
-22.26
-29.94
-34.64
-36.89
-36.95
-35.72
-35.87
-41.71
-57.50
-84.58
-119.55
-154.47
-179.47
-186.69
-173.18
-141.39
-97.04
-45.98
7.36
59.58
106.57
142.84
162.75
163.33
146.68
119.68
90.84
65.58
43.61
20.34
-8.20
-41.05
-71.56
-90.68
-92.06
-75.84
-48.44
-19.17
3.75
15.56
15.03
2.86
-19.61
-50.22
-85.10
-118.54
-144.28
-157.73
-158.23
-149.51
-138.27
-131.54
-133.97
-145.68
-161.60
-173.14
-172.09
-154.58
-122.98
-84.92
-50.23
-27.00
-19.08
-25.49
-41.50
-60.40
-74.86
-78.39
-66.68
-39.06
0.33
42.65
77.18
95.67
96.07
83.58
68.00
58.45
58.90
67.43
78.96
89.73
100.23
114.58
136.08
162.92
187.06
197.93
188.55
159.92
120.80
82.63
53.11
33.22
19.31
8.34
1.79
5.07
22.49
52.03
83.59
102.99
99.17
70.44
25.77
-19.73
-52.36
-66.29
-65.12
-58.50
-56.01
-62.00
-74.06
-85.32
-88.98
-81.79
-65.57
-45.78
-28.62
-18.08
-14.50
-15.17
-16.11
-14.15
-8.21
0.33
8.51
12.92
11.19
2.84
-10.68
-26.55
-41.36
-51.70
-54.74
-48.60
-32.96
-9.02
20.45
51.74
80.80
103.81
118.15
122.95
118.89
107.50
90.32
68.70
44.29
19.68
-1.72
-16.79
-24.10
-24.66
-21.16
-16.06
-9.63
0.23
16.27
38.70
63.32
82.36
88.43
78.75
57.00
31.16
8.86
-6.56
-17.25
-28.02
-42.35
-59.96
-77.32
-90.84
-99.64
-106.33
-115.45
-130.69
-152.52
-177.76
-201.24
-217.76
-223.78
-217.90
-200.33
-171.94
-133.74
-87.15
-34.46
20.52
72.69
116.51
147.35
162.64
162.18
147.69
122.19
89.63
54.77
23.11
-0.40
-12.81
-14.19
-7.49
3.23
15.29
28.84
46.22
69.49
97.43
124.35
141.42
139.92
115.12
69.00
10.46
-47.27
-91.25
-113.56
-114.13
-100.12
-82.15
-68.80
-62.94
-61.20
-56.79
-43.88
-20.91
8.80
39.11
64.35
81.69
91.16
93.88
90.17
79.14
60.17
35.24
9.75
-8.92
-14.97
-7.26
9.82
28.73
42.66
48.64
48.15
45.29
44.06
46.41
51.98
59.36
67.40
75.64
83.68
90.43
93.91
91.69
81.57
62.44
35.10
2.94
-28.35
-52.20
-63.67
-61.56
-49.01
-31.79
-15.45
-2.88
6.17
13.66
21.10
28.25
33.30
34.26
30.36
22.40
12.14
1.26
-9.32
-19.61
-30.37
-42.78
-57.68
-74.56
-90.72
-101.80
-103.46
-93.87
-75.34
-54.05
-37.52
-31.37
-36.99
-51.21
-67.85
-80.04
-82.67
-74.21
-57.44
-38.69
-25.80
-24.91
-37.58
-60.05
-85.12
-105.73
-118.19
-123.17
-124.21
-124.98
-127.07
-129.61
-130.32
-127.09
-118.81
-105.45
-87.75
-66.92
-44.47
-22.05
-1.10
17.21
31.98
42.56
48.90
52.13
54.91
60.97
73.54
93.85
120.30
149.20
176.50
199.74
219.05
236.73
255.46
276.40
298.12
316.77
327.43
326.23
311.85
286.26
253.99
220.32
189.52
163.82
143.58
128.20
117.28
110.80
108.73
110.31
113.93
117.54
119.64
119.68
118.13
116.07
114.28
112.71
110.51
106.33
98.93
87.78
73.00
55.32
35.64
14.57
-7.76
-31.73
-58.24
-88.60
-123.93
-164.33
-208.01
-250.95
-287.84
-313.63
-325.45
-323.62
-311.41
-293.41
-273.76
-254.98
-238.09
-223.43
-211.44
-202.64
-197.01
-193.40
-189.59
-183.14
-172.56
-158.06
-141.36
-124.84
-110.52
-99.32
-90.92
-84.19
-77.85
-71.08
-63.87
-57.09
-52.01
-49.54
-49.45
-50.08
-48.87
-43.60
-33.68
-20.67
-7.63
2.35
7.73
9.04
8.41
8.13
9.49
12.51
16.35
20.29
24.17
28.41
33.46
39.40
45.83
52.16
57.89
62.75
66.62
69.25
70.32
69.58
67.14
63.58
59.89
57.16
56.24
57.54
60.81
65.33
70.12
74.23
77.11
78.68
79.22
79.07
78.36
76.91
74.37
70.49
65.43
59.78
54.28
49.49
45.44
41.67
37.50
32.53
26.85
21.04
15.76
11.30
7.44
3.66
-0.52
-5.15
-9.94
-14.58
-19.00
-23.36
-27.75
-31.89
-35.11
-36.74
-36.82
-36.24
-36.52
-38.91
-43.48
-48.71
-52.11
-51.17
-44.54
-32.76
-18.00
-3.11
9.31
17.83
22.50
24.30
24.62
24.83
26.10
29.41
35.57
44.71
56.13
68.42
79.48
87.42
91.16
90.68
86.95
81.54
75.43
68.89
61.75
53.09
42.74
32.17
24.52
23.47
32.05
48.98
69.09
85.55
90.91
81.00
56.53
22.13
-15.94
-50.52
-78.92
-101.13
-117.58
-130.98
-144.18
-159.37
-178.01
-200.40
-222.67
-243.32
-261.66
-276.75
-291.58
-311.22
-340.65
-383.86
-443.22
-515.86
-602.38
-703.51
-793.83
-846.96
-841.44
-769.03
-639.79
-501.24
-372.09
-261.25
-172.66
-105.02
-51.63
-9.92
23.09
49.78
72.19
96.07
122.98
152.39
185.59
221.42
256.69
290.43
322.31
352.80
385.68
421.41
457.66
494.29
530.23
563.87
597.90
636.73
684.08
742.19
806.30
864.67
907.09
925.96
901.07
825.46
706.96
565.09
423.35
310.56
225.52
158.83
101.04
45.44
-12.52
-74.04
-140.43
-212.74
-290.05
-369.15
-439.77
-490.18
-513.32
-508.33
-482.11
-446.14
-410.77
-381.13
-358.76
-341.52
-329.17
-324.79
-330.29
-343.17
-355.55
-356.93
-339.47
-303.39
-255.09
-204.47
-159.51
-121.64
-85.98
-44.98
7.53
74.15
153.04
239.63
327.40
408.64
476.02
524.08
550.40
555.63
542.65
514.66
474.17
422.22
359.36
286.61
206.25
121.37
34.67
-52.73
-141.77
-234.38
-331.39
-430.17
-523.67
-601.47
-653.04
-671.85
-658.25
-619.66
-567.82
-514.30
-466.53
-426.03
-389.70
-352.66
-311.21
-264.18
-212.43
-157.35
-99.41
-38.36
25.55
90.22
151.73
205.81
250.43
287.54
322.38
360.62
404.63
451.30
492.91
520.70
529.17
518.61
494.61
464.99
436.42
412.30
392.95
377.13
363.64
352.04
342.20
333.82
325.68
316.03
303.32
286.94
267.41
245.97
223.96
202.07
180.22
157.81
134.28
109.72
85.02
61.60
40.77
23.13
8.39
-4.45
-16.46
-28.31
-40.10
-51.49
-62.29
-72.95
-84.68
-99.48
-119.97
-149.13
-189.66
-242.63
-306.09
-374.19
-437.93
-487.65
-516.32
-522.19
-509.25
-485.33
-458.76
-435.38
-417.37
-404.10
-393.94
-385.86
-379.78
-375.81
-373.34
-370.78
-366.12
-357.90
-346.00
-331.60
-316.76
-303.34
-292.30
-283.41
-275.49
-267.13
-257.28
-245.72
-233.04
-220.27
-208.30
-197.45
-187.40
-177.31
-166.28
-153.79
-139.87
-125.10
-110.31
-96.24
-83.31
-71.51
-60.59
-50.22
-40.26
-30.77
-22.01
-14.30
-7.85
-2.65
1.40
4.55
6.98
8.82
10.06
10.67
10.62
9.93
8.74
7.20
5.42
3.43
1.23
-1.20
-3.65
-5.69
-6.59
-5.41
-1.26
6.40
17.55
31.53
47.24
63.42
79.05
93.57
106.93
119.37
131.09
142.03
151.80
159.96
166.38
171.58
176.79
183.65
193.55
206.94
222.94
239.51
254.12
264.61
269.99
270.73
268.51
265.84
265.54
270.27
281.76
299.77
321.38
340.88
351.09
345.91
323.04
285.39
240.06
195.56
158.46
131.50
113.82
102.81
96.20
92.88
92.53
94.42
96.97
98.11
96.33
91.17
83.08
72.83
61.14
48.85
37.26
28.15
22.96
21.95
23.90
26.90
29.63
32.04
35.05
39.39
44.45
48.38
49.20
46.24
40.67
34.80
30.56
28.50
27.82
27.36
26.64
26.23
27.26
30.62
36.43
44.07
52.50
60.62
67.36
71.66
72.68
69.98
63.95
55.79
47.01
38.62
30.60
21.89
11.01
-2.93
-19.50
-36.88
-52.50
-64.27
-71.38
-74.61
-75.67
-76.20
-76.80
-76.86
-75.01
-69.99
-61.29
-49.25
-34.63
-18.27
-0.72
17.69
36.53
55.23
73.11
89.55
104.19
116.95
127.91
137.18
144.50
149.07
149.53
144.46
133.04
115.87
95.27
74.70
57.68
46.50
41.59
41.74
44.93
49.37
54.09
58.87
63.53
67.53
69.89
69.55
65.86
58.58
47.55
32.18
11.39
-15.69
-48.72
-85.09
-119.76
-146.42
-159.42
-155.98
-137.47
-109.32
-79.46
-55.86
-44.33
-46.90
-61.52
-82.73
-103.24
-115.85
-115.14
-98.53
-66.51
-22.11
30.18
85.29
138.06
183.44
216.82
234.54
234.96
219.25
191.47
157.54
123.36
92.99
67.61
45.86
25.24
3.79
-18.82
-41.49
-62.47
-80.62
-96.16
-110.64
-126.40
-145.85
-170.92
-202.36
-239.49
-279.68
-318.53
-350.82
-371.90
-379.33
-373.59
-357.74
-335.97
-312.11
-288.49
-265.91
-244.36
-223.98
-205.45
-189.75
-177.45
-168.21
-160.72
-153.22
-144.27
-133.28
-120.68
-107.43
-94.38
-81.56
-67.86
-51.30
-29.69
-1.27
34.87
78.63
128.54
181.40
232.31
275.29
304.84
317.85
314.95
300.40
280.39
260.36
242.96
227.52
211.39
192.14
169.27
144.52
120.68
100.07
83.51
70.38
59.60
50.61
43.63
39.57
38.96
41.43
45.52
49.14
50.27
47.44
39.96
27.94
12.04
-6.87
-27.99
-50.64
-73.94
-96.42
-115.73
-129.01
-133.91
-129.69
-117.88
-101.84
-85.39
-71.14
-59.47
-48.72
-36.40
-20.91
-2.45
17.18
35.68
51.44
64.18
74.52
83.16
90.20
94.91
96.33
93.92
87.99
79.63
70.16
60.56
51.29
42.48
34.26
27.04
21.40
17.71
15.69
14.06
10.68
3.04
-10.93
-31.85
-58.27
-86.84
-113.33
-134.08
-147.33
-153.73
-155.69
-156.15
-157.44
-160.49
-164.97
-169.52
-172.06
-170.11
-161.22
-143.71
-117.61
-85.06
-49.89
-16.45
12.03
34.44
51.83
66.43
80.36
94.64
109.02
122.48
133.92
142.65
148.41
151.23
151.22
148.46
142.90
134.34
122.79
108.66
93.05
77.62
64.08
53.56
46.21
41.23
37.34
33.41
28.76
23.02
15.85
6.62
-5.40
-20.59
-38.49
-57.52
-75.30
-89.38
-98.16
-101.30
-99.88
-95.96
-91.74
-88.78
-87.49
-87.06
-86.11
-83.28
-77.76
-69.43
-58.48
-45.04
-29.25
-11.39
7.86
27.31
45.56
61.47
74.46
84.50
91.98
97.27
100.54
101.63
100.33
96.66
90.94
83.82
76.02
68.05
59.89
50.98
40.41
27.33
11.46
-6.74
-26.11
-45.28
-63.02
-78.57
-91.46
-101.51
-108.60
-112.81
-114.60
-114.84
-114.57
-114.47
-114.37
-112.99
-108.29
-98.39
-82.47
-61.33
-37.33
-13.67
6.66
21.75
31.28
36.29
38.58
39.85
41.04
42.20
42.59
41.31
37.72
31.83
24.26
15.95
7.72
0.03
-7.02
-13.55
-19.75
-25.95
-32.60
-40.28
-49.16
-58.35
-65.83
-68.96
-65.76
-56.13
-42.25
-27.72
-16.01
-8.71
-5.47
-5.00
-6.38
-9.60
-15.21
-23.75
-35.42
-50.34
-68.69
-90.55
-114.96
-139.27
-159.50
-171.78
-174.17
-167.62
-155.15
-139.96
-123.72
-106.10
-85.67
-61.59
-34.32
-5.38
23.97
53.54
84.18
117.04
153.15
193.22
237.17
283.85
330.24
371.61
402.77
419.98
422.70
413.75
397.72
378.47
357.51
333.97
306.43
274.91
241.79
210.92
185.59
166.86
153.11
141.50
129.62
116.46
102.19
86.98
70.00
49.10
21.64
-13.88
-56.43
-102.23
-145.73
-181.34
-205.01
-215.15
-212.71
-200.54
-182.51
-162.44
-143.12
-125.59
-108.94
-90.79
-68.55
-40.84
-8.61
24.73
54.20
74.63
82.16
75.19
54.41
22.68
-15.74
-56.22
-94.51
-127.19
-151.70
-166.23
-169.82
-162.60
-146.04
-122.79
-96.01
-68.51
-42.11
-17.65
4.49
23.77
39.14
49.28
53.07
50.14
41.07
27.48
11.77
-3.36
-15.64
-23.91
-28.58
-31.33
-34.07
-37.47
-40.11
-38.79
-29.87
-11.29
16.07
48.22
79.27
103.72
118.31
122.81
119.60
112.21
103.91
96.68
90.93
85.77
79.63
70.80
57.74
39.43
15.48
-13.72
-46.91
-81.93
-115.88
-145.54
-168.05
-181.87
-187.37
-186.82
-183.49
-179.99
-176.83
-172.30
-163.50
-148.21
-126.23
-99.71
-72.30
-47.62
-28.14
-14.90
-7.72
-5.97
-8.99
-16.23
-26.86
-39.59
-52.61
-64.15
-73.14
-79.55
-84.25
-88.53
-93.70
-100.96
-111.40
-125.69
-143.44
-162.95
-181.37
-195.89
-205.14
-210.00
-212.97
-216.54
-221.23
-225.01
-224.37
-216.47
-200.96
-180.23
-157.95
-137.16
-118.97
-102.75
-87.34
-72.02
-56.80
-42.20
-28.66
-16.24
-4.73
6.38
17.60
29.42
42.30
56.71
73.17
92.42
115.53
143.50
176.59
213.43
250.70
283.83
308.32
321.37
322.75
314.58
300.13
282.53
263.85
245.06
226.62
209.24
194.11
182.67
175.90
173.76
174.97
177.49
179.29
179.18
177.31
175.17
174.78
177.70
184.03
192.28
199.86
204.07
203.08
196.13
183.39
165.56
143.66
118.95
92.92
67.18
43.35
22.83
6.41
-5.85
-14.52
-20.41
-24.36
-27.05
-29.01
-30.49
-31.34
-31.29
-30.08
-27.60
-23.72
-18.37
-11.41
-2.73
7.04
17.87
29.91
43.80
59.14
75.02
90.27
103.73
114.23
120.65
122.12
117.97
107.96
92.39
72.29
49.26
25.12
1.39
-20.96
-41.52
-60.44
-77.97
-94.04
-108.06
-118.97
-125.74
-127.88
-125.78
-120.72
-114.49
-108.82
-104.79
-102.43
-101.09
-100.10
-99.34
-99.48
-101.81
-107.88
-119.24
-137.42
-163.91
-199.37
-242.17
-287.06
-325.53
-348.37
-349.63
-329.92
-297.05
-263.18
-240.03
-234.94
-249.39
-280.33
-322.55
-370.24
-417.14
-456.01
-479.10
-480.10
-456.77
-412.41
-355.03
-294.16
-237.37
-188.24
-146.37
-109.24
-74.37
-40.71
-8.58
20.97
47.43
71.28
94.01
117.69
144.45
175.85
212.75
255.36
302.98
353.79
404.62
450.91
487.49
509.69
514.82
502.97
476.95
441.34
400.81
358.60
316.42
275.35
237.40
206.22
186.37
180.81
188.38
203.20
217.05
223.82
223.32
221.21
225.45
240.54
263.91
286.57
297.81
291.00
266.79
232.01
195.17
161.71
131.96
102.47
69.40
31.44
-9.39
-49.29
-85.00
-115.45
-142.10
-168.01
-196.13
-228.04
-263.51
-301.15
-339.72
-379.11
-420.02
-463.00
-507.19
-550.10
-588.57
-620.37
-645.10
-663.35
-674.78
-676.78
-665.38
-637.22
-592.01
-533.09
-466.29
-397.94
-332.31
-271.35
-215.34
-165.66
-124.84
-95.08
-75.85
-63.40
-53.25
-41.58
-26.99
-9.56
8.17
23.47
34.60
41.74
46.03
47.31
44.94
38.19
28.34
16.18
2.19
-13.93
-32.25
-45.61
-49.97
-44.21
-40.06
-41.84
-50.46
-61.49
-72.23
-80.67
-85.51
-87.42
-87.42
-86.40
-83.30
-77.70
-69.56
-59.45
-47.68
-34.41
-20.75
-7.74
3.84
14.91
26.01
37.58
49.92
63.73
79.78
97.82
116.94
135.69
153.17
168.23
180.27
189.47
197.12
205.08
214.51
225.51
236.98
247.54
255.74
261.17
264.79
268.91
276.24
288.78
307.19
330.61
357.03
383.34
405.75
420.12
422.86
412.03
388.38
355.57
319.24
284.78
255.06
229.48
204.81
177.81
147.70
117.36
92.05
76.48
71.78
74.01
75.62
68.81
49.49
19.31
-14.95
-44.86
-64.62
-73.60
-76.37
-79.63
-88.13
-101.71
-115.44
-122.55
-118.82
-105.06
-86.52
-69.77
-59.52
-57.32
-62.29
-73.17
-89.04
-108.65
-129.16
-145.34
-150.78
-140.33
-112.83
-71.94
-24.93
20.40
58.64
87.95
109.35
124.33
133.32
135.14
128.14
112.11
89.66
66.13
47.63
38.34
38.39
43.97
49.36
49.69
42.68
28.46
7.72
-19.75
-54.71
-97.01
-143.48
-187.38
-220.34
-235.56
-230.77
-208.95
-176.55
-139.97
-102.78
-64.96
-24.51
19.53
65.05
106.54
137.17
151.55
148.24
130.33
104.32
77.65
56.15
42.44
35.74
33.00
30.76
26.74
20.44
13.03
6.34
1.97
0.75
2.54
6.47
11.43
16.22
19.63
20.48
17.91
11.53
1.72
-10.07
-21.73
-31.10
-36.75
-38.71
-38.23
-36.87
-35.53
-33.69
-29.85
-22.67
-12.25
-0.65
8.77
13.02
11.00
4.07
-4.76
-12.32
-16.65
-17.63
-16.42
-14.69
-13.82
-14.84
-18.71
-26.38
-38.42
-54.26
-71.52
-86.46
-95.88
-98.88
-97.99
-98.46
-105.66
-122.48
-147.66
-176.33
-202.52
-221.58
-231.85
-234.21
-230.47
-221.84
-208.26
-189.23
-164.97
-137.15
-108.48
-81.46
-57.30
-35.57
-14.81
6.45
28.62
51.01
72.37
91.77
109.13
125.25
141.26
158.13
176.51
196.90
219.67
244.66
270.63
295.44
316.78
333.15
344.43
351.24
353.75
350.38
337.93
313.30
275.87
229.26
180.72
138.53
108.52
92.06
86.30
86.51
88.75
91.30
94.28
98.08
101.94
103.57
99.79
88.11
68.09
41.52
11.79
-17.57
-44.10
-66.93
-86.80
-105.35
-124.53
-145.89
-170.01
-196.28
-222.66
-245.94
-262.40
-268.64
-262.71
-244.79
-217.16
-183.32
-146.75
-109.99
-74.60
-41.93
-13.80
7.74
21.68
29.50
35.44
45.09
62.80
89.40
121.69
153.91
180.40
197.71
205.18
204.15
196.81
185.50
172.67
160.74
151.62
145.64
141.12
134.95
124.15
107.46
86.00
62.51
39.63
18.67
-0.80
-19.99
-39.54
-58.92
-76.56
-90.81
-100.59
-105.79
-107.01
-104.94
-99.78
-91.14
-78.68
-62.84
-45.47
-29.62
-18.78
-16.10
-23.42
-40.74
-66.36
-97.44
-130.51
-161.94
-188.39
-207.23
-215.92
-212.91
-198.43
-174.94
-147.15
-120.70
-101.90
-93.51
-95.30
-105.31
-119.84
-134.43
-143.77
-144.10
-134.32
-114.71
-91.01
-66.07
-41.51
-17.31
6.90
30.49
50.86
64.53
68.99
64.39
54.38
44.05
37.86
37.48
41.11
44.02
41.21
29.96
11.36
-9.39
-25.39
-30.53
-22.19
-2.73
20.75
38.98
44.16
33.26
9.66
-18.67
-42.90
-57.49
-62.57
-63.21
-65.70
-73.40
-84.52
-92.64
-90.39
-73.07
-41.02
0.63
44.16
81.96
108.84
122.97
125.76
120.59
111.35
101.30
92.77
87.26
85.91
89.46
97.60
107.91
115.51
113.98
97.83
65.46
20.70
-28.22
-72.17
-105.20
-126.66
-140.37
-151.31
-162.39
-173.28
-181.73
-186.06
-187.01
-187.56
-190.88
-197.77
-205.76
-210.14
-206.32
-192.18
-168.60
-138.63
-105.77
-72.69
-40.94
-11.40
15.09
37.61
55.28
67.83
76.07
82.18
89.63
102.45
123.84
154.49
191.56
228.52
256.61
267.46
255.88
221.80
170.52
110.91
52.33
1.63
-38.37
-68.31
-90.22
-105.42
-113.61
-113.76
-105.80
-91.91
-76.05
-62.31
-52.50
-44.99
-35.48
-19.55
4.60
34.75
65.36
90.13
104.68
108.27
103.75
95.96
89.54
87.18
88.95
92.94
96.61
98.05
96.73
93.12
87.81
80.83
71.52
59.25
44.15
27.46
11.04
-3.66
-16.27
-27.20
-36.75
-44.00
-46.72
-42.41
-30.03
-11.34
9.35
26.83
37.37
40.34
38.27
35.35
35.36
40.10
49.13
60.45
71.53
80.25
85.13
85.20
79.84
68.72
51.83
29.68
3.24
-26.35
-58.23
-92.28
-129.06
-169.26
-212.62
-256.75
-296.82
-326.38
-339.35
-332.24
-305.69
-264.30
-214.98
-164.67
-118.42
-78.60
-45.32
-17.29
7.34
30.36
52.93
75.13
96.01
113.97
127.88
137.66
144.30
148.94
151.80
152.26
149.58
144.46
139.17
136.62
138.71
145.07
153.17
159.77
162.66
161.61
158.49
155.43
153.64
153.07
153.11
153.33
153.76
154.57
155.20
154.73
151.51
143.88
131.03
113.55
93.48
73.67
56.95
42.57
30.33
19.99
11.60
5.67
2.69
2.71
5.04
9.21
13.54
17.15
19.74
21.58
23.18
24.92
26.82
29.01
31.39
33.68
36.07
38.73
41.79
45.25
49.08
53.12
57.21
61.20
64.92
68.58
72.38
76.40
80.54
84.50
87.86
90.19
91.05
90.17
87.58
83.47
78.10
71.69
64.49
56.74
48.71
40.70
32.94
25.66
18.83
12.15
5.14
-2.76
-11.93
-22.40
-33.82
-45.60
-57.09
-67.90
-78.02
-87.75
-97.42
-107.08
-116.31
-124.17
-129.53
-131.60
-130.31
-126.62
-122.27
-119.32
-119.41
-123.28
-130.64
-140.55
-151.94
-164.30
-177.87
-193.70
-213.31
-238.44
-270.56
-310.05
-355.28
-401.96
-443.45
-472.34
-483.01
-473.75
-447.55
-410.75
-370.57
-332.53
-299.25
-270.77
-246.07
-224.36
-205.51
-189.72
-176.74
-165.71
-155.33
-144.38
-131.94
-117.32
-99.91
-79.24
-55.10
-27.78
2.08
33.86
67.41
103.10
141.20
181.09
220.65
256.36
284.32
301.72
307.93
304.77
295.73
284.53
273.70
263.78
253.31
239.77
220.66
194.50
161.49
123.39
82.93
42.95
5.75
-27.12
-54.64
-75.83
-89.64
-95.15
-92.32
-82.47
-68.17
-52.73
-39.15
-29.39
-24.11
-22.78
-24.09
-26.18
-27.09
-25.18
-19.79
-11.73
-3.06
3.74
7.03
6.86
4.97
3.93
6.02
12.42
23.17
37.61
54.82
73.78
93.05
110.52
123.59
129.69
127.20
116.06
97.98
75.89
53.17
32.57
15.52
1.92
-9.61
-20.61
-31.57
-40.95
-45.27
-40.39
-23.53
4.79
40.07
74.68
100.11
109.21
98.00
66.25
17.37
-42.07
-103.09
-155.58
-190.32
-201.39
-188.13
-155.59
-112.85
-69.99
-34.96
-11.76
-0.49
1.20
-3.78
-13.06
-24.97
-38.04
-50.65
-61.12
-68.27
-71.99
-73.22
-73.58
-74.51
-76.59
-79.27
-81.22
-81.04
-77.85
-71.62
-63.05
-53.08
-42.50
-31.58
-20.14
-7.71
5.99
20.70
35.32
48.09
57.28
61.92
62.37
60.16
57.25
55.03
53.86
53.41
53.54
55.12
60.05
70.31
86.52
106.97
127.88
144.89
154.93
157.38
153.95
147.30
139.39
130.43
118.99
102.99
81.03
53.21
21.11
-12.64
-45.04
-72.88
-92.77
-101.55
-97.22
-80.19
-53.84
-23.93
3.11
22.23
31.21
30.96
24.62
16.12
8.97
5.62
7.27
13.93
24.42
36.50
47.33
54.29
55.94
52.62
46.25
39.39
34.17
31.38
30.28
29.18
26.32
20.94
13.72
6.44
1.10
-1.10
-0.26
2.30
4.79
5.71
4.34
0.91
-3.78
-8.78
-13.34
-17.03
-19.68
-21.19
-21.38
-20.11
-17.52
-14.14
-10.82
-8.34
-6.96
-6.27
-5.47
-3.92
-1.66
0.51
1.43
0.32
-2.76
-7.04
-11.41
-14.98
-17.42
-18.80
-19.39
-19.42
-19.10
-18.77
-18.95
-20.15
-22.55
-25.82
-28.96
-30.61
-29.46
-24.89
-17.38
-8.56
-0.80
3.67
3.64
-0.47
-6.92
-13.21
-17.23
-17.93
-15.54
-11.20
-6.35
-2.16
0.75
2.21
2.36
1.54
0.15
-1.33
-2.42
-2.70
-1.93
-0.13
2.41
5.14
7.35
8.35
7.69
5.31
1.63
-2.58
-6.44
-9.16
-10.33
-9.95
-8.45
-6.57
-5.19
-5.12
-6.89
-10.48
-15.30
-20.45
-25.06
-28.83
-32.04
-35.31
-39.07
-43.08
-46.38
-47.73
-46.22
-41.75
-35.19
-27.93
-21.45
-16.80
-14.42
-14.15
-15.22
-16.42
-16.26
-13.36
-6.87
3.17
15.68
28.80
40.51
49.08
53.58
53.99
51.05
46.00
40.21
34.90
30.92
28.69
28.12
28.80
30.20
31.82
33.35
34.75
36.24
38.12
40.64
43.83
47.41
50.85
53.42
54.47
53.52
50.57
46.07
40.83
35.76
31.49
28.16
25.48
22.92
20.02
16.73
13.33
10.34
8.18
6.91
6.14
5.29
3.85
1.73
-0.58
-2.18
-2.04
0.44
5.18
11.34
17.57
22.44
24.90
24.51
21.44
16.31
9.93
3.17
-3.24
-8.65
-12.62
-14.84
-15.29
-14.21
-12.13
-9.85
-8.26
-8.10
-9.81
-13.32
-18.18
-23.60
-28.62
-32.28
-33.75
-32.57
-28.87
-23.47
-17.69
-12.95
-10.30
-9.94
-11.21
-12.81
-13.38
-11.93
-8.17
-2.61
3.75
9.59
13.73
15.36
14.23
10.80
6.12
1.63
-1.22
-1.43
1.21
6.05
11.77
16.83
19.96
20.46
18.30
14.04
8.56
2.83
-2.23
-5.97
-8.08
-8.83
-8.96
-9.44
-11.05
-14.09
-18.26
-22.87
-27.16
-30.58
-32.86
-33.96
-33.94
-32.90
-30.96
-28.34
-25.21
-21.66
-17.72
-13.43
-9.02
-4.91
-1.60
0.60
1.73
2.13
2.25
2.24
1.92
0.80
-1.60
-5.38
-10.13
-14.97
-18.87
-21.09
-21.45
-20.42
-18.99
-18.26
-19.05
-21.62
-25.62
-30.22
-34.37
-37.02
-37.36
-35.14
-31.05
-26.96
-25.69
-30.10
-41.60
-59.00
-78.45
-94.64
-103.00
-101.65
-92.06
-78.06
-63.68
-51.36
-41.19
-31.75
-21.46
-9.66
3.40
17.35
32.41
49.57
69.73
92.82
117.15
139.76
157.39
167.57
169.41
163.74
152.63
138.72
124.58
112.04
101.90
93.89
87.00
80.10
72.45
64.14
55.87
48.55
42.78
38.51
35.06
31.43
26.78
20.63
12.90
3.73
-6.64
-17.92
-29.48
-40.22
-48.48
-52.48
-50.94
-43.80
-32.50
-19.66
-8.32
-0.90
1.41
-1.12
-7.06
-14.36
-20.92
-24.95
-25.32
-21.70
-14.65
-5.57
3.69
11.17
15.42
15.81
12.69
7.22
0.98
-4.48
-8.13
-9.63
-9.37
-8.18
-7.04
-6.63
-7.24
-8.61
-10.20
-11.39
-11.93
-12.02
-12.30
-13.45
-15.87
-19.36
-23.22
-26.56
-28.73
-29.52
-29.08
-27.60
-25.11
-21.56
-17.04
-12.09
-7.59
-4.51
-3.24
-3.47
-4.14
-4.01
-2.22
1.31
5.92
10.50
13.94
15.57
15.24
13.30
10.35
6.96
3.50
0.09
-3.24
-6.32
-8.68
-9.60
-8.40
-4.81
0.69
6.85
11.95
14.42
13.35
8.87
2.04
-5.52
-12.11
-16.46
-17.94
-16.73
-13.66
-10.08
-7.51
-7.18
-9.60
-14.35
-20.19
-25.48
-28.85
-29.66
-28.20
-25.39
-22.33
-19.84
-18.22
-17.20
-16.18
-14.58
-12.05
-8.72
-5.09
-1.83
0.54
1.93
2.70
3.48
4.79
6.84
9.36
11.75
13.30
13.39
11.65
8.02
2.88
-3.02
-8.57
-12.66
-14.62
-14.48
-13.08
-11.64
-11.25
-12.43
-14.93
-17.95
-20.51
-21.80
-21.38
-19.23
-15.86
-12.17
-9.36
-8.52
-10.15
-13.90
-18.58
-22.68
-24.96
-24.80
-22.27
-17.74
-11.56
-3.81
5.56
16.44
28.18
39.43
48.35
53.14
52.75
47.50
39.12
30.36
24.04
21.93
24.09
28.93
33.99
37.06
37.10
34.47
30.51
26.81
24.49
23.79
24.21
24.85
24.85
23.61
20.94
17.07
12.66
8.87
7.34
9.80
17.44
30.35
47.32
66.20
84.81
101.90
117.59
133.19
150.38
170.16
192.19
214.61
234.37
248.06
252.87
247.41
232.11
209.03
181.13
151.29
121.62
93.15
66.11
40.45
16.15
-6.93
-29.30
-52.02
-76.42
-103.63
-134.08
-167.67
-204.17
-243.50
-285.20
-327.43
-366.20
-395.78
-410.44
-406.53
-383.96
-345.79
-296.57
-240.61
-181.46
-122.63
-68.56
-24.65
4.31
16.36
13.99
3.64
-6.74
-10.82
-6.21
5.25
19.01
30.17
35.39
33.80
26.73
16.70
6.36
-2.29
-8.13
-10.89
-10.70
-7.81
-2.52
4.64
12.73
20.55
26.81
30.63
31.72
30.54
28.10
25.61
24.06
24.00
25.40
27.76
30.27
32.03
32.30
30.72
27.47
23.30
19.36
16.71
15.89
16.61
17.93
18.73
18.33
16.74
14.42
11.89
9.30
6.35
2.58
-2.22
-7.73
-13.13
-17.42
-19.83
-20.16
-18.85
-16.68
-14.48
-12.70
-11.22
-9.48
-6.75
-2.56
3.08
9.62
16.25
22.25
27.21
31.12
34.17
36.57
38.35
39.45
39.78
39.43
38.65
37.75
36.90
35.99
34.66
32.51
29.30
25.17
20.61
16.27
12.72
10.22
8.66
7.68
6.94
6.26
5.63
5.14
4.78
4.44
4.02
3.67
3.86
5.27
8.43
13.25
18.85
23.83
26.89
27.42
25.77
23.10
20.74
19.60
19.85
21.05
22.43
23.29
23.28
22.29
20.36
17.54
13.91
9.60
4.97
0.50
-3.33
-6.18
-7.94
-8.73
-8.68
-7.91
-6.55
-4.81
-3.14
-2.18
-2.52
-4.52
-8.04
-12.51
-17.09
-21.01
-23.94
-25.99
-27.59
-29.10
-30.49
-31.29
-30.76
-28.29
-23.82
-17.90
-11.62
-6.11
-2.09
0.33
1.66
2.77
4.47
7.23
11.04
15.39
19.42
22.32
23.52
23.00
21.23
18.88
16.54
14.45
12.55
10.66
8.78
7.17
6.18
5.98
6.34
6.68
6.40
5.15
3.04
0.54
-1.88
-4.06
-6.21
-8.76
-11.95
-15.69
-19.52
-22.86
-25.24
-26.42
-26.31
-24.87
-22.06
-17.94
-12.83
-7.38
-2.51
1.00
2.79
3.12
2.77
2.62
3.28
4.88
7.09
9.38
11.31
12.79
14.05
15.40
17.04
18.85
20.45
21.40
21.36
20.27
18.26
15.51
12.16
8.35
4.21
0.06
-3.70
-6.65
-8.60
-9.72
-10.53
-11.65
-13.54
-16.30
-19.77
-23.65
-27.72
-31.78
-35.55
-38.50
-39.89
-39.13
-36.07
-31.27
-25.79
-20.76
-16.83
-13.99
-11.67
-9.17
-6.15
-2.75
0.58
3.36
5.37
6.69
7.56
8.22
8.80
9.33
9.86
10.52
11.47
12.82
14.53
16.38
18.05
19.27
19.88
19.86
19.27
18.12
16.40
14.03
11.06
7.64
4.13
1.00
-1.37
-2.87
-3.72
-4.38
-5.53
-7.80
-11.58
-16.93
-23.46
-30.37
-36.58
-41.01
-42.99
-42.41
-39.89
-36.48
-33.29
-31.09
-29.96
-29.50
-29.01
-27.85
-25.67
-22.49
-18.59
-14.35
-10.20
-6.48
-3.52
-1.50
-0.49
-0.36
-0.80
-1.46
-2.03
-2.42
-2.82
-3.55
-4.97
-7.24
-10.27
-13.60
-16.54
-18.23
-17.86
-14.84
-8.98
-0.62
9.36
19.67
28.92
35.93
39.98
41.02
39.53
36.39
32.65
29.39
27.62
28.06
31.04
36.27
42.90
49.64
55.19
58.57
59.44
58.13
55.42
52.17
49.09
46.56
44.60
42.97
41.34
39.39
36.94
33.96
30.63
27.23
24.11
21.57
19.76
18.70
18.23
18.05
17.80
17.19
16.01
14.27
12.13
9.78
7.33
4.68
1.57
-2.22
-6.63
-11.34
-15.83
-19.68
-22.72
-25.07
-26.92
-28.29
-28.96
-28.57
-26.99
-24.49
-21.72
-19.46
-18.19
-17.86
-17.97
-17.84
-16.97
-15.22
-12.77
-9.99
-7.15
-4.41
-1.81
0.58
2.61
4.02
4.60
4.27
3.14
1.54
-0.11
-1.46
-2.33
-2.79
-3.14
-3.82
-5.18
-7.30
-9.96
-12.73
-15.12
-16.88
-18.11
-19.20
-20.64
-22.78
-25.66
-29.07
-32.51
-35.38
-37.11
-37.31
-35.87
-33.03
-29.32
-25.30
-21.28
-17.07
-12.08
-5.58
2.80
12.79
23.43
33.33
41.17
46.00
47.44
45.69
41.31
35.15
28.14
21.13
14.80
9.59
5.63
2.79
0.85
-0.48
-1.41
-2.18
-2.93
-3.76
-4.68
-5.60
-6.37
-6.89
-7.20
-7.50
-8.10
-9.23
-11.00
-13.33
-16.06
-19.03
-22.06
-24.98
-27.42
-28.79
-28.51
-26.21
-22.12
-17.07
-12.28
-8.92
-7.62
-8.22
-9.89
-11.51
-12.15
-11.38
-9.29
-6.34
-3.02
0.26
3.28
5.88
7.91
9.21
9.68
9.33
8.29
6.73
4.81
2.59
0.06
-2.83
-6.03
-9.45
-12.86
-16.00
-18.58
-20.34
-21.18
-21.17
-20.65
-20.15
-20.24
-21.32
-23.46
-26.44
-29.91
-33.54
-37.05
-40.17
-42.45
-43.28
-42.06
-38.53
-33.07
-26.69
-20.75
-16.41
-14.13
-13.47
-13.39
-12.60
-10.23
-5.97
-0.05
6.99
14.56
22.13
29.20
35.24
39.76
42.41
43.18
42.38
40.59
38.46
36.50
35.01
34.12
33.91
34.55
36.26
39.22
43.41
48.41
53.50
57.69
60.04
59.97
57.47
53.08
47.69
42.26
37.49
33.59
30.19
26.41
21.22
13.82
4.09
-7.27
-18.83
-28.86
-35.90
-39.19
-38.73
-35.12
-29.19
-21.74
-13.40
-4.78
3.43
10.52
15.86
19.14
20.52
20.52
19.82
18.98
18.19
17.31
16.07
14.27
11.98
9.48
7.09
4.95
2.94
0.80
-1.69
-4.52
-7.40
-9.95
-11.88
-13.17
-14.14
-15.23
-16.88
-19.28
-22.29
-25.51
-28.35
-30.23
-30.72
-29.74
-27.51
-24.56
-21.53
-18.97
-17.18
-16.14
-15.57
-15.06
-14.29
-13.08
-11.39
-9.36
-7.14
-4.92
-2.87
-1.04
0.57
2.03
3.37
4.52
5.33
5.58
5.17
4.21
3.03
2.03
1.47
1.35
1.36
1.10
0.29
-1.08
-2.75
-4.36
-5.65
-6.58
-7.38
-8.35
-9.76
-11.65
-13.98
-16.58
-19.31
-21.97
-24.20
-25.48
-25.27
-23.27
-19.63
-15.04
-10.44
-6.76
-4.43
-3.37
-3.09
-2.96
-2.52
-1.55
-0.06
1.83
3.95
6.13
8.15
9.82
11.04
11.90
12.62
13.45
14.53
15.74
16.76
17.18
16.68
15.24
13.07
10.50
7.82
5.14
2.34
-0.71
-4.01
-7.35
-10.37
-12.75
-14.44
-15.72
-17.03
-18.80
-21.26
-24.34
-27.77
-31.30
-34.67
-37.64
-39.88
-40.91
-40.27
-37.69
-33.39
-28.01
-22.48
-17.69
-14.10
-11.70
-10.01
-8.39
-6.31
-3.51
-0.09
3.67
7.36
10.69
13.45
15.64
17.37
18.73
19.79
20.47
20.68
20.43
19.85
19.27
19.07
19.51
20.56
21.94
23.21
24.08
24.54
24.88
25.50
26.71
28.52
30.64
32.69
34.32
35.42
36.04
36.29
36.16
35.44
33.88
31.30
27.86
24.09
20.73
18.46
17.55
17.74
18.34
18.57
17.97
16.55
14.83
13.44
12.86
13.13
13.96
14.90
15.63
16.10
16.41
16.69
16.93
16.94
16.48
15.44
13.87
12.01
10.12
8.37
6.76
5.18
3.47
1.53
-0.60
-2.82
-5.00
-7.02
-8.84
-10.46
-11.96
-13.46
-15.03
-16.70
-18.46
-20.34
-22.41
-24.81
-27.69
-31.06
-34.63
-37.81
-39.80
-39.86
-37.67
-33.54
-28.39
-23.40
-19.60
-17.45
-16.68
-16.53
-16.13
-14.85
-12.57
-9.59
-6.39
-3.38
-0.75
1.48
3.38
5.02
6.43
7.65
8.75
9.80
10.76
11.47
11.69
11.17
9.83
7.86
5.58
3.40
1.64
0.45
-0.24
-0.55
-0.68
-0.72
-0.72
-0.74
-0.88
-1.35
-2.47
-4.47
-7.46
-11.31
-15.65
-19.97
-23.74
-26.49
-27.90
-27.81
-26.29
-23.59
-20.19
-16.65
-13.47
-10.93
-9.07
-7.66
-6.42
-5.11
-3.58
-1.80
0.24
2.52
4.97
7.44
9.72
11.54
12.76
13.38
13.58
13.59
13.57
13.49
13.19
12.42
11.03
9.08
6.73
4.25
1.83
-0.46
-2.65
-4.81
-6.94
-9.01
-10.93
-12.68
-14.28
-15.82
-17.48
-19.40
-21.74
-24.57
-27.93
-31.68
-35.53
-38.95
-41.29
-41.99
-40.74
-37.65
-33.23
-28.27
-23.52
-19.50
-16.36
-13.87
-11.62
-9.12
-6.06
-2.36
1.80
6.05
9.98
13.30
15.95
18.03
19.72
21.08
22.09
22.59
22.57
22.15
21.67
21.54
22.05
23.25
24.93
26.74
28.37
29.67
30.72
31.77
33.08
34.74
36.66
38.54
39.93
40.46
39.87
38.04
34.99
30.76
25.45
19.21
12.47
6.01
0.89
-1.87
-1.70
1.12
5.50
9.90
12.92
13.85
12.81
10.60
8.17
6.21
4.97
4.33
4.08
4.02
4.11
4.32
4.58
4.74
4.55
3.83
2.50
0.71
-1.22
-2.88
-3.84
-3.78
-2.64
-0.60
1.86
4.15
5.73
6.19
5.47
3.76
1.46
-0.98
-3.25
-5.22
-6.98
-8.72
-10.73
-13.20
-16.29
-19.92
-23.80
-27.36
-29.88
-30.75
-29.67
-26.88
-23.06
-19.11
-15.83
-13.58
-12.23
-11.31
-10.28
-8.78
-6.80
-4.55
-2.34
-0.33
1.45
3.09
4.64
6.03
7.11
7.71
7.77
7.43
6.94
6.53
6.31
6.21
6.00
5.43
4.31
2.61
0.52
-1.66
-3.55
-4.96
-5.88
-6.60
-7.53
-9.07
-11.44
-14.60
-18.37
-22.46
-26.59
-30.38
-33.35
-34.95
-34.71
-32.55
-28.83
-24.36
-20.05
-16.54
-14.07
-12.40
-11.07
-9.67
-7.96
-6.00
-3.95
-2.03
-0.37
0.97
2.02
2.87
3.58
4.08
4.25
3.86
2.81
1.16
-0.79
-2.64
-4.10
-5.15
-6.05
-7.21
-8.97
-11.34
-14.11
-16.90
-19.39
-21.46
-23.21
-24.84
-26.57
-28.44
-30.39
-32.25
-33.72
-34.55
-34.42
-33.11
-30.51
-26.68
-21.94
-16.80
-11.84
-7.59
-4.32
-1.99
-0.23
1.51
3.75
6.87
11.01
16.06
21.74
27.59
33.10
37.77
41.21
43.32
44.29
44.66
45.08
46.10
47.94
50.45
53.16
55.49
56.98
57.42
56.93
55.78
54.20
52.24
49.77
46.54
42.36
37.24
31.40
25.16
18.90
13.03
7.96
4.24
2.39
2.70
5.02
8.67
12.64
16.05
18.36
19.52
19.82
19.53
18.78
17.52
15.72
13.57
11.48
9.93
9.26
9.39
9.95
10.34
10.02
8.70
6.40
3.48
0.47
-2.12
-3.99
-5.21
-6.12
-7.20
-8.84
-11.09
-13.78
-16.53
-19.05
-21.26
-23.32
-25.51
-28.06
-31.06
-34.42
-37.92
-41.26
-44.03
-45.85
-46.28
-45.09
-42.36
-38.47
-34.01
-29.54
-25.37
-21.53
-17.79
-13.90
-9.73
-5.39
-1.16
2.63
5.72
7.98
9.51
10.44
10.93
11.10
10.99
10.60
9.97
9.24
8.54
7.99
7.55
7.02
6.11
4.61
2.46
-0.10
-2.64
-4.66
-5.85
-6.17
-5.93
-5.69
-6.04
-7.41
-9.94
-13.41
-17.30
-20.91
-23.56
-24.73
-24.19
-22.07
-18.86
-15.21
-11.74
-8.88
-6.70
-4.99
-3.39
-1.58
0.62
3.18
5.92
8.58
10.93
12.79
14.12
14.93
15.32
15.35
15.04
14.41
13.52
12.46
11.37
10.34
9.36
8.26
6.83
4.89
2.44
-0.27
-2.91
-5.17
-6.98
-8.56
-10.32
-12.73
-16.10
-20.45
-25.50
-30.69
-35.34
-38.77
-40.45
-40.15
-38.02
-34.48
-30.19
-25.80
-21.85
-18.63
-16.20
-14.41
-12.96
-11.42
-9.41
-6.67
-3.15
0.96
5.30
9.49
13.22
16.37
18.93
20.97
22.62
24.03
25.34
26.70
28.15
29.63
30.95
31.94
32.53
32.80
32.96
33.19
33.53
33.88
34.04
33.91
33.55
33.20
33.10
33.37
33.89
34.37
34.43
33.80
32.36
30.15
27.26
23.84
20.12
16.51
13.52
11.61
10.99
11.43
12.36
13.14
13.29
12.78
11.90
11.17
11.04
11.69
13.04
14.75
16.43
17.72
18.36
18.29
17.56
16.35
14.88
13.28
11.66
10.02
8.34
6.67
5.03
3.47
1.98
0.48
-1.19
-3.16
-5.50
-8.11
-10.73
-13.07
-14.86
-16.07
-16.82
-17.44
-18.26
-19.54
-21.31
-23.51
-25.97
-28.57
-31.23
-33.78
-35.98
-37.37
-37.52
-36.17
-33.44
-29.86
-26.22
-23.18
-21.06
-19.67
-18.47
-16.87
-14.52
-11.41
-7.84
-4.18
-0.78
2.18
4.64
6.58
7.98
8.80
9.09
8.99
8.73
8.52
8.53
8.74
9.03
9.16
8.89
8.09
6.80
5.22
3.62
2.24
1.18
0.34
-0.49
-1.52
-2.76
-4.09
-5.21
-5.94
-6.32
-6.62
-7.27
-8.62
-10.86
-13.93
-17.56
-21.27
-24.43
-26.39
-26.63
-24.97
-21.76
-17.84
-14.23
-11.79
-10.79
-10.88
-11.28
-11.16
-10.05
-7.90
-5.05
-1.94
1.08
3.85
6.29
8.37
10.02
11.15
11.70
11.68
11.20
10.38
9.31
8.02
6.42
4.41
2.01
-0.54
-2.80
-4.28
-4.70
-4.18
-3.31
-2.89
-3.60
-5.59
-8.46
-11.40
-13.67
-14.90
-15.25
-15.23
-15.42
-16.22
-17.78
-20.06
-22.88
-25.95
-28.76
-30.65
-30.89
-29.02
-25.10
-19.81
-14.27
-9.55
-6.27
-4.38
-3.28
-2.12
-0.24
2.68
6.60
11.26
16.28
21.30
25.88
29.59
32.06
33.15
32.98
31.93
30.40
28.71
26.96
25.16
23.33
21.69
20.52
20.09
20.43
21.28
22.25
22.98
23.33
23.37
23.22
22.94
22.43
21.54
20.13
18.21
15.90
13.27
10.37
7.21
3.92
0.88
-1.34
-2.17
-1.31
1.00
4.09
7.07
9.22
10.19
10.12
9.44
8.62
7.98
7.63
7.60
7.86
8.45
9.36
10.50
11.64
12.44
12.60
12.01
10.82
9.43
8.23
7.48
7.12
6.80
6.09
4.65
2.48
-0.16
-2.78
-4.91
-6.32
-7.07
-7.48
-8.00
-9.01
-10.77
-13.32
-16.52
-20.08
-23.58
-26.48
-28.22
-28.37
-26.83
-23.91
-20.33
-16.94
-14.42
-13.05
-12.56
-12.41
-12.01
-10.97
-9.29
-7.14
-4.82
-2.55
-0.46
1.39
2.91
4.00
4.54
4.51
3.99
3.15
2.23
1.44
0.93
0.76
0.94
1.43
2.11
2.85
3.50
3.93
4.03
3.70
2.83
1.34
-0.78
-3.45
-6.48
-9.67
-12.85
-15.91
-18.80
-21.34
-23.29
-24.28
-24.02
-22.47
-19.94
-16.97
-14.23
-12.17
-10.97
-10.51
-10.44
-10.41
-10.12
-9.39
-8.17
-6.45
-4.34
-1.97
0.47
2.77
4.76
6.33
7.42
8.05
8.29
8.22
7.93
7.50
6.97
6.34
5.50
4.37
2.84
0.97
-1.02
-2.80
-4.01
-4.52
-4.52
-4.46
-4.95
-6.43
-9.07
-12.68
-16.80
-20.95
-24.65
-27.47
-29.04
-29.11
-27.59
-24.71
-21.04
-17.28
-14.13
-11.90
-10.48
-9.38
-8.07
-6.14
-3.49
-0.31
3.12
6.53
9.74
12.67
15.26
17.41
19.03
20.07
20.62
20.83
20.91
20.92
20.86
20.58
20.01
19.12
18.01
16.79
15.52
14.17
12.63
10.78
8.49
5.71
2.40
-1.47
-5.94
-10.99
-16.52
-22.28
-27.77
-32.28
-35.02
-35.33
-33.02
-28.48
-22.75
-17.15
-12.88
-10.56
-10.04
-10.55
-11.07
-10.82
-9.45
-7.11
-4.12
-0.77
2.83
6.67
10.65
14.53
17.89
20.38
21.89
22.62
22.90
23.03
23.07
22.85
22.10
20.60
18.37
15.61
12.61
9.69
7.07
4.81
2.79
0.73
-1.68
-4.65
-8.19
-12.03
-15.70
-18.65
-20.42
-20.75
-19.63
-17.35
-14.46
-11.53
-9.08
-7.32
-6.16
-5.27
-4.23
-2.82
-1.03
0.94
2.88
4.64
6.18
7.51
8.66
9.56
10.12
10.23
9.94
9.37
8.67
7.96
7.24
6.39
5.22
3.68
1.85
-0.01
-1.62
-2.82
-3.63
-4.29
-5.20
-6.72
-9.11
-12.39
-16.35
-20.56
-24.40
-27.28
-28.72
-28.55
-26.98
-24.54
-21.97
-19.93
-18.83
-18.68
-19.10
-19.49
-19.28
-18.14
-16.10
-13.48
-10.74
-8.22
-6.10
-4.41
-3.12
-2.25
-1.85
-1.95
-2.48
-3.25
-4.04
-4.65
-5.01
-5.15
-5.16
-5.11
-5.08
-5.11
-5.28
-5.69
-6.45
-7.66
-9.33
-11.37
-13.51
-15.32
-16.20
-15.58
-13.09
-8.69
-2.84
3.70
10.06
15.54
19.91
23.37
26.48
29.83
33.79
38.43
43.47
48.49
53.08
56.95
59.99
62.18
63.49
63.86
63.20
61.47
58.73
55.21
51.21
47.04
42.89
38.84
34.82
30.76
26.57
22.21
17.69
12.98
8.06
2.88
-2.50
-7.91
-12.95
-17.05
-19.67
-20.44
-19.41
-17.04
-14.11
-11.42
-9.45
-8.26
-7.54
-6.84
-5.85
-4.52
-3.00
-1.50
-0.12
1.20
2.52
3.88
5.19
6.23
6.85
6.98
6.74
6.28
5.71
5.00
4.01
2.57
0.69
-1.47
-3.59
-5.41
-6.87
-8.18
-9.68
-11.79
-14.73
-18.50
-22.85
-27.35
-31.47
-34.62
-36.28
-36.19
-34.40
-31.35
-27.71
-24.12
-20.95
-18.12
-15.27
-11.98
-8.02
-3.54
1.03
5.18
8.54
10.99
12.61
13.62
14.24
14.60
14.74
14.66
14.34
13.81
13.16
12.42
11.61
10.70
9.55
8.07
6.20
4.07
1.89
-0.10
-1.82
-3.36
-5.02
-7.12
-9.87
-13.27
-17.14
-21.19
-25.10
-28.57
-31.25
-32.77
-32.81
-31.24
-28.25
-24.35
-20.18
-16.28
-12.88
-9.90
-7.07
-4.14
-1.02
2.20
5.31
8.15
10.63
12.75
14.47
15.77
16.54
16.76
16.49
15.91
15.27
14.68
14.11
13.39
12.22
10.40
7.93
5.04
2.04
-0.76
-3.23
-5.44
-7.57
-9.82
-12.24
-14.70
-16.93
-18.72
-19.97
-20.83
-21.68
-22.95
-24.99
-27.90
-31.52
-35.38
-38.92
-41.55
-42.84
-42.54
-40.63
-37.33
-33.01
-28.17
-23.30
-18.79
-14.82
-11.33
-8.03
-4.53
-0.54
4.03
8.96
13.86
18.28
21.93
24.75
26.87
28.49
29.74
30.69
31.34
31.70
31.83
31.76
31.46
30.87
29.92
28.63
27.14
25.62
24.09
22.44
20.51
18.28
16.01
14.24
13.53
14.09
15.63
17.46
18.89
19.51
19.39
18.92
18.53
18.50
18.91
19.80
21.31
23.52
26.30
29.09
31.00
31.09
28.89
24.65
19.30
13.95
9.48
6.16
3.72
1.72
-0.11
-1.63
-2.23
-1.12
2.36
8.47
16.82
26.47
36.02
44.00
49.29
51.42
50.70
48.07
44.67
41.44
38.85
36.85
35.15
33.49
31.77
29.99
28.08
25.76
22.53
17.93
11.75
4.16
-4.30
-12.81
-20.61
-27.07
-31.80
-34.72
-35.90
-35.64
-34.39
-32.66
-30.89
-29.30
-27.84
-26.18
-23.90
-20.57
-15.97
-10.29
-4.06
1.85
6.36
8.57
8.02
5.01
0.57
-3.79
-6.56
-6.78
-4.29
0.18
5.41
10.03
12.92
13.42
11.35
6.96
0.90
-5.84
-12.16
-17.03
-19.78
-20.35
-19.20
-17.31
-15.68
-15.16
-16.15
-18.64
-22.21
-26.20
-29.86
-32.46
-33.49
-32.76
-30.50
-27.28
-23.86
-20.86
-18.57
-16.90
-15.43
-13.70
-11.39
-8.46
-5.14
-1.83
1.11
3.47
5.15
6.29
7.04
7.61
8.12
8.50
8.56
8.04
6.72
4.49
1.51
-1.91
-5.38
-8.56
-11.34
-13.77
-16.00
-18.15
-20.19
-22.00
-23.46
-24.62
-25.70
-27.06
-28.96
-31.49
-34.48
-37.68
-40.83
-43.73
-46.21
-48.02
-48.85
-48.38
-46.47
-43.23
-39.09
-34.61
-30.34
-26.61
-23.49
-20.86
-18.51
-16.29
-14.12
-12.02
-10.02
-8.07
-6.02
-3.67
-0.83
2.52
6.17
9.75
12.86
15.22
16.84
17.90
18.74
19.62
20.68
21.85
23.01
24.02
24.82
25.50
26.24
27.30
28.90
31.16
34.01
37.13
40.09
42.42
43.79
44.09
43.37
41.85
39.84
37.72
35.97
35.05
35.25
36.56
38.51
40.32
41.09
40.24
37.67
33.84
29.58
25.82
23.24
22.14
22.40
23.59
25.12
26.44
27.09
26.87
25.75
23.85
21.41
18.71
15.99
13.41
11.09
9.02
7.12
5.23
3.18
0.83
-1.82
-4.58
-7.14
-9.12
-10.35
-10.88
-11.11
-11.62
-12.87
-15.09
-18.18
-21.77
-25.43
-28.76
-31.41
-33.03
-33.30
-32.03
-29.28
-25.54
-21.57
-18.18
-15.89
-14.76
-14.40
-14.19
-13.63
-12.43
-10.62
-8.39
-5.97
-3.60
-1.43
0.35
1.63
2.37
2.62
2.52
2.25
1.98
1.80
1.72
1.70
1.65
1.49
1.18
0.72
0.18
-0.41
-1.04
-1.80
-2.81
-4.17
-5.85
-7.61
-9.16
-10.25
-10.85
-11.17
-11.59
-12.42
-13.82
-15.76
-18.08
-20.61
-23.16
-25.42
-26.93
-27.16
-25.70
-22.57
-18.31
-13.81
-10.03
-7.55
-6.39
-6.11
-6.03
-5.61
-4.63
-3.15
-1.41
0.35
1.98
3.42
4.67
5.68
6.41
6.86
7.08
7.19
7.39
7.80
8.43
9.14
9.71
9.88
9.49
8.55
7.25
5.87
4.69
3.84
3.22
2.55
1.50
-0.16
-2.35
-4.80
-7.14
-9.15
-10.83
-12.45
-14.35
-16.84
-20.03
-23.79
-27.78
-31.54
-34.55
-36.35
-36.67
-35.50
-33.12
-30.04
-26.83
-23.98
-21.76
-20.19
-19.09
-18.20
-17.20
-15.93
-14.35
-12.57
-10.80
-9.21
-7.92
-6.92
-6.12
-5.38
-4.62
-3.85
-3.06
-2.31
-1.60
-0.88
-0.08
0.82
1.79
2.73
3.48
3.93
4.08
4.00
3.87
3.83
4.02
4.51
5.36
6.59
8.17
9.98
11.82
13.42
14.53
14.97
14.70
13.89
12.87
12.25
12.74
14.99
19.36
25.70
33.29
41.06
47.89
52.95
55.85
56.67
55.76
53.58
50.61
47.29
44.05
41.28
39.18
37.76
36.85
36.10
35.21
33.94
32.20
29.93
27.12
23.79
20.09
16.27
12.73
9.81
7.67
6.17
4.96
3.61
1.90
-0.12
-2.16
-3.89
-5.14
-6.00
-6.73
-7.68
-9.09
-11.08
-13.63
-16.69
-20.20
-24.02
-27.84
-31.10
-33.20
-33.63
-32.26
-29.47
-26.03
-22.80
-20.41
-19.04
-18.43
-18.05
-17.42
-16.28
-14.63
-12.64
-10.51
-8.40
-6.37
-4.47
-2.74
-1.22
0.05
1.08
1.87
2.43
2.78
2.90
2.75
2.30
1.47
0.27
-1.29
-3.06
-4.87
-6.51
-7.90
-9.09
-10.22
-11.41
-12.71
-14.00
-15.16
-16.15
-17.09
-18.19
-19.67
-21.56
-23.73
-25.95
-27.94
-29.52
-30.49
-30.56
-29.46
-27.00
-23.28
-18.79
-14.27
-10.41
-7.62
-5.81
-4.51
-3.15
-1.32
1.08
3.82
6.54
8.97
10.91
12.36
13.39
14.08
14.46
14.55
14.33
13.82
13.08
12.26
11.48
10.83
10.28
9.70
8.92
7.80
6.36
4.70
2.98
1.30
-0.33
-1.97
-3.64
-5.28
-6.81
-8.16
-9.42
-10.83
-12.65
-15.09
-18.19
-21.78
-25.55
-29.11
-31.98
-33.73
-34.03
-32.81
-30.31
-27.07
-23.72
-20.77
-18.46
-16.74
-15.36
-14.10
-12.80
-11.44
-10.01
-8.53
-6.99
-5.36
-3.69
-2.02
-0.37
1.28
2.96
4.65
6.26
7.66
8.71
9.37
9.70
9.79
9.74
9.65
9.62
9.80
10.39
11.48
13.02
14.74
16.26
17.24
17.62
17.62
17.69
18.29
19.59
21.40
23.29
24.77
25.47
25.37
24.65
23.68
22.94
22.91
24.03
26.53
30.31
34.82
39.17
42.38
43.77
43.22
41.18
38.42
35.75
33.68
32.32
31.51
30.94
30.34
29.57
28.62
27.53
26.32
24.95
23.40
21.61
19.59
17.46
15.39
13.54
12.03
10.84
9.82
8.76
7.42
5.63
3.28
0.42
-2.74
-5.86
-8.53
-10.49
-11.65
-12.25
