1712257116.00
64.000000
-0.00
-0.00
-0.00
-0.00
-0.00
-0.00
-0.00
-0.00
-0.00
-0.00
0.00
0.01
0.01
-0.00
-0.03
-0.05
-0.05
0.00
0.13
0.36
0.66
1.01
1.37
1.72
2.06
2.40
2.79
3.24
3.80
4.42
5.06
5.66
6.20
6.68
7.15
7.68
8.31
9.14
10.09
11.04
11.88
12.56
13.14
13.76
14.65
15.96
17.92
20.32
22.90
25.38
27.57
29.57
31.68
34.35
37.87
42.60
48.16
54.03
59.61
64.57
69.01
73.44
78.57
84.91
92.96
102.17
111.71
120.69
128.57
135.42
141.89
149.33
156.40
165.29
176.54
190.18
205.02
218.22
225.54
222.45
205.59
174.02
129.95
77.04
19.49
-39.46
-98.07
-155.81
-212.55
-267.91
-321.18
-371.25
-417.60
-459.79
-497.22
-528.68
-552.24
-565.65
-566.95
-555.27
-530.96
-495.93
-452.75
-404.05
-351.97
-297.99
-243.10
-188.25
-134.65
-83.72
-37.19
3.37
36.70
62.16
80.10
92.22
101.57
112.01
126.98
148.03
174.07
201.63
226.15
243.85
253.02
254.21
249.41
240.74
229.55
216.44
201.69
185.93
170.23
155.74
143.14
132.31
122.50
112.69
102.29
91.32
80.37
70.25
61.53
54.34
48.31
42.93
37.55
31.80
25.70
19.62
14.06
9.43
5.87
3.27
1.39
-0.09
-1.31
-2.30
-3.01
-3.39
-3.48
-3.40
-3.32
-3.33
-3.46
-3.64
-3.75
-3.75
-3.71
-3.77
-4.16
-5.02
-6.40
-8.29
-10.54
-12.87
-14.82
-15.86
-15.53
-13.75
-10.87
-7.64
-4.89
-3.18
-2.52
-2.49
-2.54
-2.38
-2.14
-2.30
-3.36
-5.49
-8.36
-11.30
-13.62
-14.87
-14.96
-14.11
-12.64
-10.80
-8.65
-6.12
-3.17
0.12
3.50
6.61
9.12
10.85
11.75
11.94
11.58
10.84
9.87
8.76
7.61
6.46
5.34
4.30
3.40
2.72
2.38
2.48
2.99
3.78
4.63
5.31
5.70
5.79
5.76
5.78
5.96
6.23
6.36
6.06
5.12
3.47
1.33
-1.04
-3.29
-5.17
-6.52
-7.36
-7.78
-7.91
-7.88
-7.76
-7.65
-7.60
-7.64
-7.70
-7.68
-7.41
-6.83
-5.95
-4.98
-4.17
-3.77
-3.87
-4.38
-5.07
-5.64
-5.81
-5.35
-4.22
-2.49
-0.40
1.70
3.41
4.42
4.63
4.15
3.32
2.56
2.20
2.41
3.11
4.00
4.73
5.01
4.77
4.16
3.52
3.21
3.48
4.39
5.81
7.52
9.30
10.98
12.50
13.83
14.95
15.83
16.42
16.72
16.77
16.70
16.63
16.70
16.87
17.12
17.31
17.30
16.99
16.42
15.71
15.00
14.47
14.31
14.76
15.97
17.88
20.08
21.90
22.58
21.75
19.61
16.97
14.84
13.86
13.70
12.94
9.37
0.73
-14.30
-35.31
-59.80
-83.84
-103.07
-114.22
-116.10
-109.78
-97.90
-83.85
-71.16
-62.97
-61.40
-66.57
-75.86
-84.23
-85.79
-76.53
-56.40
-29.93
-4.50
12.68
17.45
9.83
-6.66
-27.02
-46.61
-62.04
-71.20
-72.84
-66.51
-52.70
-33.05
-10.23
12.61
32.33
46.54
54.00
54.98
51.02
44.52
37.91
32.92
30.20
29.33
29.35
29.34
28.90
28.13
27.51
27.52
28.38
29.96
31.82
33.44
34.40
34.50
33.76
32.39
30.71
29.06
27.72
26.89
26.67
27.06
27.96
29.16
30.42
31.47
32.14
32.35
32.11
31.52
30.62
29.41
27.83
25.84
23.48
20.92
18.41
16.25
14.70
13.97
14.17
15.30
17.21
19.61
22.09
24.21
25.64
26.15
25.70
24.26
21.82
18.30
13.63
7.85
1.22
-5.78
-12.50
-18.36
-22.91
-26.03
-27.87
-28.87
-29.54
-30.38
-31.68
-33.47
-35.46
-37.21
-38.30
-38.53
-38.04
-37.20
-36.46
-36.06
-35.93
-35.70
-34.88
-33.00
-29.75
-25.06
-19.07
-12.17
-4.97
1.74
7.14
10.62
12.01
11.65
10.33
8.94
8.19
8.31
9.09
10.02
10.65
10.78
10.56
10.34
10.45
10.97
11.57
11.60
10.28
6.97
1.47
-5.89
-14.23
-22.36
-29.11
-33.67
-35.74
-35.53
-33.56
-30.39
-26.44
-21.96
-17.19
-12.43
-8.16
-4.83
-2.76
-1.92
-1.97
-2.40
-2.76
-2.86
-2.81
-2.94
-3.57
-4.84
-6.65
-8.75
-10.84
-12.68
-14.09
-14.81
-14.55
-13.00
-10.08
-6.13
-1.89
1.67
3.82
4.34
3.67
2.63
2.10
2.57
4.06
6.25
8.69
11.07
13.24
15.25
17.26
19.42
21.67
23.73
25.16
25.59
24.98
23.67
22.26
21.31
20.96
20.89
20.47
19.21
17.02
14.36
12.05
10.80
11.00
12.60
15.11
17.92
20.36
21.88
22.15
21.12
18.99
16.11
12.89
9.72
6.88
4.52
2.68
1.24
0.00
-1.26
-2.66
-4.12
-5.36
-6.00
-5.75
-4.54
-2.56
-0.16
2.32
4.74
7.16
9.81
12.96
16.85
21.62
27.25
33.59
40.23
46.67
52.30
56.69
59.66
61.32
62.05
62.27
62.38
62.66
63.24
64.13
65.19
66.16
66.64
66.19
64.46
61.28
56.70
50.96
44.54
38.07
32.19
27.32
23.52
20.24
16.34
10.32
0.69
-13.41
-31.84
-53.32
-75.78
-96.94
-114.93
-128.66
-137.85
-142.70
-143.66
-141.17
-135.72
-127.97
-118.70
-108.63
-98.23
-87.61
-76.72
-65.69
-55.04
-45.68
-38.57
-34.27
-32.67
-32.88
-33.62
-33.61
-32.00
-28.53
-23.49
-17.48
-11.10
-4.81
1.12
6.55
11.35
15.41
18.72
21.37
23.54
25.40
26.84
27.52
26.97
24.84
21.16
16.38
11.24
6.44
2.44
-0.61
-2.85
-4.47
-5.66
-6.59
-7.39
-8.23
-9.27
-10.63
-12.34
-14.33
-16.48
-18.67
-20.80
-22.77
-24.49
-25.89
-26.93
-27.58
-27.91
-27.93
-27.56
-26.64
-24.91
-22.17
-18.39
-13.79
-8.77
-3.80
0.70
4.52
7.61
10.02
11.93
13.62
15.54
18.29
22.35
27.86
34.35
40.83
46.11
49.24
49.93
48.61
46.12
43.31
40.76
38.62
36.81
35.22
33.84
32.74
31.93
31.32
30.63
29.55
27.84
25.46
22.60
19.57
16.73
14.33
12.44
10.97
9.77
8.70
7.73
6.91
6.33
6.08
6.13
6.42
6.78
7.04
7.04
6.68
6.01
5.16
4.35
3.73
3.30
2.92
2.32
1.32
-0.11
-1.79
-3.42
-4.73
-5.60
-6.10
-6.48
-7.03
-8.04
-9.71
-12.15
-15.34
-19.12
-23.19
-27.17
-30.69
-33.51
-35.51
-36.78
-37.45
-37.61
-37.29
-36.46
-35.14
-33.41
-31.39
-29.19
-26.82
-24.20
-21.21
-17.73
-13.71
-9.18
-4.17
1.28
7.15
13.44
20.05
26.74
33.15
38.89
43.59
47.08
49.31
50.36
50.33
49.32
47.39
44.63
41.21
37.40
33.49
29.70
26.15
22.84
19.71
16.77
14.04
11.60
9.49
7.72
6.23
4.93
3.76
2.69
1.72
0.85
0.04
-0.82
-1.84
-3.11
-4.59
-6.09
-7.29
-7.88
-7.63
-6.54
-4.82
-2.79
-0.79
0.95
2.33
3.35
4.03
4.42
4.53
4.41
4.15
3.84
3.50
3.06
2.45
1.61
0.67
-0.10
-0.38
0.05
1.15
2.59
3.89
4.57
4.41
3.51
2.22
0.99
0.15
-0.18
-0.11
0.11
0.29
0.30
0.17
-0.06
-0.37
-0.79
-1.36
-2.07
-2.82
-3.51
-4.02
-4.35
-4.55
-4.71
-4.86
-4.96
-4.88
-4.51
-3.79
-2.84
-1.85
-1.14
-0.97
-1.45
-2.52
-3.91
-5.32
-6.47
-7.21
-7.57
-7.66
-7.60
-7.44
-7.18
-6.80
-6.34
-5.95
-5.76
-5.80
-5.99
-6.09
-5.90
-5.35
-4.57
-3.82
-3.38
-3.41
-3.87
-4.63
-5.48
-6.28
-6.91
-7.30
-7.39
-7.16
-6.63
-5.91
-5.12
-4.41
-3.81
-3.33
-2.96
-2.70
-2.61
-2.75
-3.11
-3.58
-3.97
-4.11
-3.98
-3.67
-3.42
-3.48
-3.98
-4.88
-5.98
-7.01
-7.78
-8.24
-8.44
-8.53
-8.63
-8.79
-8.99
-9.18
-9.30
-9.35
-9.36
-9.39
-9.50
-9.69
-9.97
-10.25
-10.44
-10.39
-9.89
-8.78
-6.93
-4.35
-1.23
2.17
5.51
8.52
11.03
12.97
14.34
15.18
15.54
15.45
14.98
14.25
13.41
12.60
11.95
11.54
11.35
11.35
11.48
11.67
11.91
12.17
12.46
12.76
13.00
13.09
12.95
12.57
12.01
11.41
10.85
10.37
9.88
9.26
8.40
7.26
5.90
4.43
2.91
1.41
-0.02
-1.24
-2.07
-2.27
-1.74
-0.53
1.11
2.82
4.26
5.22
5.60
5.43
4.79
3.75
2.42
0.94
-0.41
-1.34
-1.50
-0.65
1.27
4.07
7.33
10.48
13.04
14.76
15.72
16.28
16.91
17.96
19.50
21.31
22.97
23.91
23.53
21.29
16.99
11.07
4.72
-0.29
-2.29
-0.57
4.21
10.09
14.60
15.80
13.07
7.23
0.02
-6.81
-12.11
-15.58
-17.48
-18.27
-18.25
-17.56
-16.36
-14.96
-13.86
-13.54
-14.36
-16.24
-18.76
-21.29
-23.25
-24.35
-24.58
-24.21
-23.55
-22.87
-22.34
-22.07
-22.11
-22.51
-23.26
-24.34
-25.73
-27.42
-29.40
-31.59
-33.73
-35.44
-36.28
-35.95
-34.39
-31.85
-28.78
-25.57
-22.47
-19.47
-16.46
-13.33
-10.17
-7.18
-4.62
-2.67
-1.31
-0.37
0.41
1.24
2.25
3.44
4.78
6.25
7.81
9.40
10.87
12.02
12.67
12.72
12.26
11.47
10.53
9.50
8.30
6.77
4.81
2.50
0.03
-2.31
-4.34
-6.01
-7.37
-8.49
-9.34
-9.82
-9.84
-9.42
-8.72
-8.01
-7.54
-7.36
-7.28
-6.97
-6.10
-4.47
-2.21
0.34
2.73
4.61
5.88
6.65
7.19
7.71
8.30
8.92
9.48
9.89
10.21
10.48
10.78
11.04
11.16
10.99
10.50
9.79
9.03
8.42
8.05
7.88
7.83
7.79
7.73
7.72
7.85
8.15
8.60
9.09
9.49
9.73
9.80
9.79
9.80
9.96
10.32
10.87
11.56
12.27
12.89
13.35
13.61
13.66
13.52
13.18
12.61
11.76
10.59
9.04
7.07
4.75
2.28
-0.00
-1.64
-2.24
-1.61
0.11
2.46
4.88
6.90
8.39
9.57
10.83
12.51
14.66
17.03
19.19
20.69
21.29
21.01
20.13
19.05
18.13
17.60
17.44
17.45
17.26
16.50
14.98
12.73
10.08
7.56
5.80
5.38
6.46
8.66
10.92
11.77
9.77
4.09
-5.10
-16.70
-29.05
-40.65
-50.48
-58.19
-63.88
-67.73
-69.89
-70.50
-69.92
-68.75
-67.72
-67.32
-67.50
-67.61
-66.65
-63.63
-58.03
-50.03
-40.37
-30.10
-20.18
-11.25
-3.51
3.19
9.23
14.99
20.75
26.61
32.51
38.26
43.60
48.31
52.24
55.43
57.98
60.09
61.86
63.31
64.33
64.81
64.64
63.78
62.23
59.93
56.79
52.65
47.40
41.13
34.15
27.07
20.66
15.65
12.57
11.62
12.63
15.21
18.85
23.03
27.25
31.01
33.77
34.86
33.69
29.88
23.43
14.85
5.05
-4.92
-14.08
-21.72
-27.49
-31.29
-33.25
-33.64
-32.86
-31.46
-29.99
-28.99
-28.80
-29.56
-31.22
-33.59
-36.45
-39.60
-42.91
-46.38
-50.12
-54.44
-59.70
-66.24
-74.12
-82.96
-91.87
-99.54
-104.51
-105.51
-101.80
-93.37
-80.92
-65.61
-48.76
-31.59
-15.02
0.15
13.17
23.25
29.70
32.19
30.94
26.92
21.67
16.91
14.08
13.88
16.17
20.00
24.08
27.17
28.47
27.81
25.54
22.30
18.76
15.48
12.78
10.88
9.90
9.90
10.75
12.19
13.84
15.38
16.74
18.09
19.80
22.09
24.88
27.73
29.98
31.04
30.64
28.94
26.36
23.40
20.33
17.13
13.50
9.07
3.67
-2.53
-8.92
-14.60
-18.64
-20.47
-20.11
-18.12
-15.35
-12.55
-10.04
-7.75
-5.36
-2.64
0.31
3.18
5.63
7.56
9.19
10.95
13.25
16.22
19.65
23.12
26.16
28.43
29.74
30.07
29.38
27.61
24.64
20.32
14.64
7.84
0.41
-6.88
-13.26
-18.09
-21.17
-22.71
-23.32
-23.63
-24.10
-24.78
-25.37
-25.37
-24.37
-22.25
-19.18
-15.56
-11.83
-8.40
-5.56
-3.54
-2.45
-2.35
-3.17
-4.70
-6.60
-8.46
-9.89
-10.60
-10.48
-9.64
-8.37
-7.14
-6.43
-6.72
-8.24
-10.97
-14.56
-18.39
-21.76
-24.05
-24.87
-24.15
-22.02
-18.75
-14.58
-9.72
-4.34
1.25
6.59
11.11
14.31
15.93
16.13
15.45
14.65
14.48
15.45
17.75
21.14
25.10
28.87
31.65
32.74
31.66
28.34
23.21
17.13
11.26
6.77
4.47
4.61
6.79
10.11
13.47
15.87
16.75
15.97
13.86
11.01
8.15
5.94
4.88
5.19
6.77
9.27
12.12
14.71
16.53
17.22
16.72
15.21
13.12
10.99
9.31
8.39
8.28
8.83
9.80
10.96
12.18
13.38
14.53
15.53
16.28
16.72
16.89
16.86
16.67
16.26
15.42
13.96
11.83
9.25
6.64
4.54
3.32
3.02
3.30
3.54
3.08
1.46
-1.48
-5.59
-10.49
-15.68
-20.60
-24.70
-27.51
-28.74
-28.38
-26.78
-24.55
-22.44
-21.02
-20.54
-20.87
-21.68
-22.58
-23.25
-23.52
-23.28
-22.51
-21.23
-19.53
-17.59
-15.64
-13.87
-12.41
-11.24
-10.21
-9.11
-7.75
-6.00
-3.88
-1.55
0.72
2.61
3.88
4.42
4.26
3.57
2.59
1.58
0.77
0.30
0.17
0.29
0.41
0.27
-0.41
-1.80
-3.94
-6.70
-9.79
-12.76
-15.10
-16.41
-16.47
-15.40
-13.56
-11.44
-9.39
-7.61
-6.07
-4.68
-3.38
-2.17
-1.07
-0.01
1.17
2.74
4.89
7.63
10.76
13.97
16.93
19.47
21.60
23.45
25.17
26.83
28.28
29.27
29.48
28.65
26.67
23.62
19.71
15.33
10.90
6.87
3.57
1.15
-0.43
-1.35
-1.88
-2.23
-2.49
-2.64
-2.54
-2.04
-1.05
0.49
2.53
4.95
7.59
10.31
13.01
15.69
18.41
21.19
23.91
26.21
27.64
27.69
26.02
22.48
17.19
10.47
2.72
-5.58
-13.91
-21.70
-28.41
-33.59
-36.97
-38.52
-38.40
-36.86
-34.17
-30.61
-26.47
-22.12
-17.97
-14.43
-11.75
-10.02
-9.06
-8.57
-8.20
-7.65
-6.78
-5.56
-4.07
-2.47
-1.00
0.14
0.83
1.10
1.17
1.32
1.76
2.54
3.49
4.29
4.64
4.32
3.35
1.85
0.06
-1.81
-3.56
-5.09
-6.35
-7.33
-8.08
-8.66
-9.17
-9.73
-10.51
-11.70
-13.50
-16.15
-19.92
-25.08
-31.95
-40.74
-51.43
-63.59
-76.32
-88.29
-98.01
-104.24
-106.29
-104.24
-98.85
-91.29
-82.70
-73.93
-65.38
-57.02
-48.60
-39.74
-30.14
-19.56
-7.96
4.53
17.52
30.44
42.57
53.21
61.75
67.80
71.26
72.30
71.40
69.22
66.48
63.76
61.37
59.30
57.33
55.23
52.88
50.30
47.62
44.99
42.44
39.94
37.42
34.89
32.36
29.87
27.37
24.73
21.75
18.28
14.29
9.92
5.47
1.30
-2.31
-5.25
-7.53
-9.28
-10.65
-11.73
-12.54
-13.10
-13.35
-13.30
-12.90
-12.14
-11.03
-9.59
-7.90
-6.04
-4.13
-2.22
-0.35
1.49
3.34
5.20
7.08
8.93
10.68
12.19
13.32
13.97
14.11
13.87
13.46
13.12
13.05
13.28
13.75
14.34
14.92
15.42
15.82
16.07
16.10
15.82
15.23
14.41
13.55
12.83
12.37
12.12
11.95
11.67
11.12
10.27
9.21
8.06
6.96
5.97
5.06
4.16
3.19
2.13
1.06
0.11
-0.53
-0.76
-0.57
-0.02
0.76
1.73
2.90
4.37
6.19
8.33
10.64
12.88
14.84
16.37
17.48
18.22
18.68
18.88
18.82
18.42
17.66
16.50
14.93
12.86
10.13
6.55
2.00
-3.53
-9.85
-16.61
-23.38
-29.74
-35.34
-39.96
-43.50
-45.95
-47.35
-47.76
-47.20
-45.78
-43.70
-41.32
-39.08
-37.38
-36.45
-36.29
-36.69
-37.39
-38.27
-39.35
-40.67
-42.14
-43.38
-43.82
-42.86
-40.16
-35.81
-30.25
-24.12
-18.00
-12.20
-6.74
-1.43
3.97
9.57
15.26
20.73
25.64
29.69
32.78
34.96
36.42
37.28
37.57
37.25
36.28
34.73
32.83
30.90
29.16
27.72
26.50
25.34
24.09
22.72
21.25
19.74
18.20
16.62
14.98
13.24
11.43
9.57
7.67
5.69
3.58
1.33
-0.98
-3.18
-5.05
-6.40
-7.12
-7.22
-6.83
-6.08
-5.15
-4.16
-3.21
-2.38
-1.76
-1.39
-1.28
-1.37
-1.51
-1.55
-1.40
-1.03
-0.54
-0.02
0.43
0.84
1.26
1.80
2.44
3.10
3.61
3.86
3.83
3.61
3.34
3.13
2.98
2.83
2.60
2.29
1.99
1.82
1.87
2.12
2.47
2.72
2.73
2.38
1.68
0.68
-0.49
-1.68
-2.73
-3.52
-3.99
-4.16
-4.15
-4.09
-4.08
-4.15
-4.25
-4.30
-4.21
-3.93
-3.46
-2.86
-2.19
-1.54
-0.97
-0.52
-0.19
0.08
0.36
0.70
1.12
1.57
1.99
2.30
2.49
2.55
2.49
2.33
2.07
1.73
1.34
0.94
0.61
0.39
0.28
0.24
0.19
0.07
-0.18
-0.55
-1.00
-1.46
-1.89
-2.24
-2.50
-2.68
-2.78
-2.83
-2.81
-2.74
-2.60
-2.41
-2.18
-1.90
-1.60
-1.24
-0.82
-0.31
0.30
0.99
1.72
2.44
3.05
3.44
3.52
3.25
2.67
1.93
1.21
0.70
0.51
0.65
1.04
1.54
2.01
2.31
2.41
2.32
2.10
1.89
1.80
1.87
2.08
2.28
2.29
1.99
1.40
0.63
-0.15
-0.81
-1.32
-1.76
-2.21
-2.75
-3.35
-3.97
-4.54
-5.03
-5.42
-5.69
-5.80
-5.68
-5.27
-4.55
-3.59
-2.52
-1.47
-0.61
-0.02
0.32
0.46
0.55
0.70
0.94
1.26
1.54
1.73
1.79
1.80
1.83
1.94
2.10
2.25
2.27
2.17
1.97
1.77
1.65
1.65
1.71
1.76
1.72
1.54
1.24
0.88
0.55
0.32
0.21
0.19
0.14
-0.00
-0.33
-0.86
-1.53
-2.25
-2.91
-3.46
-3.87
-4.16
-4.35
-4.44
-4.38
-4.09
-3.53
-2.71
-1.74
-0.81
-0.08
0.35
0.54
0.66
0.86
1.24
1.73
2.17
2.40
2.38
2.13
1.82
1.57
1.45
1.44
1.51
1.60
1.71
1.88
2.08
2.29
2.44
2.45
2.30
2.01
1.67
1.37
1.16
1.04
0.94
0.77
0.45
-0.03
-0.58
-1.06
-1.37
-1.52
-1.64
-1.92
-2.52
-3.45
-4.49
-5.34
-5.68
-5.42
-4.65
-3.59
-2.49
-1.48
-0.59
0.20
0.90
1.46
1.83
2.02
2.13
2.28
2.53
2.83
3.07
3.15
3.02
2.77
2.53
2.44
2.53
2.74
2.96
3.08
3.06
2.93
2.75
2.57
2.39
2.18
1.91
1.56
1.18
0.84
0.59
0.40
0.20
-0.16
-0.74
-1.53
-2.41
-3.22
-3.83
-4.22
-4.45
-4.64
-4.82
-4.97
-4.95
-4.64
-3.99
-3.09
-2.09
-1.13
-0.28
0.49
1.20
1.91
2.57
3.12
3.50
3.66
3.63
3.50
3.32
3.17
3.03
2.91
2.75
2.57
2.35
2.14
1.99
1.94
2.01
2.15
2.31
2.41
2.42
2.27
2.00
1.61
1.18
0.76
0.38
0.05
-0.26
-0.57
-0.91
-1.30
-1.74
-2.24
-2.78
-3.37
-3.96
-4.50
-4.92
-5.16
-5.17
-4.95
-4.49
-3.82
-3.00
-2.11
-1.24
-0.49
0.12
0.62
1.11
1.67
2.32
2.99
3.56
3.92
3.98
3.79
3.46
3.14
2.91
2.81
2.76
2.71
2.63
2.56
2.60
2.84
3.23
3.64
3.85
3.70
3.15
2.35
1.53
0.90
0.56
0.44
0.38
0.22
-0.11
-0.58
-1.09
-1.54
-1.89
-2.18
-2.52
-3.01
-3.68
-4.50
-5.32
-5.98
-6.32
-6.26
-5.78
-4.96
-3.91
-2.73
-1.55
-0.47
0.45
1.14
1.58
1.82
1.94
2.00
2.10
2.27
2.49
2.73
2.87
2.84
2.58
2.16
1.69
1.34
1.24
1.41
1.76
2.12
2.28
2.15
1.75
1.24
0.81
0.58
0.59
0.72
0.82
0.76
0.50
0.12
-0.28
-0.60
-0.82
-1.03
-1.30
-1.70
-2.24
-2.89
-3.58
-4.24
-4.83
-5.29
-5.58
-5.66
-5.50
-5.08
-4.42
-3.55
-2.55
-1.55
-0.64
0.09
0.65
1.09
1.48
1.90
2.30
2.62
2.75
2.64
2.30
1.82
1.29
0.82
0.48
0.27
0.21
0.30
0.53
0.89
1.31
1.69
1.90
1.83
1.47
0.88
0.22
-0.36
-0.73
-0.87
-0.84
-0.73
-0.62
-0.55
-0.54
-0.59
-0.76
-1.08
-1.56
-2.18
-2.85
-3.49
-3.99
-4.30
-4.36
-4.16
-3.74
-3.14
-2.46
-1.77
-1.10
-0.47
0.15
0.72
1.20
1.53
1.71
1.79
1.87
2.00
2.13
2.18
2.08
1.84
1.56
1.40
1.40
1.53
1.66
1.67
1.46
1.08
0.61
0.18
-0.10
-0.17
-0.03
0.27
0.58
0.76
0.70
0.40
-0.08
-0.62
-1.13
-1.59
-2.08
-2.63
-3.24
-3.83
-4.28
-4.51
-4.53
-4.42
-4.26
-4.12
-4.00
-3.84
-3.60
-3.28
-2.92
-2.55
-2.22
-1.94
-1.72
-1.57
-1.54
-1.66
-1.93
-2.30
-2.66
-2.85
-2.72
-2.19
-1.26
-0.06
1.25
2.47
3.51
4.34
4.99
5.47
5.76
5.82
5.62
5.20
4.68
4.19
3.82
3.56
3.34
3.07
2.71
2.24
1.65
0.97
0.20
-0.62
-1.43
-2.10
-2.52
-2.57
-2.21
-1.52
-0.64
0.25
1.01
1.61
2.09
2.48
2.83
3.12
3.33
3.46
3.53
3.61
3.68
3.72
3.64
3.39
2.98
2.54
2.17
1.98
1.94
1.95
1.89
1.70
1.40
1.08
0.86
0.79
0.83
0.88
0.83
0.61
0.26
-0.13
-0.45
-0.65
-0.78
-0.95
-1.28
-1.82
-2.52
-3.26
-3.89
-4.29
-4.43
-4.32
-4.01
-3.55
-2.96
-2.25
-1.43
-0.58
0.22
0.88
1.37
1.74
2.06
2.36
2.60
2.70
2.58
2.25
1.84
1.55
1.54
1.83
2.31
2.75
2.97
2.90
2.60
2.25
1.98
1.85
1.82
1.77
1.62
1.34
0.96
0.55
0.18
-0.15
-0.45
-0.73
-1.00
-1.24
-1.45
-1.67
-1.97
-2.41
-3.01
-3.71
-4.40
-4.98
-5.34
-5.46
-5.33
-4.99
-4.46
-3.75
-2.93
-2.04
-1.15
-0.35
0.34
0.88
1.28
1.54
1.68
1.71
1.65
1.55
1.46
1.43
1.47
1.56
1.65
1.69
1.63
1.47
1.26
1.08
1.03
1.13
1.30
1.39
1.28
0.90
0.31
-0.31
-0.82
-1.11
-1.16
-1.06
-0.96
-0.98
-1.20
-1.62
-2.23
-2.92
-3.59
-4.14
-4.48
-4.61
-4.55
-4.35
-4.02
-3.58
-3.03
-2.40
-1.78
-1.24
-0.82
-0.48
-0.14
0.26
0.73
1.20
1.59
1.80
1.84
1.80
1.77
1.82
1.91
1.95
1.84
1.54
1.12
0.68
0.36
0.22
0.24
0.34
0.39
0.31
0.08
-0.25
-0.55
-0.70
-0.66
-0.50
-0.36
-0.38
-0.66
-1.17
-1.81
-2.44
-3.00
-3.52
-4.04
-4.58
-5.10
-5.49
-5.62
-5.43
-4.95
-4.26
-3.49
-2.75
-2.08
-1.52
-1.07
-0.73
-0.50
-0.37
-0.33
-0.37
-0.49
-0.68
-0.96
-1.30
-1.69
-2.12
-2.54
-2.89
-3.07
-3.01
-2.63
-1.92
-0.94
0.19
1.27
2.17
2.82
3.24
3.54
3.84
4.18
4.54
4.84
4.97
4.87
4.52
3.96
3.30
2.61
1.95
1.34
0.81
0.37
0.11
0.09
0.35
0.86
1.52
2.19
2.73
3.08
3.27
3.38
3.47
3.58
3.70
3.78
3.78
3.70
3.57
3.40
3.26
3.17
3.14
3.16
3.20
3.22
3.16
2.99
2.71
2.31
1.83
1.33
0.84
0.43
0.14
-0.02
-0.04
0.03
0.09
0.07
-0.11
-0.42
-0.78
-1.10
-1.30
-1.39
-1.48
-1.64
-1.95
-2.34
-2.69
-2.84
-2.69
-2.24
-1.57
-0.77
0.08
0.97
1.92
2.94
3.99
4.98
5.84
6.50
6.94
7.20
7.37
7.51
7.71
8.00
8.39
8.84
9.34
9.83
10.28
10.71
11.16
11.72
12.46
13.42
14.54
15.70
16.79
17.73
18.55
19.33
20.18
21.18
22.38
23.76
25.28
26.92
28.61
30.27
31.77
33.00
33.87
34.38
34.57
34.52
34.25
33.77
33.02
31.99
30.65
28.98
26.86
24.03
20.08
14.55
7.08
-2.45
-13.88
-26.67
-40.08
-53.22
-65.25
-75.43
-83.31
-88.69
-91.75
-92.94
-92.90
-92.27
-91.53
-90.91
-90.28
-89.25
-87.36
-84.28
-79.95
-74.61
-68.65
-62.42
-56.04
-49.44
-42.40
-34.80
-26.75
-18.57
-10.69
-3.45
2.99
8.63
13.53
17.75
21.28
24.10
26.25
27.83
29.00
29.94
30.71
31.34
31.74
31.85
31.63
31.12
30.45
29.73
29.04
28.38
27.65
26.74
25.52
23.98
22.23
20.45
18.83
17.51
16.50
15.75
15.16
14.64
14.12
13.55
12.91
12.21
11.47
10.76
10.11
9.51
8.93
8.35
7.79
7.28
6.85
6.51
6.20
5.84
5.40
4.92
4.47
4.11
3.84
3.55
3.12
2.46
1.61
0.69
-0.15
-0.82
-1.28
-1.60
-1.84
-2.08
-2.33
-2.59
-2.84
-3.03
-3.14
-3.11
-2.93
-2.60
-2.13
-1.54
-0.86
-0.08
0.75
1.55
2.20
2.54
2.54
2.26
1.88
1.60
1.55
1.73
2.02
2.27
2.40
2.40
2.33
2.26
2.20
2.18
2.19
2.27
2.42
2.63
2.83
2.91
2.79
2.47
2.01
1.56
1.24
1.11
1.12
1.17
1.16
1.02
0.73
0.33
-0.13
-0.59
-1.03
-1.40
-1.67
-1.82
-1.82
-1.63
-1.28
-0.85
-0.40
-0.04
0.20
0.30
0.30
0.24
0.16
0.09
0.06
0.10
0.20
0.33
0.39
0.27
-0.08
-0.65
-1.32
-1.94
-2.38
-2.62
-2.77
-2.94
-3.22
-3.64
-4.14
-4.61
-4.96
-5.13
-5.11
-4.93
-4.66
-4.36
-4.11
-3.97
-3.96
-4.08
-4.32
-4.66
-5.04
-5.37
-5.55
-5.49
-5.22
-4.83
-4.51
-4.40
-4.53
-4.77
-4.91
-4.73
-4.14
-3.24
-2.28
-1.51
-1.09
-0.99
-1.02
-0.94
-0.57
0.06
0.77
1.27
1.38
1.06
0.48
-0.10
-0.46
-0.56
-0.53
-0.55
-0.77
-1.21
-1.73
-2.16
-2.37
-2.35
-2.19
-2.00
-1.83
-1.66
-1.40
-0.95
-0.30
0.45
1.13
1.55
1.58
1.20
0.53
-0.27
-0.98
-1.45
-1.61
-1.51
-1.30
-1.15
-1.20
-1.46
-1.82
-2.12
-2.22
-2.07
-1.73
-1.31
-0.89
-0.49
-0.07
0.42
0.98
1.52
1.95
2.21
2.30
2.28
2.25
2.24
2.27
2.32
2.35
2.35
2.33
2.32
2.34
2.43
2.59
2.77
2.89
2.88
2.69
2.37
2.05
1.91
2.05
2.43
2.91
3.25
3.28
2.98
2.45
1.86
1.38
1.07
0.87
0.72
0.58
0.42
0.26
0.05
-0.25
-0.70
-1.29
-1.92
-2.43
-2.65
-2.46
-1.87
-0.98
0.02
0.95
1.68
2.13
2.35
2.43
2.49
2.61
2.79
2.98
3.10
3.10
2.99
2.83
2.70
2.63
2.61
2.60
2.55
2.44
2.26
2.04
1.80
1.58
1.41
1.35
1.40
1.48
1.51
1.37
0.99
0.38
-0.36
-1.11
-1.73
-2.14
-2.31
-2.31
-2.23
-2.17
-2.23
-2.43
-2.71
-2.97
-3.09
-2.97
-2.56
-1.92
-1.12
-0.27
0.53
1.21
1.76
2.18
2.45
2.56
2.50
2.30
2.00
1.71
1.52
1.49
1.60
1.79
1.96
2.04
2.03
1.96
1.89
1.84
1.78
1.67
1.48
1.18
0.82
0.43
0.03
-0.34
-0.68
-0.94
-1.10
-1.14
-1.10
-1.05
-1.12
-1.39
-1.88
-2.54
-3.29
-3.99
-4.56
-4.90
-4.93
-4.61
-3.95
-3.05
-2.06
-1.13
-0.32
0.38
1.08
1.82
2.57
3.21
3.58
3.58
3.23
2.66
2.03
1.47
1.02
0.68
0.44
0.29
0.22
0.20
0.17
0.06
-0.16
-0.53
-0.98
-1.46
-1.88
-2.17
-2.31
-2.35
-2.37
-2.45
-2.65
-2.98
-3.40
-3.83
-4.20
-4.43
-4.46
-4.26
-3.85
-3.28
-2.69
-2.24
-2.08
-2.23
-2.62
-3.05
-3.27
-3.11
-2.52
-1.58
-0.44
0.71
1.76
2.65
3.38
3.93
4.24
4.27
4.04
3.65
3.29
3.13
3.20
3.39
3.48
3.31
2.82
2.14
1.44
0.90
0.55
0.30
0.05
-0.29
-0.68
-1.07
-1.37
-1.57
-1.73
-1.90
-2.10
-2.31
-2.44
-2.44
-2.33
-2.18
-2.13
-2.27
-2.64
-3.19
-3.81
-4.37
-4.81
-5.11
-5.27
-5.29
-5.11
-4.68
-3.94
-2.94
-1.79
-0.64
0.36
1.16
1.75
2.17
2.44
2.57
2.56
2.45
2.27
2.08
1.94
1.84
1.79
1.78
1.83
1.93
2.07
2.21
2.30
2.33
2.33
2.37
2.51
2.75
3.01
3.16
3.10
2.78
2.28
1.75
1.33
1.06
0.91
0.74
0.43
-0.07
-0.71
-1.37
-1.94
-2.37
-2.68
-2.86
-2.93
-2.83
-2.53
-2.01
-1.33
-0.60
0.05
0.56
0.95
1.29
1.64
2.04
2.47
2.85
3.09
3.13
2.96
2.64
2.27
1.95
1.76
1.74
1.85
2.00
2.08
2.01
1.74
1.33
0.90
0.58
0.46
0.55
0.75
0.94
0.98
0.78
0.38
-0.16
-0.69
-1.12
-1.44
-1.66
-1.83
-2.00
-2.17
-2.33
-2.46
-2.57
-2.66
-2.71
-2.67
-2.43
-1.96
-1.27
-0.51
0.15
0.59
0.81
0.93
1.09
1.37
1.69
1.94
2.03
1.95
1.81
1.70
1.66
1.61
1.49
1.23
0.87
0.51
0.24
0.08
-0.01
-0.10
-0.24
-0.40
-0.52
-0.53
-0.40
-0.19
0.03
0.12
0.00
-0.35
-0.92
-1.58
-2.21
-2.69
-2.98
-3.14
-3.25
-3.40
-3.63
-3.85
-3.93
-3.76
-3.29
-2.58
-1.80
-1.09
-0.55
-0.13
0.30
0.90
1.71
2.65
3.54
4.14
4.29
4.02
3.47
2.87
2.40
2.16
2.13
2.20
2.28
2.30
2.25
2.17
2.05
1.90
1.71
1.46
1.18
0.93
0.75
0.68
0.71
0.78
0.80
0.73
0.52
0.20
-0.19
-0.62
-1.07
-1.55
-2.03
-2.48
-2.87
-3.20
-3.47
-3.66
-3.72
-3.54
-3.00
-2.10
-0.95
0.21
1.13
1.69
1.93
2.04
2.22
2.55
2.99
3.38
3.60
3.62
3.52
3.42
3.38
3.39
3.37
3.24
3.00
2.70
2.42
2.23
2.11
2.04
1.97
1.89
1.81
1.76
1.74
1.70
1.56
1.26
0.81
0.25
-0.35
-0.90
-1.36
-1.70
-1.93
-2.10
-2.24
-2.40
-2.66
-3.04
-3.56
-4.16
-4.72
-5.09
-5.14
-4.81
-4.13
-3.19
-2.12
-1.04
-0.03
0.83
1.48
1.89
2.06
2.04
1.90
1.73
1.60
1.54
1.55
1.60
1.68
1.72
1.72
1.64
1.47
1.21
0.91
0.62
0.40
0.27
0.22
0.21
0.16
0.04
-0.20
-0.53
-0.94
-1.39
-1.81
-2.18
-2.46
-2.60
-2.60
-2.47
-2.32
-2.26
-2.38
-2.75
-3.32
-3.99
-4.63
-5.10
-5.32
-5.26
-4.90
-4.27
-3.44
-2.49
-1.52
-0.62
0.14
0.79
1.38
1.96
2.55
3.09
3.47
3.61
3.47
3.12
2.69
2.30
2.01
1.84
1.77
1.76
1.81
1.92
2.09
2.30
2.48
2.58
2.54
2.32
1.97
1.55
1.14
0.80
0.53
0.31
0.13
-0.02
-0.08
-0.02
0.15
0.35
0.43
0.29
-0.16
-0.86
-1.73
-2.64
-3.48
-4.18
-4.68
-4.96
-4.99
-4.78
-4.34
-3.70
-2.87
-1.89
-0.86
0.12
0.92
1.48
1.83
2.06
2.27
2.53
2.81
3.07
3.23
3.27
3.22
3.13
3.00
2.85
2.69
2.55
2.48
2.51
2.58
2.59
2.45
2.14
1.75
1.48
1.44
1.64
1.98
2.24
2.32
2.17
1.90
1.61
1.38
1.20
1.04
0.91
0.86
0.99
1.37
1.97
2.64
3.22
3.60
3.81
4.00
4.40
5.20
6.45
8.10
9.96
11.87
13.72
15.51
17.33
19.29
21.45
23.80
26.25
28.70
31.05
33.29
35.53
37.97
40.88
44.48
48.82
53.71
58.76
63.52
67.66
71.16
74.38
77.89
82.26
87.71
93.99
100.36
105.88
109.85
112.19
113.68
115.76
119.98
127.24
137.22
148.15
157.36
162.29
161.34
154.58
143.57
130.70
118.20
107.19
97.53
88.19
78.15
67.15
56.00
46.16
38.83
34.31
31.67
29.39
25.69
19.01
7.77
-9.74
-34.73
-66.28
-99.78
-127.07
-139.03
-129.65
-99.29
-54.60
-5.09
41.63
82.87
120.46
157.20
193.01
223.50
242.00
243.45
227.47
198.62
163.79
128.70
95.53
63.00
28.11
-11.64
-56.80
-105.83
-155.79
-203.81
-248.06
-288.52
-326.78
-365.23
-406.17
-451.23
-501.51
-557.62
-619.29
-684.38
-748.03
-802.73
-840.09
-853.66
-841.38
-806.46
-755.99
-698.12
-639.26
-582.75
-529.24
-478.13
-428.92
-381.58
-336.14
-292.09
-248.37
-203.84
-158.06
-111.54
-65.47
-21.19
20.58
60.03
98.09
135.89
174.32
213.62
253.37
292.80
331.11
367.96
403.82
440.19
479.26
522.93
571.35
621.75
668.30
703.51
720.71
716.43
691.59
650.84
600.56
546.66
493.31
442.91
396.80
355.89
320.76
291.17
265.62
241.57
216.22
187.71
155.82
121.93
88.43
57.64
30.96
8.60
-10.00
-25.34
-36.95
-43.22
-42.03
-32.19
-14.71
6.89
27.45
41.93
47.03
41.86
27.50
5.78
-21.81
-54.61
-92.57
-135.84
-184.54
-238.59
-297.58
-360.09
-422.86
-480.54
-526.57
-555.23
-563.92
-554.38
-532.36
-505.54
-480.73
-461.66
-448.14
-436.87
-423.36
-403.84
-376.51
-341.68
-301.05
-256.71
-210.29
-162.70
-114.36
-65.63
-16.91
31.46
79.57
127.85
176.55
224.91
270.64
310.32
340.46
358.82
365.18
361.21
349.76
333.91
316.38
299.39
284.65
273.28
265.51
260.40
255.85
249.19
238.01
220.95
198.13
170.99
141.81
112.94
86.29
63.03
43.61
28.05
16.19
7.87
2.86
0.63
0.30
0.65
0.47
-1.05
-4.09
-8.11
-12.21
-15.48
-17.42
-18.08
-17.97
-17.84
-18.27
-19.48
-21.26
-23.13
-24.59
-25.36
-25.48
-25.21
-24.84
-24.48
-24.04
-23.28
-22.05
-20.46
-18.81
-17.47
-16.67
-16.33
-16.19
-15.92
-15.32
-14.40
-13.35
-12.39
-11.69
-11.32
-11.22
-11.28
-11.36
-11.35
-11.16
-10.77
-10.23
-9.57
-8.82
-7.91
-6.78
-5.38
-3.81
-2.32
-1.21
-0.72
-0.91
-1.65
-2.67
-3.66
-4.41
-4.83
-4.94
-4.83
-4.66
-4.55
-4.58
-4.80
-5.18
-5.66
-6.21
-6.80
-7.39
-7.93
-8.33
-8.49
-8.38
-8.08
-7.78
-7.67
-7.83
-8.20
-8.61
-8.87
-8.91
-8.79
-8.65
-8.57
-8.52
-8.37
-7.94
-7.11
-5.89
-4.35
-2.69
-1.10
0.22
1.12
1.53
1.52
1.32
1.17
1.31
1.80
2.55
3.36
4.04
4.56
4.93
5.28
5.63
5.94
6.14
6.16
6.06
5.94
5.89
5.90
5.78
5.29
4.30
2.85
1.23
-0.16
-1.02
-1.27
-1.15
-1.03
-1.25
-1.91
-2.83
-3.69
-4.12
-3.94
-3.21
-2.16
-1.09
-0.20
0.48
1.07
1.73
2.53
3.41
4.20
4.70
4.84
4.73
4.57
4.58
4.87
5.39
6.01
6.62
7.21
7.89
8.77
9.89
11.12
12.25
13.07
13.51
13.66
13.68
13.69
13.66
13.48
12.97
12.12
11.04
9.98
9.16
8.65
8.31
7.87
7.07
5.86
4.44
3.18
2.48
2.59
3.49
4.96
6.65
8.28
9.72
10.96
12.09
13.12
14.00
14.67
15.08
15.28
15.32
15.27
15.09
14.72
14.11
13.28
12.36
11.52
10.91
10.63
10.64
10.85
11.10
11.29
11.34
11.27
11.17
11.17
11.32
11.62
11.95
12.10
11.93
11.35
10.45
9.40
8.46
7.80
7.53
7.60
7.83
7.97
7.75
6.98
5.61
3.65
1.17
-1.78
-5.19
-9.09
-13.48
-18.33
-23.58
-29.15
-34.85
-40.34
-45.01
-48.01
-48.46
-45.80
-40.09
-32.20
-23.64
-16.10
-10.96
-8.86
-9.70
-12.76
-17.15
-22.01
-26.70
-30.79
-33.93
-35.90
-36.54
-35.85
-33.99
-31.25
-27.92
-24.30
-20.62
-17.08
-13.89
-11.30
-9.61
-9.07
-9.79
-11.62
-14.16
-16.77
-18.76
-19.59
-19.06
-17.32
-14.81
-12.05
-9.43
-7.07
-4.87
-2.63
-0.18
2.47
5.21
7.89
10.50
13.15
16.01
19.20
22.62
26.02
29.05
31.49
33.33
34.71
35.81
36.68
37.20
37.16
36.41
35.02
33.28
31.61
30.36
29.64
29.22
28.66
27.49
25.43
22.57
19.29
16.06
13.25
10.94
8.98
7.11
5.15
3.11
1.12
-0.72
-2.43
-4.17
-6.16
-8.51
-11.15
-13.85
-16.32
-18.35
-19.86
-20.91
-21.62
-22.10
-22.36
-22.40
-22.17
-21.68
-20.96
-20.00
-18.80
-17.33
-15.59
-13.63
-11.59
-9.61
-7.80
-6.16
-4.66
-3.28
-2.06
-1.16
-0.72
-0.81
-1.34
-2.11
-2.92
-3.63
-4.23
-4.75
-5.21
-5.54
-5.65
-5.48
-5.08
-4.62
-4.32
-4.36
-4.77
-5.43
-6.12
-6.60
-6.71
-6.43
-5.89
-5.27
-4.81
-4.63
-4.74
-5.01
-5.20
-5.07
-4.48
-3.45
-2.14
-0.79
0.41
1.37
2.14
2.93
4.03
5.66
7.92
10.75
13.89
16.98
19.63
21.52
22.55
22.80
22.56
22.22
22.16
22.60
23.54
24.79
26.05
27.04
27.60
27.77
27.72
27.64
27.69
27.85
27.91
27.55
26.42
24.31
21.24
17.41
13.18
8.78
4.14
-1.25
-8.37
-18.45
-32.86
-52.73
-78.62
-110.10
-145.62
-182.59
-217.79
-248.03
-270.71
-284.07
-287.16
-279.47
-260.61
-230.36
-189.14
-138.63
-82.18
-24.46
29.63
76.32
113.96
143.05
165.39
183.00
197.07
207.74
214.72
218.03
218.47
217.35
215.88
214.57
213.23
211.23
208.13
204.01
199.27
194.12
188.08
179.90
168.07
151.91
132.22
111.47
93.30
81.32
77.77
82.55
93.10
105.17
114.60
118.28
114.86
104.61
88.74
68.51
44.33
15.72
-18.09
-56.78
-99.56
-145.85
-195.64
-249.02
-305.04
-360.62
-410.14
-446.30
-461.19
-450.24
-414.21
-358.72
-291.40
-218.82
-144.98
-71.74
-0.37
68.34
131.87
186.24
227.72
254.87
268.77
271.66
265.15
241.05
195.92
134.67
69.46
12.66
-28.50
-52.75
-63.01
-64.44
-62.57
-60.22
-58.58
-58.01
-58.31
-58.55
-57.37
-53.73
-48.04
-43.01
-41.24
-45.20
-55.86
-72.01
-87.48
-93.98
-84.34
-56.01
-13.23
35.84
80.56
110.72
119.06
103.15
66.49
17.63
-32.65
-75.05
-102.58
-113.35
-111.25
-103.82
-98.71
-99.52
-104.64
-108.65
-107.36
-96.89
-75.79
-45.78
-10.41
20.93
39.21
43.04
43.33
46.39
54.97
69.53
86.92
104.86
121.50
137.30
154.95
176.38
199.49
219.80
231.70
230.45
214.76
187.36
154.89
126.08
106.81
97.06
93.34
90.68
84.45
71.55
50.45
17.43
-24.13
-65.28
-97.35
-116.50
-124.32
-124.88
-121.68
-116.78
-111.05
-103.58
-94.57
-85.90
-79.52
-76.05
-74.87
-74.65
-74.39
-75.51
-77.24
-80.04
-85.48
-95.08
-108.98
-125.14
-139.38
-142.62
-131.08
-103.77
-64.51
-20.84
18.74
48.09
65.30
72.27
72.67
69.48
64.99
60.03
55.04
50.65
47.97
48.26
52.24
59.61
68.13
75.05
75.66
65.92
43.95
11.54
-26.31
-63.30
-94.62
-119.06
-137.86
-152.73
-163.02
-165.12
-154.20
-127.91
-88.77
-44.04
-3.12
26.62
42.25
45.56
40.82
32.27
21.74
8.68
-8.52
-30.94
-58.00
-87.49
-116.00
-140.52
-157.05
-162.38
-155.01
-135.32
-105.30
-67.75
-25.63
18.42
61.84
102.21
136.95
163.94
182.28
192.59
196.97
198.12
198.38
199.07
200.49
201.98
202.31
200.17
194.44
184.40
170.39
153.62
135.98
119.30
104.45
91.10
78.17
64.53
49.60
33.74
18.01
3.66
-8.10
-16.46
-20.95
-21.41
-18.05
-11.35
-2.06
8.59
18.88
26.46
28.51
22.56
7.62
-14.96
-41.56
-67.50
-88.81
-103.29
-110.66
-111.95
-108.15
-99.51
-85.49
-65.57
-40.19
-11.53
16.96
41.47
58.80
67.07
66.26
57.96
44.82
29.79
15.15
3.18
-3.81
-3.93
3.49
17.11
33.60
48.44
57.20
56.09
44.58
25.61
4.38
-13.83
-25.43
-29.27
-26.92
-22.17
-21.55
-30.07
-49.27
-77.38
-110.71
-145.13
-177.09
-204.58
-227.16
-247.77
-268.13
-287.05
-300.90
-305.61
-298.23
-277.51
-244.54
-189.31
-114.52
-34.07
36.02
87.80
122.06
143.29
155.66
161.68
163.30
160.30
154.06
147.79
144.74
145.65
148.35
150.66
148.65
140.51
125.45
105.92
86.72
72.55
65.48
64.60
67.35
70.74
73.02
72.46
68.47
61.16
50.57
35.62
15.59
-9.25
-36.83
-62.83
-82.96
-94.61
-98.04
-95.94
-91.99
-88.59
-85.69
-81.88
-75.56
-66.53
-56.33
-47.68
-42.91
-43.82
-52.06
-65.72
-82.29
-98.63
-110.27
-111.66
-98.25
-68.71
-27.93
14.34
46.62
59.40
48.42
16.35
-29.64
-82.25
-135.33
-184.46
-225.97
-255.77
-269.74
-265.32
-242.38
-204.45
-158.45
-109.41
-66.96
-38.66
-25.32
-17.99
-9.53
3.10
20.52
38.61
55.53
70.70
85.81
103.94
127.57
156.74
189.46
221.98
249.13
266.42
270.53
261.61
243.05
219.74
195.76
173.80
154.74
137.90
122.63
108.54
96.54
87.87
83.03
81.20
81.09
81.49
81.43
80.76
79.51
78.20
76.82
74.90
72.13
69.02
66.46
64.93
64.69
65.68
68.40
72.86
78.69
85.70
94.03
103.30
112.07
118.86
122.64
123.67
121.75
115.92
105.28
89.33
67.56
39.12
3.90
-40.82
-90.09
-135.22
-171.87
-202.70
-230.96
-255.25
-274.28
-287.43
-295.54
-300.28
-304.35
-309.54
-314.33
-313.75
-302.12
-276.27
-236.70
-187.75
-135.80
-88.39
-51.89
-29.13
-18.38
-14.66
-11.96
-5.03
8.84
29.13
52.33
74.36
93.29
110.50
129.18
151.74
178.19
205.60
229.32
244.58
248.61
242.11
229.30
216.39
209.35
211.99
224.47
243.38
262.63
275.55
276.95
264.39
238.18
200.57
154.85
104.66
53.98
7.05
-32.02
-60.28
-77.13
-84.83
-88.03
-92.08
-101.05
-116.19
-135.74
-156.07
-173.18
-184.17
-187.57
-183.14
-171.44
-153.70
-132.16
-110.34
-92.57
-82.85
-83.37
-93.40
-109.49
-126.79
-140.86
-149.23
-151.82
-150.33
-147.16
-144.62
-144.55
-148.41
-156.96
-169.74
-184.56
-197.64
-204.68
-202.74
-191.66
-174.33
-155.40
-139.04
-127.05
-118.30
-109.54
-97.34
-79.66
-56.60
-29.97
-2.28
24.32
48.62
70.32
89.61
106.68
121.61
134.55
146.14
157.75
171.35
188.45
209.01
230.71
249.27
260.10
260.42
250.74
234.86
218.21
205.42
198.39
195.90
194.89
192.45
187.29
180.02
172.16
164.85
158.13
151.31
143.79
135.71
127.73
120.19
112.22
101.76
86.49
65.30
39.12
10.73
-16.46
-39.95
-58.91
-74.06
-86.69
-97.82
-107.98
-117.47
-126.75
-136.45
-147.10
-158.51
-169.72
-179.20
-185.41
-187.24
-184.04
-175.86
-163.14
-146.98
-128.92
-110.86
-94.69
-81.79
-72.81
-67.78
-66.28
-67.70
-71.55
-77.60
-86.17
-98.18
-114.74
-136.49
-162.60
-190.38
-215.59
-233.64
-241.19
-237.13
-222.87
-201.62
-177.47
-154.29
-135.03
-121.43
-113.69
-110.63
-109.69
-107.89
-102.56
-92.49
-78.08
-61.23
-44.43
-29.91
-18.88
-11.55
-7.38
-5.54
-5.21
-5.73
-6.59
-7.25
-7.10
-5.61
-2.50
2.08
7.69
13.83
20.26
27.18
35.15
44.78
56.36
69.62
83.77
97.74
110.57
121.73
131.21
139.35
146.60
153.23
159.14
163.91
166.99
167.97
166.77
163.74
159.56
154.99
150.65
146.79
143.35
140.01
136.28
131.68
125.76
118.16
108.67
97.32
84.35
70.26
55.68
41.27
27.73
15.69
5.75
-1.60
-6.13
-8.00
-7.82
-6.52
-5.18
-4.59
-5.03
-6.07
-6.72
-5.67
-1.80
5.44
15.80
28.27
41.17
52.51
60.29
62.94
59.75
51.07
38.29
23.27
7.80
-7.00
-20.72
-33.29
-44.45
-53.36
-58.83
-59.85
-56.34
-49.24
-40.28
-31.27
-23.50
-17.53
-13.33
-10.57
-8.86
-7.83
-7.08
-6.28
-5.21
-3.87
-2.49
-1.41
-0.89
-1.06
-1.86
-3.18
-4.89
-6.85
-8.83
-10.47
-11.35
-11.06
-9.31
-6.03
-1.39
4.13
9.79
14.68
17.85
18.65
16.86
12.85
7.42
1.57
-3.81
-8.17
-11.31
-13.34
-14.54
-15.19
-15.59
-15.97
-16.54
-17.40
-18.50
-19.64
-20.49
-20.61
-19.67
-17.50
-14.22
-10.28
-6.29
-2.87
-0.47
0.75
0.91
0.32
-0.63
-1.57
-2.26
-2.60
-2.71
-2.89
-3.51
-4.83
-6.88
-9.35
-11.69
-13.28
-13.59
-12.39
-9.80
-6.18
-2.09
1.90
5.31
7.89
9.59
10.58
11.12
11.42
11.55
11.48
11.17
10.71
10.36
10.48
11.35
13.06
15.37
17.85
19.92
21.14
21.23
20.15
18.07
15.28
12.17
9.13
6.51
4.49
3.10
2.25
1.78
1.59
1.72
2.31
3.50
5.31
7.51
9.62
10.96
10.83
8.66
4.19
-2.39
-10.44
-18.98
-26.88
-33.13
-37.02
-38.33
-37.26
-34.34
-30.24
-25.62
-20.96
-16.59
-12.65
-9.21
-6.32
-4.06
-2.51
-1.70
-1.54
-1.81
-2.15
-2.21
-1.76
-0.81
0.38
1.37
1.74
1.27
0.07
-1.41
-2.62
-3.04
-2.47
-1.04
0.86
2.76
4.29
5.25
5.60
5.43
4.92
4.30
3.84
3.72
3.91
4.08
3.74
2.34
-0.36
-4.27
-8.87
-13.38
-16.98
-18.97
-18.88
-16.58
-12.39
-7.03
-1.56
2.93
5.66
6.41
5.60
4.02
2.48
1.44
0.83
0.23
-0.89
-2.84
-5.51
-8.48
-11.14
-13.06
-14.06
-14.30
-14.09
-13.66
-13.04
-12.10
-10.60
-8.46
-5.76
-2.80
0.12
2.76
5.08
7.17
9.15
11.06
12.76
13.88
14.00
12.84
10.48
7.39
4.34
2.06
0.95
0.87
1.33
1.69
1.56
0.88
-0.07
-0.96
-1.60
-1.97
-2.18
-2.29
-2.26
-2.03
-1.66
-1.36
-1.45
-2.14
-3.38
-4.81
-5.86
-6.10
-5.39
-3.97
-2.28
-0.77
0.38
1.24
2.06
3.08
4.39
5.89
7.41
8.73
9.67
10.05
9.78
8.82
7.40
5.99
5.26
5.87
8.19
12.10
16.99
21.88
25.81
28.12
28.65
27.77
26.21
24.85
24.44
25.36
27.54
30.45
33.29
35.22
35.61
34.21
31.14
26.78
21.62
16.12
10.71
5.85
1.99
-0.43
-1.16
-0.26
1.83
4.44
6.83
8.48
9.22
9.20
8.79
8.32
8.02
7.97
8.10
8.27
8.23
7.72
6.46
4.31
1.30
-2.28
-6.02
-9.49
-12.45
-14.82
-16.68
-18.10
-19.08
-19.49
-19.15
-18.01
-16.17
-13.92
-11.62
-9.62
-8.14
-7.27
-6.98
-7.12
-7.48
-7.75
-7.65
-6.98
-5.80
-4.43
-3.33
-2.91
-3.29
-4.27
-5.38
-6.13
-6.22
-5.63
-4.56
-3.25
-1.92
-0.69
0.35
1.14
1.60
1.70
1.49
1.11
0.75
0.52
0.47
0.55
0.63
0.60
0.33
-0.20
-0.97
-1.87
-2.70
-3.28
-3.45
-3.18
-2.56
-1.80
-1.11
-0.65
-0.49
-0.55
-0.71
-0.84
-0.89
-0.82
-0.64
-0.35
0.09
0.66
1.24
1.65
1.64
1.07
0.00
-1.31
-2.44
-3.03
-2.88
-2.06
-0.89
0.20
0.92
1.12
0.96
0.67
0.50
0.52
0.66
0.73
0.63
0.36
0.08
-0.06
-0.00
0.13
0.16
-0.09
-0.59
-1.20
-1.72
-1.99
-2.01
-1.86
-1.64
-1.35
-0.92
-0.26
0.71
1.95
3.29
4.46
5.20
5.30
4.70
3.53
2.04
0.52
-0.84
-2.03
-3.18
-4.51
-6.14
-8.05
-9.98
-11.57
-12.45
-12.40
-11.45
-9.81
-7.82
-5.83
-3.99
-2.34
-0.78
0.77
2.29
3.62
4.59
5.09
5.16
4.97
4.74
4.57
4.42
4.10
3.41
2.27
0.83
-0.64
-1.78
-2.36
-2.36
-1.96
-1.50
-1.30
-1.51
-2.05
-2.64
-2.90
-2.56
-1.57
-0.12
1.41
2.63
3.29
3.32
2.86
2.12
1.28
0.51
-0.06
-0.31
-0.17
0.27
0.77
0.99
0.64
-0.39
-1.80
-3.06
-3.51
-2.68
-0.40
3.08
7.23
11.35
14.72
16.75
17.08
15.67
12.86
9.25
5.55
2.35
-0.04
-1.61
-2.58
-3.28
-3.95
-4.69
-5.54
-6.46
-7.40
-8.30
-9.04
-9.51
-9.60
-9.31
-8.70
-7.88
-6.93
-5.80
-4.40
-2.62
-0.46
1.94
4.26
6.10
7.07
6.91
5.60
3.40
0.77
-1.71
-3.56
-4.50
-4.52
-3.85
-2.86
-1.91
-1.26
-0.99
-1.00
-1.07
-0.89
-0.20
1.12
3.00
5.19
7.32
9.02
10.06
10.37
10.09
9.40
8.48
7.42
6.20
4.78
3.17
1.48
-0.08
-1.31
-2.09
-2.41
-2.36
-2.06
-1.57
-0.91
-0.05
0.97
2.03
2.91
3.35
3.24
2.66
1.86
1.19
0.89
1.00
1.27
1.32
0.81
-0.39
-2.15
-4.14
-5.99
-7.42
-8.29
-8.59
-8.39
-7.77
-6.84
-5.84
-5.07
-4.89
-5.49
-6.78
-8.42
-9.91
-10.83
-11.04
-10.69
-10.07
-9.47
-8.92
-8.31
-7.43
-6.25
-4.95
-3.86
-3.28
-3.26
-3.61
-3.99
-4.10
-3.84
-3.33
-2.82
-2.52
-2.44
-2.48
-2.42
-2.12
-1.56
-0.90
-0.41
-0.36
-0.91
-2.03
-3.46
-4.79
-5.58
-5.52
-4.52
-2.82
-0.85
0.94
2.16
2.64
2.43
1.75
0.93
0.34
0.28
0.86
1.99
3.42
4.81
5.91
6.58
6.83
6.70
6.25
5.49
4.45
3.20
1.91
0.84
0.23
0.24
0.79
1.58
2.15
2.02
0.93
-1.04
-3.39
-5.44
-6.50
-6.19
-4.59
-2.14
0.47
2.56
3.64
3.57
2.57
1.13
-0.11
-0.61
-0.13
1.25
3.15
5.04
6.50
7.25
7.17
6.30
4.70
2.50
-0.09
-2.76
-5.16
-7.02
-8.22
-8.90
-9.34
-9.79
-10.33
-10.73
-10.58
-9.47
-7.22
-4.05
-0.49
2.83
5.39
7.00
7.80
8.07
8.10
7.98
7.63
6.89
5.69
4.10
2.33
0.67
-0.65
-1.53
-1.98
-2.14
-2.15
-2.14
-2.15
-2.19
-2.18
-2.04
-1.69
-1.11
-0.33
0.55
1.40
2.06
2.43
2.41
1.96
1.09
-0.04
-1.11
-1.73
-1.53
-0.41
1.37
3.24
4.51
4.72
3.81
2.17
0.48
-0.59
-0.61
0.47
2.38
4.69
6.98
8.90
10.21
10.76
10.45
9.23
7.19
4.57
1.79
-0.64
-2.27
-2.92
-2.79
-2.41
-2.45
-3.35
-5.09
-7.21
-9.01
-9.91
-9.75
-8.79
-7.54
-6.40
-5.50
-4.65
-3.59
-2.24
-0.82
0.22
0.41
-0.50
-2.40
-4.93
-7.54
-9.80
-11.44
-12.49
-13.17
-13.76
-14.39
-14.94
-15.05
-14.25
-12.21
-8.92
-4.71
-0.18
4.07
7.64
10.43
12.54
14.13
15.23
15.72
15.41
14.17
12.12
9.64
7.24
5.27
3.80
2.70
1.72
0.74
-0.23
-0.96
-1.16
-0.67
0.44
1.90
3.44
4.88
6.18
7.36
8.47
9.65
10.99
12.26
13.06
12.99
11.78
9.49
6.37
3.11
0.68
-0.12
0.49
1.56
1.96
0.91
-1.58
-5.10
-8.42
-9.89
-8.32
-4.42
-0.16
2.38
1.89
-1.72
-8.12
-15.82
-22.76
-27.22
-29.78
-32.30
-36.54
-43.74
-54.46
-69.64
-88.95
-110.20
-129.44
-143.38
-148.78
-142.66
-123.29
-84.93
-29.69
33.02
90.61
142.91
194.06
245.94
297.23
343.12
376.67
390.92
383.78
359.70
327.81
295.82
267.18
240.38
210.51
172.55
123.85
66.54
6.35
-50.55
-101.63
-147.89
-191.86
-235.85
-280.78
-326.86
-373.65
-421.00
-469.19
-519.18
-570.33
-618.70
-657.29
-678.00
-674.83
-646.00
-594.64
-527.64
-453.49
-379.38
-309.50
-245.03
-185.38
-129.43
-76.18
-24.77
25.85
76.90
129.64
184.75
241.45
296.99
346.97
386.57
412.25
423.17
421.48
411.36
397.11
381.52
365.22
347.41
327.18
304.74
281.58
259.68
240.25
223.01
206.17
187.34
164.69
137.85
108.14
78.21
51.01
28.70
11.83
-0.72
-11.17
-21.58
-32.84
-44.21
-53.83
-59.87
-61.63
-59.94
-56.68
-53.80
-52.34
-52.15
-52.36
-52.25
-51.73
-51.31
-51.44
-51.95
-51.88
-49.93
-45.17
-37.55
-27.92
-17.59
-7.69
1.20
9.03
15.98
22.11
27.18
30.83
32.90
33.61
33.58
33.67
34.64
36.91
40.44
44.74
49.00
52.31
53.89
53.26
50.43
45.84
40.26
34.48
29.01
23.97
19.08
13.94
8.25
2.01
-4.51
-10.94
-17.01
-22.59
-27.63
-31.96
-35.15
-36.65
-36.04
-33.36
-29.21
-24.56
-20.32
-17.00
-14.51
-12.37
-10.07
-7.31
-4.11
-0.62
3.05
6.88
10.88
14.85
18.39
20.97
22.15
21.86
20.33
17.96
15.03
11.59
7.49
2.63
-2.95
-8.90
-14.74
-19.97
-24.16
-26.93
-27.95
-27.11
-24.75
-21.71
-19.15
-18.03
-18.52
-19.81
-20.43
-18.98
-14.93
-8.79
-1.85
4.65
10.03
14.36
18.06
21.42
24.33
26.39
27.29
27.07
26.11
24.94
23.99
23.26
22.42
20.91
18.24
14.21
9.04
3.31
-2.23
-6.97
-10.64
-13.36
-15.53
-17.51
-19.45
-21.20
-22.37
-22.58
-21.64
-19.68
-17.13
-14.53
-12.27
-10.44
-8.79
-6.94
-4.65
-1.98
0.68
2.78
3.90
3.99
3.38
2.60
2.16
2.31
3.05
4.14
5.28
6.24
6.87
7.10
6.92
6.30
5.19
3.54
1.33
-1.40
-4.48
-7.71
-10.87
-13.89
-16.76
-19.60
-22.46
-25.24
-27.69
-29.37
-29.81
-28.57
-25.44
-20.51
-14.15
-7.04
0.00
6.23
11.11
14.50
16.64
18.03
19.24
20.64
22.35
24.19
25.87
27.14
27.93
28.33
28.55
28.76
29.05
29.37
29.59
29.56
29.12
28.14
26.46
23.93
20.48
16.15
11.15
5.77
0.32
-4.93
-9.93
-14.75
-19.60
-24.56
-29.50
-34.05
-37.69
-40.01
-40.87
-40.47
-39.12
-37.02
-34.10
-30.14
-24.98
-18.83
-12.26
-5.98
-0.53
4.01
7.96
11.71
15.42
18.81
21.35
22.63
22.68
22.02
21.41
21.48
22.31
23.42
23.98
23.25
20.81
16.72
11.33
5.06
-1.80
-9.03
-16.48
-23.85
-30.72
-36.59
-40.97
-43.52
-44.09
-42.85
-40.31
-37.17
-34.15
-31.70
-29.81
-28.02
-25.72
-22.47
-18.24
-13.42
-8.52
-3.95
0.12
3.71
6.90
9.70
12.12
14.23
16.20
18.17
20.19
22.06
23.48
24.21
24.17
23.42
21.99
19.69
16.11
10.91
4.02
-4.17
-12.99
-21.62
-29.34
-35.43
-39.06
-39.28
-35.47
-27.98
-18.48
-9.53
-3.59
-1.79
-3.34
-6.01
-7.33
-5.83
-1.59
4.22
10.22
15.58
20.24
24.44
28.22
31.16
32.64
32.30
30.39
27.68
25.10
23.35
22.57
22.32
21.72
19.81
16.01
10.52
4.39
-0.86
-3.98
-4.75
-4.10
-3.64
-4.75
-7.78
-11.91
-15.66
-17.68
-17.41
-15.10
-11.45
-7.15
-2.67
1.71
5.63
8.69
10.66
11.64
12.10
12.63
13.57
14.84
16.07
16.87
17.12
17.19
17.78
19.79
24.15
31.49
41.84
54.26
66.79
77.11
83.19
84.03
80.00
72.58
63.61
54.47
45.60
36.83
28.37
21.06
15.91
13.16
11.55
8.43
0.66
-14.19
-36.93
-66.09
-98.80
-131.95
-162.78
-188.59
-206.31
-212.66
-205.04
-182.68
-146.53
-99.75
-47.20
5.61
53.99
95.03
127.54
151.18
161.63
154.73
129.87
91.98
49.40
10.17
-20.41
-40.42
-51.05
-55.49
-56.49
-55.54
-52.85
-48.33
-42.29
-35.83
-30.42
-27.35
-27.15
-28.67
-30.05
-29.82
-27.80
-24.78
-21.58
-18.38
-14.83
-10.58
-5.45
0.43
6.87
14.05
22.53
32.66
43.66
53.09
57.62
54.85
44.69
29.75
14.13
1.56
-6.13
-9.44
-10.29
-10.76
-11.76
-13.08
-13.83
-13.20
-11.23
-8.72
-6.85
-6.58
-8.22
-11.28
-14.75
-17.59
-19.22
-19.92
-20.53
-22.27
-25.78
-31.25
-38.20
-45.94
-54.05
-62.02
-69.25
-74.65
-76.84
-74.53
-67.32
-56.12
-42.94
-30.04
-18.85
-9.44
-0.67
8.79
19.46
30.59
40.46
47.37
50.46
50.10
47.55
44.32
41.47
39.44
38.17
37.27
36.50
35.87
35.37
34.73
33.79
32.45
30.66
28.88
27.85
28.24
30.16
32.73
34.11
32.10
24.78
11.51
-6.36
-25.63
-42.27
-52.93
-56.40
-54.15
-49.32
-45.56
-45.34
-49.00
-55.16
-61.74
-67.16
-70.92
-74.80
-79.56
-85.15
-90.94
-95.78
-98.79
-99.59
-98.22
-94.89
-89.97
-84.12
-78.98
-76.85
-79.51
-86.81
-95.84
-101.52
-98.44
-82.88
-54.10
-14.69
30.44
75.85
116.80
150.15
174.33
189.18
195.66
195.53
190.68
182.61
172.19
159.88
146.18
131.90
117.71
104.01
90.84
77.95
65.38
53.84
44.65
39.39
38.57
40.94
44.20
46.17
45.70
43.10
39.92
38.22
40.54
47.95
59.49
73.07
86.58
98.55
108.24
115.73
121.76
128.31
135.82
142.38
144.89
141.09
130.57
114.71
96.02
77.25
62.01
51.75
45.39
40.85
36.54
31.19
23.02
9.65
-19.82
-65.10
-114.16
-152.88
-175.07
-182.45
-180.11
-173.07
-164.54
-155.61
-144.68
-131.17
-116.80
-104.20
-94.98
-89.09
-85.45
-82.61
-79.23
-73.46
-65.01
-55.51
-47.16
-41.22
-37.71
-35.86
-34.63
-33.11
-30.03
-25.16
-19.48
-14.43
-10.85
-8.82
-7.98
-7.67
-7.29
-6.06
-3.74
-0.76
2.08
4.17
5.24
5.31
4.73
4.02
3.81
4.53
6.10
8.05
9.70
10.48
10.03
8.56
6.63
5.03
4.35
4.72
5.60
5.94
4.61
0.73
-5.46
-13.10
-20.88
-27.80
-33.30
-37.67
-41.75
-46.02
-51.37
-58.10
-66.38
-75.96
-85.50
-92.24
-92.47
-82.96
-62.80
-34.63
-4.02
22.80
41.13
49.73
50.73
47.89
44.42
41.70
39.31
36.37
32.62
28.81
26.17
25.47
26.41
27.80
28.31
26.92
23.75
19.69
16.00
13.67
13.06
13.73
14.75
15.14
14.31
12.33
9.79
7.46
5.95
5.47
5.77
6.30
6.53
6.14
5.18
3.93
2.79
2.02
1.72
1.77
1.94
2.03
1.96
1.73
1.47
1.24
1.09
0.99
0.91
0.86
0.92
1.17
1.65
2.32
3.03
3.57
3.79
3.69
3.45
3.38
3.74
4.68
6.07
7.57
8.74
9.28
9.18
8.76
8.54
9.04
10.47
12.66
15.06
17.04
18.14
18.30
17.84
17.34
17.39
18.44
20.78
24.42
28.92
33.12
35.23
33.28
26.05
13.81
-1.43
-16.51
-28.33
-35.17
-37.00
-35.28
-31.99
-28.70
-26.04
-23.89
-21.85
-19.72
-17.66
-15.96
-14.81
-14.02
-13.16
-11.72
-9.40
-6.38
-3.24
-0.80
0.33
0.02
-1.35
-2.98
-4.12
-4.32
-3.60
-2.36
-1.13
-0.34
-0.26
-0.92
-2.11
-3.44
-4.34
-4.27
-2.92
-0.38
2.78
5.77
7.85
8.65
8.19
6.78
4.76
2.39
-0.14
-2.65
-4.85
-6.32
-6.71
-5.85
-3.83
-0.95
2.36
5.65
8.41
10.08
10.24
8.71
5.68
1.75
-2.30
-5.83
-8.20
-9.31
-9.57
-9.66
-10.15
-11.22
-12.59
-13.69
-14.00
-13.29
-11.80
-9.89
-7.85
-5.62
-2.97
0.30
4.07
7.79
10.75
12.38
12.55
11.68
10.47
9.53
9.15
9.25
9.56
9.94
10.38
11.00
11.86
12.77
13.42
13.46
12.85
11.81
10.80
10.16
9.97
9.98
9.77
8.99
7.53
5.55
3.38
1.34
-0.36
-1.73
-2.86
-3.97
-5.25
-6.80
-8.59
-10.44
-12.12
-13.37
-14.04
-14.06
-13.43
-12.14
-10.24
-7.80
-4.93
-1.81
1.39
4.50
7.39
9.89
11.86
13.17
13.85
14.08
14.21
14.52
15.05
15.54
15.53
14.63
12.74
10.19
7.50
5.14
3.17
1.31
-0.88
-3.62
-6.71
-9.57
-11.54
-12.24
-11.76
-10.61
-9.42
-8.67
-8.49
-8.77
-9.29
-9.89
-10.49
-11.09
-11.68
-12.21
-12.68
-13.14
-13.68
-14.37
-15.21
-16.07
-16.81
-17.27
-17.38
-17.11
-16.40
-15.12
-13.16
-10.48
-7.22
-3.77
-0.64
1.69
2.95
3.18
2.68
1.85
1.06
0.51
0.24
0.16
0.18
0.27
0.45
0.75
1.22
1.87
2.67
3.56
4.44
5.21
5.78
6.08
6.14
6.03
5.85
5.64
5.38
4.96
4.29
3.36
2.29
1.25
0.40
-0.22
-0.67
-1.10
-1.58
-2.15
-2.79
-3.51
-4.35
-5.37
-6.57
-7.86
-9.07
-9.97
-10.38
-10.19
-9.38
-8.03
-6.19
-3.98
-1.48
1.15
3.71
5.94
7.57
8.45
8.57
8.17
7.54
6.99
6.60
6.33
6.00
5.55
5.05
4.72
4.75
5.18
5.86
6.55
7.04
7.27
7.31
7.28
7.26
7.26
7.22
7.08
6.74
6.16
5.26
4.04
2.54
0.85
-0.85
-2.40
-3.67
-4.56
-5.10
-5.37
-5.56
-5.84
-6.41
-7.35
-8.64
-10.11
-11.49
-12.51
-12.99
-12.84
-12.08
-10.81
-9.17
-7.27
-5.24
-3.24
-1.44
-0.04
0.82
1.07
0.76
0.04
-0.87
-1.80
-2.61
-3.23
-3.62
-3.71
-3.45
-2.81
-1.83
-0.63
0.61
1.76
2.73
3.55
4.24
4.81
5.16
5.18
4.79
4.05
3.13
2.30
1.75
1.58
1.71
1.97
2.17
2.14
1.75
0.99
-0.11
-1.44
-2.81
-3.98
-4.69
-4.72
-3.92
-2.28
0.09
2.92
5.87
8.59
10.84
12.55
13.77
14.62
15.21
15.58
15.75
15.75
15.62
15.38
14.97
14.34
13.45
12.51
11.91
12.09
13.22
15.06
16.93
18.02
17.80
16.33
14.16
12.06
10.65
10.14
10.38
10.95
11.27
10.59
8.06
2.90
-5.12
-15.23
-25.67
-34.18
-38.91
-39.27
-36.17
-31.53
-27.33
-24.65
-23.41
-22.69
-21.48
-19.25
-16.21
-12.96
-10.05
-7.63
-5.47
-3.18
-0.56
2.28
4.89
6.81
7.71
7.62
6.85
5.86
5.04
4.51
4.14
3.58
2.44
0.46
-2.37
-5.78
-9.28
-12.32
-14.50
-15.63
-15.88
-15.58
-15.10
-14.66
-14.29
-13.88
-13.30
-12.52
-11.59
-10.56
-9.45
-8.17
-6.71
-5.15
-3.79
-2.99
-3.05
-4.04
-5.79
-7.87
-9.78
-11.09
-11.47
-10.79
-9.04
-6.40
-3.09
0.60
4.38
8.01
11.29
14.06
16.15
17.42
17.81
17.41
16.43
15.21
14.05
13.10
12.35
11.63
10.76
9.63
8.33
7.06
6.05
5.41
5.06
4.79
4.38
3.71
2.84
1.92
1.13
0.49
-0.07
-0.73
-1.60
-2.67
-3.82
-4.88
-5.74
-6.45
-7.13
-7.93
-8.93
-10.07
-11.14
-11.92
-12.16
-11.76
-10.71
-9.18
-7.35
-5.44
-3.62
-1.93
-0.39
1.06
2.39
3.55
4.39
4.79
4.68
4.16
3.45
2.81
2.43
2.35
2.49
2.68
2.83
2.92
3.02
3.18
3.39
3.61
3.78
3.93
4.15
4.55
5.20
6.04
6.89
7.52
7.76
7.50
6.82
5.85
4.81
3.85
3.00
2.13
1.07
-0.32
-2.00
-3.70
-5.02
-5.62
-5.34
-4.30
-2.78
-1.14
0.34
1.52
2.35
2.84
2.95
2.61
1.79
0.49
-1.16
-2.93
-4.54
-5.72
-6.29
-6.21
-5.62
-4.69
-3.60
-2.47
-1.33
-0.18
0.95
2.00
2.85
3.45
3.77
3.87
3.85
3.77
3.66
3.52
3.32
3.10
2.94
2.91
3.08
3.37
3.61
3.57
3.11
2.24
1.09
-0.07
-0.98
-1.45
-1.41
-0.82
0.28
1.87
3.90
6.24
8.73
11.16
13.35
15.14
16.42
17.14
17.25
16.76
15.74
14.33
12.74
11.23
10.06
9.40
9.26
9.54
9.98
10.32
10.32
9.86
8.93
7.61
6.05
4.36
2.66
1.03
-0.50
-1.94
-3.35
-4.75
-6.18
-7.64
-9.12
-10.61
-12.17
-13.79
-15.45
-17.06
-18.47
-19.49
-19.99
-19.89
-19.21
-17.99
-16.32
-14.27
-11.93
-9.46
-7.03
-4.86
-3.12
-1.91
-1.27
-1.13
-1.34
-1.70
-1.97
-2.00
-1.71
-1.19
-0.60
-0.10
0.24
0.47
0.76
1.26
2.01
2.90
3.72
4.23
4.33
4.06
3.59
3.11
2.71
2.38
2.00
1.42
0.58
-0.50
-1.70
-2.90
-4.04
-5.08
-6.06
-6.92
-7.56
-7.83
-7.61
-6.88
-5.73
-4.35
-2.94
-1.62
-0.46
0.60
1.61
2.59
3.52
4.26
4.68
4.65
4.18
3.42
2.58
1.87
1.40
1.16
1.06
1.00
0.97
0.99
1.14
1.39
1.70
1.94
2.04
2.00
1.91
1.90
2.06
2.36
2.68
2.86
2.78
2.42
1.87
1.26
0.67
0.14
-0.39
-1.02
-1.80
-2.66
-3.48
-4.07
-4.25
-3.98
-3.29
-2.31
-1.20
-0.06
1.05
2.09
3.05
3.83
4.32
4.40
4.04
3.28
2.27
1.23
0.40
-0.09
-0.16
0.15
0.70
1.34
1.92
2.38
2.65
2.77
2.75
2.63
2.45
2.23
2.02
1.83
1.69
1.57
1.46
1.33
1.16
0.98
0.73
0.40
-0.08
-0.74
-1.57
-2.48
-3.37
-4.12
-4.68
-5.02
-5.15
-5.08
-4.82
-4.38
-3.72
-2.83
-1.71
-0.40
0.96
2.20
3.16
3.68
3.77
3.47
2.92
2.25
1.56
0.95
0.51
0.30
0.38
0.73
1.28
1.92
2.54
3.11
3.63
4.14
4.67
5.25
5.88
6.53
7.14
7.66
8.01
8.14
8.01
7.65
7.11
6.49
5.90
5.44
5.16
4.98
4.72
4.13
3.03
1.39
-0.56
-2.42
-3.81
-4.49
-4.42
-3.79
-2.86
-1.84
-0.88
-0.08
0.48
0.70
0.54
0.02
-0.72
-1.52
-2.20
-2.68
-2.90
-2.87
-2.63
-2.27
-1.89
-1.56
-1.30
-1.02
-0.62
-0.03
0.71
1.47
2.09
2.50
2.75
2.94
3.13
3.33
3.42
3.29
2.86
2.14
1.20
0.15
-0.93
-1.95
-2.85
-3.56
-4.02
-4.27
-4.38
-4.52
-4.87
-5.56
-6.60
-7.84
-9.01
-9.79
-9.95
-9.36
-8.09
-6.30
-4.24
-2.19
-0.41
0.91
1.65
1.81
1.45
0.74
-0.16
-1.06
-1.84
-2.44
-2.86
-3.13
-3.25
-3.24
-3.07
-2.71
-2.20
-1.61
-1.08
-0.68
-0.40
-0.09
0.43
1.26
2.40
3.65
4.74
5.40
5.51
5.08
4.28
3.37
2.60
2.15
2.13
2.55
3.32
4.28
5.26
6.04
6.45
6.41
5.97
5.27
4.56
4.10
4.09
4.60
5.55
6.73
7.90
8.78
9.23
9.17
8.52
7.23
5.15
2.17
-1.71
-6.25
-11.00
-15.32
-18.64
-20.60
-21.12
-20.39
-18.72
-16.46
-13.90
-11.30
-8.89
-6.92
-5.53
-4.79
-4.59
-4.71
-4.91
-5.03
-5.02
-4.92
-4.83
-4.78
-4.75
-4.68
-4.58
-4.48
-4.46
-4.61
-4.89
-5.19
-5.35
-5.28
-5.00
-4.61
-4.21
-3.80
-3.25
-2.35
-0.94
0.96
3.15
5.28
7.00
8.10
8.60
8.66
8.51
8.31
8.11
7.83
7.38
6.74
5.96
5.19
4.56
4.15
3.93
3.80
3.63
3.38
3.06
2.79
2.69
2.83
3.12
3.38
3.32
2.76
1.66
0.20
-1.31
-2.57
-3.38
-3.77
-3.88
-3.93
-4.05
-4.31
-4.71
-5.20
-5.73
-6.23
-6.61
-6.72
-6.48
-5.81
-4.70
-3.23
-1.47
0.46
2.43
4.30
5.89
6.99
7.42
7.14
6.24
5.00
3.80
2.96
2.67
2.91
3.46
4.04
4.40
4.44
4.22
3.88
3.65
3.66
3.99
4.59
5.28
5.83
5.99
5.60
4.66
3.34
1.91
0.66
-0.22
-0.67
-0.79
-0.78
-0.85
-1.16
-1.77
-2.61
-3.54
-4.36
-4.92
-5.15
-5.07
-4.75
-4.25
-3.55
-2.59
-1.35
0.11
1.58
2.77
3.42
3.43
2.89
2.05
1.18
0.47
-0.02
-0.38
-0.69
-1.01
-1.34
-1.66
-1.90
-2.02
-1.95
-1.59
-0.88
0.20
1.55
2.92
4.05
4.71
4.79
4.38
3.72
3.11
2.79
2.83
3.19
3.70
4.17
4.45
4.42
4.04
3.27
2.14
0.73
-0.78
-2.13
-3.05
-3.36
-3.02
-2.19
-1.11
-0.05
0.82
1.43
1.85
2.19
2.52
2.89
3.21
3.38
3.33
3.06
2.63
2.13
1.62
1.11
0.60
0.09
-0.32
-0.52
-0.42
-0.09
0.34
0.66
0.70
0.45
-0.02
-0.58
-1.13
-1.63
-2.13
-2.68
-3.27
-3.88
-4.43
-4.86
-5.15
-5.38
-5.63
-6.02
-6.60
-7.35
-8.17
-8.90
-9.37
-9.45
-9.09
-8.29
-7.15
-5.78
-4.32
-2.85
-1.44
-0.14
1.00
1.92
2.53
2.79
2.71
2.37
1.87
1.32
0.79
0.36
0.05
-0.14
-0.21
-0.22
-0.25
-0.35
-0.53
-0.73
-0.89
-0.98
-1.02
-1.10
-1.27
-1.52
-1.79
-1.97
-2.03
-2.00
-1.97
-2.06
-2.32
-2.78
-3.41
-4.13
-4.90
-5.63
-6.27
-6.75
-7.04
-7.12
-6.97
-6.55
-5.86
-4.92
-3.78
-2.52
-1.24
0.03
1.29
2.52
3.68
4.63
5.24
5.41
5.16
4.64
4.05
3.59
3.39
3.49
3.83
4.30
4.75
5.04
5.10
5.00
4.87
4.89
5.13
5.49
5.78
5.77
5.37
4.67
3.85
3.09
2.46
1.91
1.33
0.66
-0.11
-0.97
-1.90
-2.95
-4.10
-5.29
-6.31
-6.91
-6.93
-6.32
-5.21
-3.82
-2.32
-0.85
0.55
1.86
3.02
3.95
4.55
4.77
4.62
4.19
3.60
3.00
2.47
2.05
1.73
1.48
1.29
1.21
1.29
1.59
2.07
2.65
3.18
3.51
3.56
3.34
2.95
2.54
2.21
2.01
1.85
1.65
1.31
0.85
0.33
-0.15
-0.55
-0.94
-1.43
-2.16
-3.15
-4.29
-5.40
-6.25
-6.71
-6.77
-6.48
-5.98
-5.31
-4.48
-3.47
-2.24
-0.81
0.71
2.17
3.36
4.11
4.33
4.09
3.59
3.08
2.75
2.67
2.79
2.93
2.98
2.91
2.79
2.70
2.70
2.79
2.95
3.20
3.58
4.12
4.77
5.35
5.69
5.65
5.22
4.53
3.77
3.12
2.66
2.40
2.28
2.22
2.07
1.73
1.07
0.06
-1.24
-2.67
-4.05
-5.20
-5.99
-6.41
-6.47
-6.26
-5.85
-5.28
-4.50
-3.50
-2.28
-0.96
0.27
1.16
1.59
1.53
1.14
0.65
0.24
0.00
-0.09
-0.09
-0.01
0.17
0.48
0.89
1.28
1.48
1.40
1.09
0.70
0.43
0.41
0.63
0.90
0.98
0.70
0.02
-0.97
-2.06
-3.04
-3.74
-4.10
-4.15
-4.05
-3.98
-4.16
-4.70
-5.61
-6.76
-7.98
-9.09
-9.94
-10.44
-10.49
-10.01
-8.97
-7.44
-5.57
-3.63
-1.84
-0.35
0.78
1.56
2.04
2.26
2.28
2.17
2.04
1.96
1.93
1.89
1.76
1.52
1.23
0.98
0.88
1.00
1.34
1.85
2.51
3.25
4.01
4.70
5.24
5.54
5.58
5.37
4.98
4.52
4.12
3.86
3.78
3.78
3.71
3.38
2.73
1.79
0.73
-0.26
-1.04
-1.57
-1.87
-1.98
-1.93
-1.67
-1.16
-0.39
0.61
1.78
3.02
4.23
5.29
6.09
6.54
6.60
6.27
5.61
4.77
3.91
3.18
2.68
2.49
2.59
2.96
3.54
4.23
4.95
5.60
6.10
6.39
6.44
6.30
5.97
5.46
4.73
3.73
2.47
0.99
-0.57
-2.08
-3.39
-4.42
-5.14
-5.64
-6.02
-6.44
-7.00
-7.73
-8.57
-9.37
-9.96
-10.20
-10.04
-9.48
-8.58
-7.37
-5.88
-4.17
-2.32
-0.44
1.28
2.69
3.65
4.13
4.22
4.06
3.82
3.61
3.45
3.28
3.06
2.77
2.47
2.27
2.24
2.37
2.57
2.73
2.79
2.79
2.82
2.96
3.18
3.35
3.32
2.98
2.36
1.61
0.97
0.59
0.50
0.58
0.64
0.50
0.09
-0.52
-1.21
-1.83
-2.33
-2.70
-2.99
-3.17
-3.20
-2.98
-2.45
-1.61
-0.56
0.60
1.77
2.91
3.94
4.76
5.22
5.16
4.57
3.57
2.40
1.31
0.44
-0.18
-0.60
-0.84
-0.89
-0.68
-0.21
0.44
1.13
1.74
2.18
2.49
2.71
2.85
2.88
2.74
2.42
1.99
1.57
1.30
1.18
1.13
1.01
0.66
0.08
-0.65
-1.38
-2.01
-2.53
-3.07
-3.79
-4.80
-5.99
-7.12
-7.84
-7.90
-7.22
-5.93
-4.29
-2.59
-1.04
0.32
1.50
2.54
3.44
4.09
4.39
4.29
3.86
3.23
2.58
1.97
1.40
0.82
0.20
-0.40
-0.89
-1.16
-1.23
-1.20
-1.19
-1.27
-1.40
-1.51
-1.54
-1.52
-1.59
-1.92
-2.58
-3.46
-4.39
-5.16
-5.71
-6.14
-6.63
-7.38
-8.45
-9.73
-11.03
-12.13
-12.92
-13.38
-13.56
-13.48
-13.12
-12.38
-11.15
-9.37
-7.06
-4.37
-1.52
1.20
3.49
5.10
5.90
5.89
5.28
4.40
3.59
3.12
3.04
3.27
3.66
4.05
4.37
4.63
4.86
5.08
5.28
5.46
5.63
5.79
5.91
5.95
5.83
5.53
5.05
4.47
3.85
3.24
2.65
2.08
1.54
1.01
0.45
-0.28
-1.25
-2.48
-3.85
-5.14
-6.11
-6.62
-6.66
-6.34
-5.76
-4.99
-3.97
-2.64
-1.00
0.82
2.61
4.08
5.07
5.53
5.55
5.31
4.96
4.61
4.29
3.98
3.66
3.33
3.01
2.79
2.74
2.87
3.19
3.63
4.09
4.49
4.79
4.98
5.07
5.03
4.80
4.33
3.61
2.68
1.67
0.70
-0.12
-0.78
-1.31
-1.84
-2.47
-3.31
-4.39
-5.61
-6.84
-7.87
-8.50
-8.60
-8.12
-7.09
-5.59
-3.72
-1.63
0.50
2.45
4.00
4.99
5.32
5.03
4.28
3.31
2.37
1.68
1.29
1.15
1.12
1.06
0.93
0.80
0.75
0.86
1.10
1.39
1.67
1.97
2.35
2.86
3.49
4.11
4.58
4.81
4.80
4.59
4.25
3.77
3.14
2.38
1.56
0.80
0.18
-0.34
-0.87
-1.56
-2.45
-3.50
-4.53
-5.38
-5.92
-6.09
-5.90
-5.38
-4.61
-3.63
-2.53
-1.37
-0.22
0.83
1.71
2.32
2.57
2.39
1.80
0.94
0.01
-0.76
-1.24
-1.42
-1.35
-1.12
-0.74
-0.16
0.66
1.68
2.76
3.66
4.20
4.31
4.05
3.58
3.06
2.52
1.93
1.24
0.43
-0.41
-1.20
-1.82
-2.28
-2.59
-2.85
-3.13
-3.46
-3.87
-4.36
-4.94
-5.61
-6.35
-7.05
-7.58
-7.75
-7.47
-6.71
-5.61
-4.32
-3.01
-1.78
-0.63
0.41
1.28
1.88
2.08
1.82
1.18
0.32
-0.53
-1.22
-1.69
-2.03
-2.34
-2.66
-2.92
-2.98
-2.74
-2.16
-1.35
-0.49
0.25
0.77
1.07
1.20
1.22
1.14
0.91
0.48
-0.13
-0.85
-1.52
-2.02
-2.30
-2.44
-2.62
-3.00
-3.68
-4.60
-5.62
-6.55
-7.23
-7.56
-7.48
-6.96
-6.01
-4.66
-3.02
-1.28
0.41
1.88
3.07
3.99
4.64
5.06
5.25
5.23
5.03
4.73
4.39
4.07
3.80
3.62
3.57
3.68
3.97
4.41
4.91
5.34
5.64
5.79
5.87
5.96
6.13
6.31
6.37
6.18
5.67
4.89
4.03
3.30
2.80
2.52
2.28
1.83
1.02
-0.20
-1.66
-3.11
-4.31
-5.09
-5.42
-5.33
-4.92
-4.21
-3.22
-1.95
-0.45
1.18
2.78
4.16
5.16
5.66
5.64
5.15
4.36
3.49
2.76
2.34
2.26
2.47
2.85
3.28
3.69
4.06
4.40
4.75
5.10
5.40
5.63
5.74
5.74
5.61
5.38
5.08
4.74
4.38
4.03
3.71
3.40
3.04
2.56
1.89
0.99
-0.12
-1.44
-2.95
-4.59
-6.29
-7.89
-9.16
-9.88
-9.95
-9.41
-8.43
-7.26
-6.08
-5.01
-4.04
-3.20
-2.60
-2.40
-2.77
-3.76
-5.25
-6.98
-8.59
-9.81
-10.53
-10.79
-10.71
-10.45
-10.06
-9.50
-8.69
-7.58
-6.18
-4.57
-2.89
-1.26
0.27
1.65
2.86
3.83
4.50
4.79
4.65
4.13
3.35
2.51
1.83
1.52
1.67
2.24
3.06
3.88
4.42
4.49
4.05
3.20
2.14
1.10
0.26
-0.25
-0.40
-0.19
0.34
1.14
2.14
3.29
4.48
5.57
6.38
6.76
6.63
5.99
4.98
3.79
2.62
1.60
0.85
0.39
0.22
0.33
0.64
1.04
1.39
1.54
1.44
1.14
0.78
0.51
0.44
0.56
0.78
0.94
0.87
0.47
-0.26
-1.20
-2.19
-3.05
-3.66
-4.04
-4.25
-4.38
-4.50
-4.64
-4.81
-5.07
-5.52
-6.25
-7.27
-8.42
-9.43
-9.97
-9.84
-9.03
-7.70
-6.09
-4.42
-2.82
-1.35
-0.04
1.04
1.80
2.23
2.35
2.31
2.22
2.15
2.05
1.83
1.46
1.00
0.62
0.49
0.71
1.22
1.93
2.67
3.35
3.91
4.30
4.45
4.27
3.70
2.77
1.62
0.42
-0.64
-1.42
-1.89
-2.08
-2.09
-2.06
-2.16
-2.48
-3.08
-3.90
-4.82
-5.71
-6.45
-6.93
-7.05
-6.72
-5.88
-4.57
-2.92
-1.15
0.53
1.98
3.14
4.03
4.65
5.00
5.09
4.95
4.66
4.35
4.13
4.06
4.13
4.26
4.38
4.44
4.44
4.40
4.40
4.48
4.65
4.89
5.11
5.19
5.01
4.53
3.75
2.76
1.67
0.57
-0.43
-1.27
-1.91
-2.34
-2.62
-2.82
-3.05
-3.41
-3.98
-4.77
-5.68
-6.57
-7.25
-7.52
-7.26
-6.48
-5.32
-4.00
-2.71
-1.54
-0.47
0.60
1.69
2.75
3.63
4.19
4.42
4.40
4.30
4.25
4.28
4.34
4.32
4.16
3.91
3.71
3.67
3.85
4.18
4.53
4.79
4.88
4.84
4.72
4.59
4.45
4.23
3.87
3.33
2.66
1.97
1.36
0.91
0.58
0.34
0.04
-0.42
-1.11
-2.07
-3.23
-4.47
-5.63
-6.53
-7.04
-7.09
-6.67
-5.85
-4.72
-3.43
-2.08
-0.77
0.42
1.42
2.18
2.65
2.81
2.65
2.27
1.79
1.38
1.15
1.14
1.26
1.40
1.46
1.45
1.48
1.69
2.14
2.78
3.45
3.98
4.27
4.36
4.36
4.36
4.39
4.35
4.13
3.65
2.94
2.11
1.28
0.50
-0.21
-0.89
-1.56
-2.20
-2.78
-3.32
-3.83
-4.37
-4.98
-5.68
-6.45
-7.24
-7.93
-8.36
-8.36
-7.78
-6.55
-4.80
-2.76
-0.73
1.03
2.41
3.40
4.12
4.68
5.19
5.70
6.21
6.70
7.07
7.25
7.17
6.85
6.43
6.06
5.88
5.95
6.16
6.38
6.44
6.24
5.71
4.87
3.77
2.48
1.14
-0.14
-1.23
-2.04
-2.57
-2.87
-3.02
-3.16
-3.37
-3.68
-4.10
-4.57
-5.04
-5.48
-5.92
-6.38
-6.90
-7.49
-8.10
-8.65
-9.05
-9.24
-9.13
-8.68
-7.86
-6.68
-5.17
-3.39
-1.48
0.41
2.09
3.36
4.12
4.34
4.09
3.53
2.84
2.20
1.73
1.49
1.43
1.46
1.48
1.43
1.34
1.28
1.35
1.61
1.99
2.36
2.56
2.50
2.19
1.70
1.11
0.43
-0.37
-1.33
-2.40
-3.45
-4.32
-4.88
-5.15
-5.26
-5.41
-5.72
-6.22
-6.84
-7.45
-7.98
-8.39
-8.68
-8.79
-8.59
-7.91
-6.70
-5.03
-3.17
-1.44
-0.06
0.89
1.54
2.07
2.58
3.04
3.33
3.33
3.04
2.63
2.31
2.26
2.52
2.99
3.46
3.76
3.81
3.66
3.42
3.25
3.24
3.42
3.72
4.00
4.13
3.99
3.57
2.94
2.22
1.50
0.83
0.21
-0.38
-0.96
-1.53
-2.12
-2.77
-3.50
-4.35
-5.26
-6.08
-6.65
-6.81
-6.50
-5.75
-4.68
-3.38
-1.94
-0.42
1.10
2.52
3.68
4.42
4.71
4.61
4.28
3.94
3.72
3.62
3.54
3.39
3.13
2.86
2.75
2.92
3.37
3.94
4.44
4.72
4.77
4.69
4.61
4.58
4.55
4.38
3.93
3.18
2.24
1.30
0.51
-0.08
-0.55
-1.07
-1.78
-2.76
-3.94
-5.13
-6.14
-6.79
-7.03
-6.88
-6.46
-5.87
-5.21
-4.49
-3.67
-2.67
-1.45
-0.06
1.36
2.58
3.43
3.84
3.86
3.62
3.28
2.93
2.61
2.31
2.06
1.87
1.79
1.89
2.18
2.64
3.23
3.82
4.30
4.56
4.56
4.36
4.06
3.75
3.46
3.12
2.63
1.93
1.07
0.18
-0.56
-1.07
-1.38
-1.62
-1.98
-2.57
-3.39
-4.35
-5.31
-6.12
-6.66
-6.85
-6.70
-6.20
-5.41
-4.38
-3.16
-1.77
-0.23
1.42
3.05
4.45
5.40
5.79
5.70
5.38
5.14
5.17
5.48
5.91
6.21
6.26
6.09
5.83
5.63
5.52
5.40
5.14
4.65
3.98
3.22
2.51
1.87
1.27
0.61
-0.15
-0.98
-1.76
-2.40
-2.89
-3.27
-3.64
-4.09
-4.64
-5.25
-5.86
-6.42
-6.93
-7.43
-7.93
-8.40
-8.76
-8.88
-8.58
-7.78
-6.47
-4.79
-2.96
-1.24
0.18
1.26
2.07
2.72
3.27
3.69
3.82
3.53
2.83
1.86
0.90
0.18
-0.16
-0.18
-0.01
0.14
0.17
0.10
-0.01
-0.02
0.10
0.32
0.52
0.55
0.33
-0.16
-0.87
-1.70
-2.56
-3.38
-4.12
-4.74
-5.20
-5.47
-5.59
-5.63
-5.75
-6.03
-6.51
-7.08
-7.57
-7.77
-7.51
-6.72
-5.46
-3.89
-2.19
-0.56
0.89
2.08
2.99
3.58
3.80
3.65
3.20
2.61
2.08
1.78
1.74
1.83
1.86
1.71
1.38
1.00
0.76
0.75
0.97
1.31
1.64
1.93
2.19
2.48
2.79
3.04
3.08
2.81
2.24
1.52
0.80
0.24
-0.14
-0.44
-0.78
-1.30
-2.00
-2.81
-3.60
-4.27
-4.75
-5.02
-5.04
-4.78
-4.14
-3.06
-1.53
0.33
2.29
4.08
5.43
6.20
6.42
6.24
5.91
5.63
5.46
5.39
5.32
5.22
5.15
5.22
5.53
6.10
6.82
7.52
8.09
8.53
8.93
9.45
10.14
10.97
11.75
12.28
12.38
12.02
11.31
10.54
10.07
10.18
10.95
12.21
13.57
14.60
15.02
14.88
14.50
14.42
15.08
16.68
19.02
21.65
24.10
26.06
27.63
29.21
31.30
34.27
38.05
42.00
44.94
45.28
41.21
31.04
13.74
-10.48
-39.69
-70.30
-97.75
-117.79
-127.74
-127.22
-117.97
-102.96
-85.13
-66.63
-48.62
-31.69
-16.45
-3.65
5.96
12.11
15.27
16.47
16.89
17.22
17.58
17.52
16.43
13.88
9.91
4.92
-0.48
-5.64
-10.08
-13.48
-15.68
-16.64
-16.39
-15.00
-12.58
-9.31
-5.45
-1.39
2.41
5.53
7.62
8.61
8.64
8.04
7.20
6.44
5.91
5.56
5.18
4.51
3.37
1.76
-0.15
-2.04
-3.57
-4.51
-4.80
-4.59
-4.09
-3.52
-2.99
-2.44
-1.77
-0.87
0.29
1.62
2.99
4.22
5.18
5.79
6.00
5.81
5.29
4.50
3.52
2.39
1.11
-0.30
-1.76
-3.10
-4.07
-4.44
-4.09
-3.05
-1.47
0.46
2.60
4.79
6.88
8.69
10.06
10.87
11.13
10.93
10.38
9.59
8.64
7.62
6.58
5.62
4.76
4.00
3.33
2.74
2.29
2.06
2.09
2.35
2.68
2.89
2.86
2.53
1.97
1.33
0.70
0.19
-0.19
-0.41
-0.47
-0.42
-0.34
-0.33
-0.57
-1.14
-2.06
-3.24
-4.45
-5.45
-6.03
-6.06
-5.53
-4.51
-3.15
-1.60
-0.02
1.48
2.80
3.87
4.66
5.15
5.31
5.18
4.82
4.35
3.92
3.64
3.54
3.56
3.57
3.51
3.38
3.25
3.23
3.37
3.63
3.90
4.06
4.06
3.93
3.74
3.53
3.33
3.08
2.73
2.23
1.63
1.00
0.43
0.01
-0.29
-0.56
-0.99
-1.72
-2.80
-4.12
-5.40
-6.33
-6.68
-6.39
-5.59
-4.51
-3.35
-2.18
-0.97
0.35
1.76
3.15
4.34
5.17
5.61
5.73
5.70
5.63
5.56
5.43
5.13
4.61
3.95
3.30
2.84
2.69
2.81
3.07
3.30
3.38
3.26
2.98
2.58
2.12
1.62
1.08
0.50
-0.11
-0.71
-1.30
-1.83
-2.28
-2.60
-2.80
-2.94
-3.15
-3.61
-4.44
-5.62
-6.99
-8.27
-9.20
-9.59
-9.39
-8.66
-7.52
-6.06
-4.37
-2.56
-0.73
0.96
2.34
3.26
3.67
3.64
3.33
2.97
2.72
2.64
2.68
2.70
2.57
2.29
1.98
1.81
1.92
2.29
2.79
3.20
3.40
3.40
3.37
3.52
3.96
4.61
5.25
5.58
5.43
4.81
3.92
3.01
2.29
1.84
1.58
1.38
1.10
0.65
0.01
-0.78
-1.70
-2.68
-3.64
-4.44
-4.94
-5.04
-4.67
-3.90
-2.84
-1.64
-0.43
0.66
1.53
2.11
2.32
2.12
1.57
0.80
0.01
-0.63
-1.03
-1.21
-1.25
-1.25
-1.22
-1.12
-0.90
-0.57
-0.21
0.07
0.20
0.20
0.15
0.16
0.29
0.49
0.64
0.62
0.34
-0.22
-0.99
-1.84
-2.61
-3.14
-3.34
-3.23
-2.92
-2.63
-2.59
-2.92
-3.64
-4.65
-5.74
-6.73
-7.44
-7.75
-7.62
-7.09
-6.23
-5.18
-4.02
-2.83
-1.64
-0.46
0.64
1.55
2.09
2.17
1.79
1.10
0.33
-0.29
-0.66
-0.78
-0.78
-0.76
-0.77
-0.75
-0.62
-0.30
0.19
0.74
1.19
1.44
1.48
1.34
1.11
0.79
0.35
-0.26
-1.04
-1.92
-2.76
-3.39
-3.75
-3.90
-4.04
-4.38
-5.03
-5.97
-6.98
-7.85
-8.38
-8.52
-8.33
-7.88
-7.21
-6.25
-4.91
-3.15
-1.06
1.11
3.07
4.55
5.46
5.85
5.84
5.58
5.15
4.58
3.91
3.25
2.73
2.52
2.67
3.12
3.69
4.16
4.37
4.27
4.00
3.72
3.58
3.65
3.83
3.96
3.91
3.62
3.13
2.52
1.87
1.18
0.42
-0.43
-1.29
-2.05
-2.60
-2.94
-3.18
-3.51
-4.04
-4.74
-5.44
-5.90
-5.97
-5.64
-4.99
-4.16
-3.22
-2.19
-1.09
0.00
0.98
1.70
2.08
2.10
1.87
1.56
1.36
1.40
1.70
2.18
2.69
3.07
3.20
3.05
2.73
2.42
2.32
2.58
3.25
4.30
5.57
6.85
7.94
8.65
8.89
8.65
8.03
7.19
6.25
5.34
4.49
3.69
2.85
1.86
0.62
-0.86
-2.51
-4.13
-5.52
-6.53
-7.10
-7.24
-7.01
-6.41
-5.43
-4.03
-2.27
-0.32
1.59
3.20
4.33
4.96
5.16
5.07
4.84
4.54
4.23
3.90
3.53
3.16
2.86
2.69
2.70
2.87
3.13
3.39
3.57
3.69
3.81
3.99
4.23
4.46
4.56
4.43
4.05
3.44
2.66
1.79
0.90
0.06
-0.72
-1.47
-2.29
-3.30
-4.56
-6.05
-7.60
-8.99
-10.04
-10.62
-10.71
-10.32
-9.47
-8.20
-6.59
-4.79
-3.01
-1.48
-0.31
0.48
1.00
1.37
1.66
1.86
1.90
1.71
1.28
0.70
0.14
-0.23
-0.29
-0.04
0.44
0.97
1.37
1.58
1.58
1.46
1.32
1.18
0.98
0.59
-0.04
-0.92
-1.92
-2.86
-3.62
-4.18
-4.60
-4.99
-5.43
-5.97
-6.56
-7.18
-7.85
-8.59
-9.44
-10.32
-11.09
-11.50
-11.34
-10.55
-9.23
-7.62
-6.01
-4.61
-3.52
-2.72
-2.15
-1.78
-1.59
-1.58
-1.74
-2.03
-2.40
-2.77
-3.12
-3.42
-3.64
-3.75
-3.73
-3.58
-3.36
-3.14
-3.01
-3.03
-3.18
-3.41
-3.69
-4.02
-4.50
-5.25
-6.32
-7.60
-8.86
-9.85
-10.40
-10.54
-10.43
-10.28
-10.19
-10.18
-10.15
-10.00
-9.66
-9.02
-7.90
-6.01
-3.13
0.80
5.43
10.10
14.02
16.55
17.36
16.54
14.46
11.60
8.47
5.52
3.11
1.45
0.45
-0.20
-1.10
-2.82
-5.69
-9.55
-13.84
-17.78
-20.71
-22.41
-23.15
-23.58
-24.41
-26.14
-28.92
-32.46
-36.12
-38.95
-39.86
-37.76
-32.04
-22.92
-11.62
-0.04
10.10
18.05
24.42
30.78
38.60
48.32
58.77
67.64
72.55
72.21
66.98
58.60
49.34
41.10
34.93
31.13
29.54
29.89
32.03
35.89
41.24
47.52
53.82
59.05
62.27
62.80
60.35
55.19
48.07
40.04
32.15
25.30
20.16
17.16
16.09
16.00
15.60
13.89
10.53
6.08
1.76
-1.06
-1.51
-0.07
1.56
1.52
-0.89
-4.72
-7.90
-8.22
-4.38
3.71
14.52
25.40
33.59
36.86
33.50
22.14
1.95
-26.90
-59.76
-88.62
-106.74
-112.42
-108.53
-99.50
-88.91
-78.61
-68.85
-59.01
-49.08
-39.99
-32.91
-28.52
-26.62
-26.36
-26.57
-26.11
-24.02
-20.18
-15.40
-10.98
-8.03
-7.16
-8.29
-10.75
-13.38
-14.81
-14.22
-11.88
-8.78
-6.06
-4.72
-5.12
-7.19
-10.81
-15.81
-21.59
-26.31
-26.73
-19.60
-3.87
17.55
38.00
49.90
48.52
34.25
12.01
-11.51
-31.23
-45.10
-52.80
-54.05
-47.50
-31.64
-6.86
23.10
51.50
71.12
78.06
72.97
60.16
45.58
34.47
29.79
32.27
41.29
54.70
69.67
82.29
87.88
82.48
64.53
36.46
4.75
-20.83
-32.25
-26.47
-7.12
16.96
35.75
42.40
35.89
20.56
3.21
-10.62
-18.71
-22.10
-23.33
-24.31
-25.20
-24.66
-21.38
-15.36
-8.20
-2.43
-0.05
-1.47
-5.40
-9.58
-11.98
-11.78
-9.84
-7.93
-8.03
-11.36
-17.78
-25.99
-34.04
-40.19
-43.51
-44.14
-42.79
-40.47
-37.85
-35.03
-31.62
-27.07
-21.03
-13.26
-4.79
3.52
10.87
16.73
21.04
24.08
26.26
27.98
29.57
31.06
32.50
33.87
35.08
36.15
37.08
37.84
38.33
38.47
38.06
37.00
35.20
32.45
28.79
24.30
19.09
13.34
7.30
1.18
-4.71
-9.77
-14.10
-17.56
-20.10
-21.75
-22.58
-22.70
-22.27
-21.62
-20.70
-19.67
-18.58
-17.48
-16.41
-15.39
-14.39
-13.45
-12.54
-11.61
-10.75
-9.90
-9.09
-8.32
-7.56
-6.85
-6.16
-5.52
-4.89
-4.31
-3.79
-3.30
-2.87
-2.47
-2.11
-1.80
-1.51
-1.25
-1.02
-0.82
-0.65
-0.50
-0.37
-0.27
-0.19
-0.14
-0.09
-0.08
-0.09
-0.12
-0.18
-0.26
-0.36
-0.50
-0.66
-0.85
-1.07
-1.32
-1.59
-1.89
-2.23
-2.60
-3.02
-3.48
-3.99
-4.55
-5.16
-5.80
-6.49
-7.23
-8.04
-8.92
-9.86
-10.87
-11.96
-13.11
-14.30
-15.55
-16.89
-18.31
-19.83
-21.46
-23.19
-25.02
-26.94
-28.84
-30.71
-32.46
-33.96
-35.04
-35.46
-35.04
-33.57
-31.30
-27.86
-23.29
-17.79
-11.62
-5.12
1.39
7.58
13.19
17.97
21.78
24.45
25.96
26.36
25.87
24.79
23.44
22.12
21.05
20.37
19.92
19.56
19.13
18.63
18.13
17.82
17.84
18.26
18.96
19.46
19.30
18.20
16.09
13.30
10.29
7.49
5.07
2.80
-0.27
-5.05
-12.10
-21.33
-31.92
-42.64
-52.28
-60.14
-66.24
-71.85
-78.33
-86.64
-96.85
-108.11
-119.11
-128.55
-135.83
-141.13
-146.17
-153.05
-164.06
-181.25
-205.86
-237.47
-273.56
-309.90
-336.25
-344.99
-332.01
-298.32
-249.78
-194.78
-141.21
-94.06
-54.84
-22.59
3.42
23.30
36.40
42.06
40.56
33.32
22.39
9.64
-3.68
-17.61
-32.41
-48.02
-63.72
-78.13
-89.74
-97.36
-100.65
-100.08
-97.13
-93.37
-89.94
-87.28
-85.14
-82.80
-79.46
-74.48
-67.55
-58.84
-48.67
-37.46
-25.73
-14.00
-2.75
7.60
16.97
25.65
34.21
43.29
53.34
64.22
75.28
85.50
94.10
100.92
106.74
113.06
121.45
132.81
146.86
162.15
176.65
188.72
197.87
205.04
212.18
221.37
234.09
250.99
271.94
295.91
320.71
342.66
357.24
360.61
351.89
334.54
315.61
303.01
301.74
311.43
326.50
338.81
341.40
330.99
308.37
276.74
239.65
199.90
159.39
119.81
83.09
51.53
27.22
11.78
5.86
8.96
19.41
34.35
50.26
63.94
73.35
78.23
79.76
79.46
78.10
75.20
69.33
59.09
44.04
24.92
3.37
-18.80
-40.14
-59.65
-76.57
-89.93
-98.38
-100.79
-97.42
-90.79
-85.72
-88.04
-102.15
-128.49
-162.29
-194.39
-214.19
-213.59
-189.94
-147.09
-94.40
-43.86
-6.73
9.34
2.15
-24.94
-64.56
-107.79
-147.04
-177.90
-199.16
-211.22
-214.27
-207.63
-190.70
-164.82
-134.72
-107.77
-91.23
-89.02
-99.98
-118.75
-138.44
-153.55
-161.46
-162.13
-156.76
-146.53
-132.34
-115.46
-97.89
-81.96
-69.26
-59.36
-49.64
-36.26
-16.14
10.98
41.62
69.46
87.72
92.03
82.63
64.50
45.80
34.81
37.38
55.48
87.15
127.39
169.48
206.13
230.52
237.63
225.72
197.12
157.94
116.19
79.28
51.65
34.05
24.15
18.21
12.67
5.09
-5.56
-19.06
-34.16
-48.80
-60.62
-67.65
-68.90
-64.81
-57.14
-48.45
-41.26
-37.15
-36.29
-37.33
-37.69
-34.45
-25.39
-10.03
9.79
29.92
44.92
49.76
41.71
21.72
-5.31
-31.72
-49.15
-50.88
-33.62
1.79
50.51
104.96
156.34
196.54
219.88
224.49
212.71
190.16
163.90
140.22
122.87
112.70
108.27
107.26
107.44
107.23
105.48
101.38
94.41
84.62
72.76
60.08
48.15
38.29
31.18
26.46
22.89
18.71
12.51
4.01
-5.79
-15.00
-21.92
-25.93
-27.92
-29.79
-33.75
-41.55
-54.08
-71.21
-91.46
-111.67
-126.79
-130.69
-118.14
-87.16
-40.67
13.90
66.73
108.86
134.86
143.89
138.92
124.81
106.38
87.24
69.79
55.63
46.05
41.83
42.47
45.49
46.44
39.87
21.32
-10.62
-53.09
-99.36
-140.86
-170.07
-183.00
-180.18
-166.02
-146.89
-128.79
-115.55
-107.98
-104.15
-100.67
-94.39
-83.93
-70.47
-57.42
-49.23
-49.70
-60.17
-78.62
-99.64
-115.60
-118.85
-104.16
-70.74
-23.23
29.05
74.56
103.01
108.56
91.55
58.08
17.61
-20.19
-48.14
-62.91
-64.85
-57.00
-43.88
-30.41
-21.06
-19.14
-25.98
-40.33
-58.49
-75.15
-85.10
-84.91
-74.20
-55.65
-34.08
-14.67
-1.36
4.12
2.20
-5.22
-15.66
-26.74
-36.50
-43.82
-48.75
-52.82
-58.71
-69.06
-84.84
-104.05
-121.75
-131.63
-128.58
-110.60
-79.23
-38.14
8.86
59.12
110.69
160.92
205.40
238.45
255.20
253.92
237.24
211.24
183.02
157.78
137.26
119.94
102.75
83.23
61.03
38.19
18.25
4.93
0.90
7.09
22.67
45.20
71.41
97.71
120.59
137.05
144.84
142.78
131.03
111.44
87.31
62.69
41.05
23.65
8.50
-9.22
-35.20
-72.79
-120.19
-169.90
-210.59
-230.92
-223.59
-187.60
-128.40
-56.08
17.21
79.75
122.20
138.90
128.70
95.11
45.80
-9.17
-59.57
-97.33
-118.14
-121.82
-111.60
-92.49
-69.54
-46.57
-25.73
-7.66
7.72
20.70
31.66
41.35
50.98
61.50
72.58
81.55
83.71
74.14
50.28
14.07
-27.99
-66.91
-94.66
-107.17
-105.75
-95.99
-85.31
-79.89
-82.50
-91.69
-102.67
-109.00
-104.43
-84.54
-47.74
3.93
65.08
127.69
182.59
221.52
238.90
232.80
205.05
160.30
104.95
45.91
-10.27
-58.18
-94.14
-116.69
-126.80
-127.35
-122.16
-114.73
-107.18
-99.92
-92.31
-83.40
-72.76
-60.50
-47.14
-33.30
-19.81
-8.04
0.02
2.02
-3.93
-18.48
-40.33
-66.19
-91.63
-112.47
-126.38
-133.87
-138.03
-143.05
-151.98
-164.79
-177.81
-184.80
-179.27
-157.09
-118.23
-67.06
-11.19
40.63
80.63
103.88
109.23
99.41
79.99
57.57
37.87
24.18
17.10
15.29
16.81
20.04
23.99
27.83
30.72
31.91
31.15
29.09
27.26
27.63
31.82
40.38
52.47
65.81
77.10
82.79
80.07
67.90
47.71
23.21
-0.70
-19.39
-29.88
-31.65
-26.61
-18.59
-12.49
-13.30
-24.56
-46.85
-76.87
-107.50
-129.65
-134.92
-118.50
-81.01
-28.62
28.56
79.39
114.79
130.10
126.03
108.14
84.58
63.48
50.43
47.32
52.65
63.06
75.00
85.93
94.76
101.23
105.46
107.61
108.06
107.58
107.23
108.07
110.88
116.15
124.13
134.86
148.15
163.23
178.23
189.88
193.58
184.50
159.28
117.59
63.17
3.97
-48.84
-83.16
-89.54
-64.80
-13.54
52.95
119.76
172.60
201.94
205.11
185.88
151.29
108.18
61.87
16.84
-22.61
-52.60
-70.31
-74.95
-68.43
-55.82
-44.92
-43.58
-56.97
-86.44
-129.97
-182.61
-237.45
-283.71
-307.21
-299.70
-266.39
-222.50
-182.82
-154.60
-137.08
-125.01
-113.09
-99.45
-86.44
-77.81
-75.14
-76.57
-78.29
-76.86
-70.78
-60.75
-49.43
-40.54
-36.81
-38.37
-42.97
-47.55
-49.85
-49.08
-45.81
-41.81
-39.29
-39.88
-43.60
-49.12
-54.70
-59.16
-62.16
-63.99
-65.62
-68.12
-72.19
-77.63
-83.47
-88.47
-91.60
-92.17
-89.63
-84.36
-76.27
-65.48
-52.11
-36.33
-18.54
0.57
20.05
39.19
56.96
72.60
85.59
95.78
103.31
108.57
112.05
112.36
110.78
108.20
105.23
102.08
98.77
95.21
91.24
86.71
81.49
75.88
69.85
63.48
56.87
50.22
43.72
37.57
31.89
26.81
22.66
19.34
16.74
14.68
13.00
11.53
10.14
8.67
7.12
5.63
4.19
2.79
1.44
0.15
-1.06
-1.84
-2.49
-3.06
-3.50
-3.86
-4.15
-4.39
-4.58
-4.72
-4.81
-4.87
-4.82
-4.58
-4.14
-3.51
-2.68
-1.71
-0.36
1.02
2.25
3.21
3.76
3.75
3.06
1.62
-0.60
-3.54
-7.12
-11.11
-15.20
-19.12
-22.62
-25.51
-27.67
-29.09
-29.80
-29.94
-29.58
-28.84
-27.86
-26.83
-25.92
-25.27
-24.97
-25.06
-25.50
-26.03
-26.43
-26.55
-26.44
-26.29
-26.45
-27.38
-29.45
-32.94
-37.59
-43.05
-48.90
-54.78
-60.47
-65.86
-70.96
-75.71
-79.99
-83.11
-84.53
-83.98
-81.66
-78.17
-74.42
-71.32
-69.44
-68.91
-68.63
-67.40
-64.14
-58.24
-49.62
-38.37
-24.42
-6.76
11.95
31.52
52.36
75.21
100.90
130.05
162.55
196.82
229.48
255.71
271.22
273.19
261.53
239.16
210.80
181.21
153.63
129.20
107.51
88.19
71.04
56.29
44.16
34.37
26.04
18.03
9.51
0.26
-8.99
-17.24
-23.67
-27.95
-30.37
-31.63
-32.57
-33.84
-35.70
-37.79
-39.52
-40.36
-40.05
-38.79
-37.10
-35.60
-34.73
-34.60
-34.99
-35.54
-35.91
-35.92
-35.61
-35.07
-34.42
-33.73
-33.01
-32.21
-31.30
-30.26
-29.06
-27.71
-26.22
-24.67
-23.15
-21.72
-20.47
-19.43
-18.59
-17.91
-17.33
-16.81
-16.33
-15.94
-15.63
-15.40
-15.15
-14.77
-14.11
-13.07
-11.59
-9.68
-7.47
-5.12
-2.83
-0.76
1.04
2.60
3.97
5.19
6.21
6.93
7.28
7.22
6.84
6.26
5.63
5.06
4.62
4.34
4.19
4.14
4.13
4.11
4.09
4.09
4.15
4.25
4.34
4.36
4.24
4.00
3.72
3.46
3.23
2.94
2.49
1.77
0.76
-0.47
-1.81
-3.12
-4.32
-5.33
-6.13
-6.72
-7.12
-7.38
-7.60
-7.88
-8.31
-8.92
-9.67
-10.44
-11.14
-11.65
-11.93
-11.91
-11.54
-10.77
-9.54
-7.86
-5.82
-3.59
-1.38
0.66
2.45
3.95
5.17
6.09
6.69
6.98
7.00
6.82
6.50
6.13
5.71
5.28
4.85
4.47
4.18
3.98
3.82
3.62
3.32
2.89
2.40
1.92
1.51
1.18
0.92
0.69
0.48
0.27
0.04
-0.29
-0.75
-1.33
-1.97
-2.55
-2.94
-3.12
-3.12
-3.02
-2.91
-2.77
-2.55
-2.19
-1.67
-1.07
-0.53
-0.14
0.05
0.09
0.08
0.06
0.01
-0.11
-0.38
-0.80
-1.29
-1.75
-2.10
-2.36
-2.57
-2.83
-3.15
-3.55
-4.02
-4.54
-5.11
-5.74
-6.45
-7.15
-7.78
-8.25
-8.50
-8.48
-8.12
-7.37
-6.21
-4.68
-2.85
-0.89
1.01
2.69
4.00
4.90
5.36
5.37
4.92
4.06
2.96
1.89
1.15
0.98
1.45
2.40
3.55
4.62
5.39
5.83
5.99
5.93
5.70
5.33
4.85
4.36
3.96
3.69
3.51
3.29
2.96
2.45
1.82
1.20
0.74
0.55
0.67
1.02
1.46
1.80
1.89
1.64
1.11
0.42
-0.23
-0.74
-1.06
-1.22
-1.30
-1.37
-1.49
-1.72
-2.10
-2.61
-3.17
-3.64
-3.94
-4.02
-3.94
-3.83
-3.78
-3.84
-3.93
-3.94
-3.76
-3.38
-2.85
-2.27
-1.68
-1.11
-0.55
-0.00
0.52
0.92
1.11
1.03
0.68
0.11
-0.55
-1.24
-1.91
-2.56
-3.27
-4.09
-5.01
-5.98
-6.85
-7.43
-7.59
-7.26
-6.48
-5.37
-4.03
-2.58
-1.06
0.47
1.98
3.41
4.65
5.60
6.14
6.25
5.96
5.32
4.48
3.60
2.80
2.11
1.54
1.01
0.46
-0.14
-0.71
-1.13
-1.29
-1.15
-0.76
-0.23
0.35
0.94
1.57
2.28
3.07
3.80
4.31
4.46
4.23
3.70
3.05
2.44
1.93
1.54
1.18
0.80
0.41
0.06
-0.19
-0.25
-0.14
0.10
0.34
0.50
0.56
0.52
0.48
0.51
0.63
0.80
0.92
0.93
0.78
0.54
0.28
0.07
-0.13
-0.40
-0.84
-1.47
-2.18
-2.80
-3.19
-3.32
-3.27
-3.22
-3.31
-3.56
-3.86
-4.03
-3.95
-3.59
-3.07
-2.50
-1.95
-1.39
-0.79
-0.10
0.63
1.25
1.66
1.80
1.71
1.47
1.20
0.91
0.62
0.32
0.06
-0.09
-0.04
0.24
0.70
1.20
1.60
1.77
1.69
1.43
1.10
0.83
0.70
0.70
0.75
0.76
0.63
0.30
-0.18
-0.73
-1.24
-1.67
-2.00
-2.25
-2.45
-2.62
-2.79
-3.00
-3.36
-3.88
-4.60
-5.43
-6.21
-6.79
-7.01
-6.80
-6.11
-4.98
-3.44
-1.59
0.43
2.43
4.19
5.58
6.57
7.20
7.53
7.60
7.36
6.76
5.83
4.65
3.42
2.27
1.29
0.39
-0.50
-1.40
-2.23
-2.83
-3.11
-3.04
-2.74
-2.39
-2.14
-2.09
-2.23
-2.54
-2.99
-3.54
-4.14
-4.68
-5.04
-5.11
-4.83
-4.26
-3.52
-2.76
-2.12
-1.69
-1.48
-1.46
-1.53
-1.56
-1.45
-1.16
-0.68
-0.09
0.52
1.09
1.54
1.87
2.04
2.09
2.04
1.94
1.87
1.87
1.94
2.04
2.11
2.11
2.03
1.90
1.74
1.55
1.35
1.16
0.98
0.82
0.63
0.33
-0.11
-0.66
-1.19
-1.55
-1.62
-1.39
-1.04
-0.78
-0.80
-1.12
-1.63
-2.13
-2.51
-2.76
-3.00
-3.40
-4.08
-5.04
-6.14
-7.23
-8.16
-8.84
-9.30
-9.60
-9.82
-10.02
-10.27
-10.62
-11.06
-11.54
-11.93
-12.02
-11.65
-10.70
-9.24
-7.49
-5.75
-4.33
-3.36
-2.85
-2.68
-2.69
-2.78
-2.94
-3.21
-3.62
-4.16
-4.74
-5.28
-5.75
-6.18
-6.63
-7.16
-7.85
-8.72
-9.79
-11.07
-12.56
-14.20
-15.85
-17.35
-18.55
-19.39
-19.90
-20.16
-20.32
-20.45
-20.52
-20.38
-19.85
-18.75
-17.03
-14.72
-11.88
-8.56
-4.83
-0.77
3.52
7.84
11.97
15.77
19.17
22.18
24.87
27.30
29.45
31.24
32.60
33.47
33.89
33.92
33.71
33.41
33.15
33.00
32.94
32.87
32.64
32.14
31.31
30.21
28.92
27.61
26.35
25.16
23.95
22.66
21.25
19.75
18.24
16.78
15.41
14.14
12.95
11.89
11.01
10.40
10.09
10.05
10.20
10.36
10.35
10.08
9.54
8.83
8.08
7.44
7.00
6.81
6.80
6.87
6.93
6.89
6.72
6.41
5.93
5.34
4.71
4.14
3.73
3.48
3.33
3.05
2.46
1.43
0.04
-1.44
-2.72
-3.61
-4.19
-4.77
-5.77
-7.45
-9.82
-12.54
-15.10
-16.96
-17.78
-17.49
-16.27
-14.49
-12.59
-10.94
-9.75
-9.00
-8.31
-6.95
-4.02
1.21
8.79
17.87
26.71
33.22
35.61
33.14
26.36
16.90
6.84
-1.99
-8.43
-12.23
-13.75
-13.71
-12.90
-12.03
-11.62
-11.97
-13.14
-14.89
-16.79
-18.30
-18.88
-18.26
-16.46
-13.80
-10.81
-8.07
-5.97
-4.61
-3.70
-2.76
-1.31
0.92
3.85
7.15
10.29
12.80
14.41
15.20
15.45
15.54
15.88
16.79
18.44
20.73
23.29
25.54
26.89
26.76
24.83
21.38
17.34
14.11
12.79
13.71
16.22
18.98
20.14
18.20
13.00
6.33
1.25
0.59
5.81
16.54
31.07
46.39
59.37
67.97
71.97
72.51
70.84
67.76
63.81
59.62
54.81
47.77
36.08
17.51
-9.55
-45.84
-90.92
-142.73
-191.80
-225.35
-234.39
-220.03
-191.35
-158.07
-126.15
-97.72
-72.80
-50.73
-31.91
-17.69
-9.10
-5.61
-5.17
-5.37
-4.44
-1.57
3.26
8.87
13.37
15.31
14.57
12.33
10.11
9.01
9.50
11.52
14.22
16.37
16.98
15.93
13.94
11.93
10.58
10.15
10.62
11.55
12.32
12.40
11.70
10.51
9.23
8.16
7.43
7.06
6.93
6.86
6.65
6.24
5.68
5.05
4.40
3.78
3.23
2.82
2.59
2.54
2.62
2.72
2.74
2.61
2.32
1.99
1.72
1.72
2.04
2.57
3.06
3.25
2.97
2.25
1.35
0.69
0.66
1.35
2.48
3.54
3.94
3.33
1.83
0.01
-1.23
-1.09
0.73
3.80
7.17
9.67
10.46
9.35
6.73
3.55
0.41
-2.53
-5.86
-10.50
-17.26
-26.52
-38.05
-51.76
-66.87
-81.63
-92.93
-96.84
-90.01
-71.55
-44.33
-13.81
13.31
32.11
41.13
42.42
39.73
36.34
33.68
31.41
28.69
25.17
21.62
19.28
18.91
20.19
21.94
22.81
21.78
18.97
15.21
11.77
9.67
9.30
10.21
11.49
12.17
11.66
10.02
7.78
5.69
4.36
4.01
4.41
5.05
5.41
5.20
4.43
3.34
2.29
1.52
1.12
1.03
1.08
1.13
1.11
1.02
0.87
0.65
0.30
-0.18
-0.72
-1.14
-1.22
-0.80
0.07
1.14
2.02
2.30
1.83
0.82
-0.20
-0.64
-0.16
1.09
2.47
3.07
2.13
-0.57
-4.40
-8.07
-10.02
-9.15
-5.12
1.45
9.37
17.56
25.31
32.69
40.26
48.23
57.05
66.87
77.69
89.13
99.86
107.06
106.91
96.02
73.67
42.36
7.97
-22.47
-43.61
-53.80
-55.12
-51.66
-47.04
-42.85
-38.76
-33.72
-27.34
-20.40
-14.35
-10.28
-8.38
-7.86
-7.65
-7.12
-6.65
-7.37
-10.63
-17.30
-27.29
-39.50
-51.92
-62.42
-69.43
-72.24
-71.05
-66.71
-60.25
-51.95
-42.98
-33.69
-24.30
-15.09
-6.51
0.93
6.75
10.74
13.04
13.93
14.06
14.01
14.14
14.54
15.16
15.78
16.31
16.72
16.89
16.97
17.08
17.27
17.51
17.80
18.14
18.50
18.97
19.49
20.21
21.24
22.66
24.46
26.62
29.00
31.35
33.42
34.69
34.84
33.54
30.60
25.89
19.50
11.65
2.66
-6.68
-16.10
-25.18
-33.57
-40.96
-47.18
-52.09
-55.57
-57.98
-58.71
-57.59
-54.44
-49.16
-41.75
-32.35
-21.23
-8.44
5.01
18.56
31.49
43.19
53.13
60.85
65.95
68.35
68.01
64.92
59.45
51.94
42.88
32.80
22.58
12.69
3.65
-4.13
-10.48
-15.21
-18.43
-20.32
-21.14
-21.32
-20.94
-20.18
-19.19
-18.17
-17.14
-16.23
-15.47
-14.90
-14.37
-13.79
-13.08
-12.20
-11.22
-10.24
-9.44
-8.94
-8.76
-8.74
-8.68
-8.33
-7.62
-6.67
-5.82
-5.44
-5.80
-6.87
-8.31
-9.51
-9.95
-9.40
-8.15
-6.91
-6.53
-7.65
-10.23
-13.59
-16.54
-18.00
-17.48
-15.44
-13.24
-12.47
-14.31
-18.79
-24.66
-29.90
-32.71
-32.24
-29.16
-25.36
-23.04
-23.92
-28.68
-36.84
-46.84
-56.01
-60.86
-57.90
-44.87
-22.17
6.91
36.83
62.02
78.99
87.51
90.02
90.14
90.75
92.63
94.28
92.67
84.67
68.16
43.44
13.10
-18.58
-46.98
-69.02
-84.52
-95.72
-105.52
-115.02
-121.99
-121.72
-109.72
-84.89
-51.04
-15.72
13.06
30.35
36.03
33.99
29.64
26.73
25.82
24.98
21.74
15.12
6.39
-1.81
-7.08
-8.71
-7.89
-6.96
-8.28
-12.89
-20.31
-28.90
-36.71
-42.44
-45.94
-48.18
-50.66
-54.69
-60.74
-68.42
-76.67
-84.24
-90.17
-94.01
-95.71
-95.34
-93.01
-88.10
-79.84
-67.58
-51.03
-30.54
-7.08
17.93
42.83
65.51
84.79
100.00
110.91
117.61
120.49
120.08
117.06
112.08
106.35
100.17
93.90
87.78
81.94
76.43
71.23
66.30
61.57
56.99
52.55
48.31
44.29
40.51
36.96
33.64
30.54
27.64
24.92
22.38
20.07
17.98
16.12
14.48
13.05
11.80
10.71
9.75
8.90
8.21
7.65
7.23
6.94
6.80
6.79
6.92
7.18
7.60
8.22
9.01
9.92
10.83
11.60
12.04
12.24
11.72
10.25
7.74
4.16
-0.38
-5.71
-11.53
-17.50
-23.27
-28.54
-33.00
-36.41
-38.66
-39.80
-39.97
-39.42
-38.37
-37.13
-35.96
-35.00
-34.32
-33.97
-33.98
-34.30
-34.88
-35.58
-36.32
-37.03
-37.50
-37.67
-37.48
-37.03
-36.50
-36.08
-35.94
-36.20
-36.96
-37.99
-39.20
-40.54
-42.14
-44.13
-46.69
-49.89
-53.68
-58.00
-62.26
-66.19
-69.58
-72.60
-75.55
-78.69
-82.08
-85.45
-88.46
-90.07
-89.68
-86.78
-81.44
-74.08
-64.91
-53.30
-37.34
-19.36
0.44
21.75
44.65
68.43
91.84
113.76
133.92
152.94
171.91
192.68
216.74
246.27
281.63
320.95
360.18
394.17
417.76
426.98
420.65
399.99
369.75
334.17
295.68
254.83
211.53
166.24
120.48
76.98
28.31
-24.71
-76.46
-120.77
-155.57
-182.80
-205.25
-224.04
-238.04
-245.28
-242.92
-230.94
-212.40
-192.03
-174.29
-161.68
-154.60
-151.61
-150.12
-146.26
-137.81
-124.95
-109.98
-96.08
-85.55
-79.02
-75.29
-72.07
-65.73
-53.94
-36.94
-17.72
-1.01
8.88
9.10
-1.18
-20.67
-45.40
-68.72
-82.84
-81.97
-65.12
-37.10
-7.63
11.92
13.08
-6.11
-38.84
-72.71
-95.27
-98.48
-80.58
-44.92
3.06
58.22
108.12
141.35
153.58
147.73
130.09
105.84
78.14
49.07
21.70
-0.64
-14.11
-16.73
-9.21
3.78
16.46
24.41
26.40
25.05
24.46
29.27
42.41
63.65
89.87
115.41
134.52
139.50
127.50
99.41
59.30
12.73
-37.41
-83.90
-119.90
-143.02
-155.53
-160.18
-158.42
-150.38
-136.11
-116.85
-94.83
-73.64
-57.05
-47.68
-45.81
-48.31
-50.96
-48.86
-37.49
-14.09
20.10
60.05
96.40
120.71
129.16
123.48
109.45
93.76
81.07
72.24
65.39
58.34
50.74
43.97
39.59
38.31
39.60
42.12
44.19
44.67
43.30
40.39
36.03
30.12
21.75
10.86
-1.62
-14.02
-24.58
-32.17
-36.74
-39.36
-41.55
-44.19
-47.09
-49.52
-50.79
-50.56
-48.85
-46.03
-42.50
-38.33
-32.69
-24.19
-11.87
4.41
23.95
45.45
66.64
84.29
94.25
92.70
77.37
47.86
6.02
-44.29
-94.75
-134.02
-153.98
-154.41
-141.13
-120.92
-98.40
-75.86
-54.37
-34.63
-17.89
-5.62
1.52
4.71
6.36
8.76
13.24
19.91
28.06
36.31
43.21
47.96
50.71
52.70
54.46
55.49
54.47
49.90
40.71
26.67
8.71
-10.30
-27.87
-42.52
-53.81
-62.19
-68.71
-74.87
-82.24
-91.67
-102.40
-111.21
-113.15
-103.43
-79.99
-45.46
-6.60
28.07
52.17
63.88
66.69
66.54
68.78
75.92
87.20
100.12
112.30
122.93
132.46
141.86
151.58
161.21
170.06
177.78
185.21
193.12
201.46
207.37
206.56
195.88
174.87
146.64
116.78
91.22
73.07
62.31
54.40
45.39
34.62
24.28
16.42
9.82
4.38
-4.16
-20.09
-48.50
-89.35
-136.98
-183.03
-221.31
-250.04
-270.97
-287.53
-301.93
-319.16
-341.16
-366.14
-390.15
-410.40
-426.36
-439.17
-450.29
-430.72
-367.49
-269.72
-161.93
-65.15
11.81
69.65
112.92
146.53
174.58
195.09
206.38
209.40
207.52
203.32
198.71
194.04
188.99
183.03
171.69
151.62
122.39
88.56
54.58
23.91
-1.19
-19.48
-30.67
-37.86
-44.19
-51.14
-58.49
-66.05
-74.06
-82.92
-91.96
-98.63
-99.80
-91.84
-72.42
-42.49
-7.27
25.77
50.02
62.55
64.74
60.25
53.00
45.37
37.81
29.55
20.25
10.57
1.98
-4.29
-8.05
-10.09
-11.63
-13.69
-16.31
-18.57
-19.08
-16.71
-11.18
-3.33
5.39
13.21
18.71
21.29
21.20
19.31
16.65
13.92
11.26
8.68
5.84
2.37
-1.90
-6.85
-12.08
-17.13
-21.65
-25.60
-28.69
-31.03
-33.00
-35.02
-37.42
-40.31
-43.57
-46.97
-50.31
-52.80
-54.12
-54.22
-53.16
-50.82
-46.69
-39.68
-27.90
-13.93
1.94
19.75
39.71
61.82
85.36
108.34
127.48
139.16
140.54
131.60
114.30
91.91
67.63
43.51
20.37
-1.54
-21.65
-38.84
-51.06
-56.95
-56.31
-50.17
-40.30
-28.57
-16.63
-5.83
2.68
8.32
10.66
9.75
6.30
1.73
-2.05
-3.30
-1.13
4.03
10.58
16.21
18.93
17.91
13.77
8.29
3.42
0.75
1.13
4.75
11.40
20.49
31.23
42.68
54.10
65.14
75.70
85.65
94.51
101.51
105.85
107.31
106.55
104.93
103.91
104.18
105.38
106.30
105.76
103.23
99.24
95.30
93.16
94.17
98.35
104.50
110.83
116.02
119.77
122.88
126.96
133.57
143.59
155.90
167.98
176.96
180.96
179.27
171.81
158.70
140.35
118.40
95.21
74.21
59.12
52.20
52.33
54.50
51.75
38.40
12.82
-23.63
-67.54
-115.07
-163.25
-210.57
-256.65
-301.29
-343.64
-374.24
-383.16
-366.54
-330.08
-285.03
-240.68
-201.45
-167.57
-137.22
-108.41
-81.03
-56.55
-36.41
-21.19
-9.98
-1.07
7.41
16.95
28.24
40.29
51.01
58.30
61.09
59.73
55.49
49.96
44.72
41.07
39.25
38.71
38.83
38.55
37.50
35.59
32.59
28.10
21.50
11.74
-2.61
-17.74
-32.46
-46.05
-57.78
-67.02
-73.20
-75.99
-75.64
-73.03
-69.28
-65.98
-64.00
-63.17
-62.83
-62.04
-60.10
-56.97
-53.33
-50.27
-49.29
-51.02
-54.88
-59.49
-63.30
-65.16
-64.81
-62.92
-60.56
-59.22
-59.88
-63.16
-69.14
-76.99
-84.43
-87.78
-82.98
-67.33
-41.54
-9.91
20.96
44.71
57.75
60.34
55.56
47.36
38.60
30.29
22.43
15.16
9.84
8.41
12.35
21.32
33.19
44.92
53.83
58.78
60.61
61.54
64.00
69.57
77.77
86.56
93.43
96.54
95.66
92.18
88.38
86.47
88.17
93.78
102.55
112.64
121.14
124.16
117.81
99.74
69.11
31.67
-4.71
-32.82
-48.67
-52.40
-47.29
-37.53
-26.21
-14.68
-3.22
7.24
14.58
16.21
10.78
-1.09
-17.03
-34.05
-49.77
-63.25
-75.56
-87.50
-101.07
-117.53
-136.94
-157.77
-176.66
-188.82
-189.24
-174.96
-146.83
-110.04
-72.27
-41.19
-21.43
-13.22
-12.98
-15.77
-17.89
-18.05
-16.93
-15.25
-13.20
-10.01
-4.82
2.60
11.25
19.23
24.55
26.04
24.25
20.67
17.36
16.17
18.09
23.22
30.96
40.37
49.03
56.85
63.97
70.52
76.43
81.21
84.43
85.73
85.04
82.48
78.83
74.61
70.14
65.56
60.75
56.01
51.81
48.78
47.31
47.72
49.51
51.68
54.31
55.65
55.31
53.80
52.03
50.79
50.39
50.20
49.04
45.99
40.55
33.62
26.79
21.76
19.72
21.48
27.28
36.84
48.77
59.91
65.83
61.66
44.20
13.68
-25.40
-65.94
-100.95
-126.27
-141.88
-150.56
-155.66
-158.67
-158.76
-153.61
-141.67
-123.77
-103.17
-84.01
-69.16
-59.14
-51.54
-44.08
-35.38
-25.76
-16.92
-10.70
-7.75
-6.88
-5.68
-2.00
4.74
13.39
21.65
27.23
29.14
27.74
24.41
20.80
17.77
15.16
12.38
8.80
3.95
-2.18
-9.50
-17.95
-27.50
-37.85
-48.13
-57.14
-63.74
-67.42
-68.64
-68.62
-68.51
-68.66
-68.18
-65.33
-58.61
-47.35
-31.95
-13.75
5.49
24.05
40.57
54.16
64.91
73.34
80.76
89.32
101.26
117.83
138.99
163.57
189.66
215.60
239.14
259.04
275.60
290.59
306.19
324.01
344.33
365.69
384.89
395.01
389.56
365.45
324.45
272.10
215.18
159.71
109.73
66.90
27.13
-13.96
-57.94
-102.79
-145.19
-183.34
-217.49
-249.12
-279.89
-315.83
-361.14
-415.54
-474.16
-530.79
-581.26
-624.04
-659.13
-655.63
-593.80
-476.18
-328.36
-180.19
-49.65
58.28
146.02
218.33
279.36
327.43
360.77
380.47
390.84
398.20
406.25
415.87
426.40
435.92
439.04
431.70
412.94
385.67
354.27
321.50
287.01
253.94
222.82
190.95
155.91
116.94
75.74
35.38
-1.33
-32.63
-57.69
-77.20
-93.39
-108.16
-122.90
-137.13
-149.01
-156.34
-157.87
-153.81
-146.09
-137.88
-131.72
-131.03
-136.54
-145.81
-154.49
-159.01
-158.35
-153.95
-149.31
-147.18
-153.40
-169.94
-193.50
-216.91
-234.22
-243.90
-247.62
-251.18
-259.98
-285.95
-336.30
-409.43
-494.13
-574.82
-636.74
-667.46
-664.26
-632.20
-594.09
-572.94
-581.72
-618.33
-671.08
-726.45
-771.58
-802.93
-755.07
-599.04
-357.26
-91.02
145.40
329.22
446.98
522.39
569.25
595.20
595.35
574.51
540.83
506.79
482.39
470.48
470.37
475.38
480.78
476.96
459.01
429.97
396.93
365.64
336.84
309.51
279.09
243.29
196.92
136.79
72.03
13.81
-29.59
-56.86
-70.99
-78.14
-82.45
-87.97
-95.24
-100.83
-99.51
-86.45
-59.96
-22.31
19.97
59.57
89.65
107.72
116.38
120.42
124.05
128.02
129.00
121.44
101.26
67.93
25.99
-16.47
-51.95
-76.12
-89.12
-95.02
-100.16
-105.05
-107.83
-105.15
-94.23
-75.50
-52.63
-30.93
-15.54
-8.97
-10.96
-19.94
-33.03
-46.61
-56.92
-60.69
-54.06
-38.92
-20.18
-3.73
5.42
5.52
-1.55
-12.00
-22.34
-30.74
-37.96
-45.00
-51.77
-57.10
-59.42
-57.09
-50.09
-40.00
-28.61
-17.89
-8.27
1.31
12.52
26.86
44.80
65.60
85.42
102.31
114.66
121.94
124.74
124.23
121.75
118.21
114.07
109.28
103.86
97.54
90.37
82.79
75.39
68.73
62.89
57.90
53.49
49.48
45.55
41.38
36.92
32.09
28.06
23.59
18.06
11.10
2.69
-7.10
-18.07
-29.64
-41.22
-52.27
-62.49
-71.45
-78.83
-84.44
-88.23
-90.39
-90.77
-89.57
-87.15
-84.17
-81.03
-78.08
-75.52
-73.35
-71.55
-69.42
-66.67
-63.40
-60.14
-57.41
-55.67
-55.09
-55.48
-56.43
-56.68
-55.54
-52.89
-49.08
-44.45
-38.89
-31.42
-19.72
-6.17
9.50
27.46
47.37
68.39
89.53
110.10
129.86
148.98
167.80
187.72
210.24
237.16
269.94
308.37
349.17
385.53
408.36
409.12
383.72
333.70
266.00
190.36
115.74
47.88
-11.57
-63.95
-111.81
-157.32
-202.75
-250.94
-305.18
-367.82
-438.11
-510.82
-576.76
-625.57
-649.40
-646.28
-620.69
-581.39
-537.76
-496.39
-459.76
-427.07
-396.25
-365.86
-335.85
-307.14
-280.62
-256.58
-234.61
-214.00
-194.20
-174.89
-156.16
-138.11
-120.70
-103.69
-86.69
-69.26
-50.99
-31.58
-10.86
11.17
34.31
58.09
81.86
104.80
126.09
145.25
162.10
177.17
191.50
206.85
225.05
247.26
272.68
297.71
316.26
321.16
306.82
271.48
218.44
155.42
92.23
37.98
-1.09
-22.38
-26.43
-15.54
7.22
38.78
76.10
116.06
155.61
192.13
223.80
249.85
270.66
287.40
301.86
316.23
332.91
354.17
381.01
412.14
443.20
467.58
478.26
470.61
444.11
402.39
351.79
299.17
250.44
209.91
180.20
161.98
153.45
150.18
145.91
134.40
111.71
77.57
34.95
-11.74
-58.30
-101.19
-137.45
-164.55
-180.76
-186.03
-182.20
-172.33
-159.38
-145.08
-129.74
-112.97
-94.58
-74.72
-53.37
-29.56
-1.48
32.32
71.33
112.39
150.76
182.07
204.32
217.90
224.01
222.87
212.94
191.82
158.07
113.14
61.81
10.96
-33.02
-66.59
-89.99
-106.62
-121.21
-137.73
-157.90
-180.70
-202.61
-218.89
-225.50
-220.68
-205.84
-185.46
-165.82
-153.25
-152.20
-163.62
-184.16
-206.56
-221.42
-221.00
-202.41
-169.29
-130.26
-95.00
-69.59
-54.45
-45.20
-36.12
-24.31
-11.04
-0.23
4.51
2.60
-3.55
-10.34
-14.92
-15.86
-12.15
-1.85
17.86
48.91
89.95
135.15
175.14
199.97
202.83
182.65
145.01
100.32
60.49
35.25
28.68
37.84
53.40
62.94
55.74
27.73
-16.28
-64.41
-102.42
-120.40
-116.85
-98.62
-76.17
-57.75
-45.07
-33.07
-14.16
16.37
56.50
98.17
131.22
148.66
149.23
136.38
114.87
88.23
58.85
29.61
5.64
-6.90
-4.35
10.75
29.13
38.51
29.86
2.50
-35.59
-71.89
-96.02
-104.67
-101.82
-95.33
-91.98
-94.74
-101.90
-109.29
-112.51
-108.39
-95.73
-75.31
-49.77
-23.21
-0.38
15.26
23.61
28.66
37.03
54.81
84.14
121.58
159.61
190.09
208.07
213.73
211.56
207.12
203.66
200.89
196.26
188.18
178.12
170.32
169.03
174.94
183.55
186.66
176.30
148.69
106.03
54.86
2.07
-48.98
-99.14
-151.09
-205.43
-258.35
-302.60
-331.27
-341.80
-337.60
-326.57
-317.39
-315.57
-320.92
-328.38
-330.60
-320.79
-294.77
-251.71
-194.38
-128.53
-62.16
-2.96
42.92
72.64
87.40
91.78
91.72
91.48
92.66
93.31
91.17
83.32
67.49
43.56
14.93
-11.11
-26.15
-22.30
3.20
49.41
108.89
169.67
219.68
251.07
262.61
256.80
239.59
215.76
192.47
175.66
169.23
175.08
193.53
223.95
262.70
306.54
324.20
294.63
216.44
109.62
0.96
-91.68
-152.71
-192.12
-219.65
-242.03
-258.43
-265.65
-264.40
-256.42
-245.84
-237.33
-236.64
-245.72
-264.32
-286.75
-305.99
-316.78
-317.38
-309.95
-298.45
-287.83
-279.51
-272.41
-261.44
-241.09
-208.07
-162.82
-109.02
-51.55
4.79
57.79
106.57
151.76
193.65
231.53
263.92
289.39
307.48
318.71
324.90
328.10
330.14
332.10
334.13
335.78
336.52
336.19
334.90
332.98
330.49
326.88
321.26
312.99
302.10
289.62
277.08
265.86
256.29
247.33
236.79
222.34
202.71
178.26
150.91
123.01
96.19
70.62
45.05
17.70
-12.59
-45.58
-79.80
-113.28
-144.77
-174.15
-202.40
-230.96
-260.76
-291.49
-321.41
-348.15
-369.48
-384.67
-394.61
-401.62
-409.01
-420.24
-438.38
-465.40
-501.26
-542.92
-584.49
-617.50
-633.42
-626.86
-597.50
-550.02
-491.88
-430.14
-369.07
-310.51
-254.09
-199.63
-148.47
-103.04
-65.18
-34.75
-9.39
14.41
38.86
65.50
94.78
125.79
156.52
183.75
203.07
209.44
205.13
191.09
171.31
152.61
141.15
139.01
143.84
151.07
156.99
160.51
161.98
162.73
163.09
161.58
155.99
145.26
130.51
114.92
102.43
95.39
94.33
97.63
102.14
104.61
103.22
97.96
90.74
83.61
77.33
71.35
63.89
52.68
35.95
13.50
-13.77
-43.86
-73.49
-98.18
-112.58
-112.19
-95.45
-65.30
-28.49
6.40
32.36
46.47
50.21
47.72
43.12
38.55
33.74
27.64
19.52
10.15
1.38
-4.99
-8.27
-9.07
-8.54
-8.21
-8.56
-9.19
-8.88
-6.12
0.17
10.00
22.35
35.44
47.28
56.37
61.91
64.32
65.10
66.18
68.87
73.59
79.74
85.87
90.52
92.40
91.62
89.89
89.60
92.29
98.54
108.18
120.56
134.74
148.16
157.80
160.62
153.76
134.81
103.64
63.01
17.78
-26.95
-69.04
-107.78
-143.30
-172.91
-196.12
-213.92
-228.04
-240.61
-253.98
-272.18
-297.04
-326.04
-353.21
-371.37
-373.19
-353.13
-309.56
-235.46
-140.39
-46.03
26.88
69.53
85.61
84.84
76.20
64.72
52.01
37.85
22.42
9.90
5.16
10.33
24.00
42.45
61.49
78.60
92.65
103.24
114.04
129.66
153.28
185.64
224.67
265.69
302.08
326.02
331.96
319.59
292.88
258.38
222.68
190.30
162.85
139.69
119.27
101.01
86.34
76.30
70.34
65.98
59.77
48.93
32.39
10.89
-13.47
-37.82
-61.05
-83.43
-105.58
-127.15
-146.27
-160.19
-166.07
-161.98
-147.49
-125.69
-101.65
-80.30
-64.48
-54.45
-48.84
-45.49
-42.38
-38.26
-35.36
-37.89
-50.17
-74.78
-112.04
-160.62
-217.71
-279.46
-328.78
-349.42
-334.32
-290.99
-235.12
-180.23
-132.98
-94.01
-60.87
-30.52
-2.85
20.50
37.94
49.58
56.90
60.90
62.79
62.61
60.43
55.98
50.60
47.71
51.53
64.49
84.26
104.51
118.14
121.05
112.60
95.35
73.44
50.28
27.74
6.33
-13.43
-30.26
-41.97
-48.02
-49.18
-46.79
-42.59
-37.88
-32.98
-27.15
-19.18
-8.00
6.48
23.21
40.78
56.80
68.71
74.68
74.34
69.24
62.50
58.07
54.92
53.50
53.15
52.29
49.21
43.04
34.09
23.61
13.12
3.77
-3.22
-7.46
-8.97
-7.84
-4.25
1.37
8.18
15.04
20.77
25.10
28.17
30.57
33.17
36.67
41.34
46.89
52.56
57.38
60.73
62.07
61.08
57.78
52.57
46.13
39.18
32.43
26.23
20.80
16.06
11.79
7.83
4.15
0.81
-2.03
-4.19
-5.53
-5.95
-5.53
-4.58
-3.53
-2.90
-3.10
-4.34
-6.53
-9.44
-12.70
-15.96
-18.95
-21.48
-23.39
-24.59
-25.00
-24.61
-23.58
-22.11
-20.51
-19.05
-17.85
-16.85
-15.79
-14.37
-12.38
-9.83
-6.97
-4.17
-1.80
-0.11
0.88
1.34
1.54
1.75
2.15
2.75
3.50
4.29
5.08
5.92
6.89
8.13
9.69
11.54
13.54
15.48
17.19
18.57
19.64
20.49
21.21
21.90
22.57
23.18
23.64
23.79
23.49
22.64
21.13
18.96
16.10
12.58
8.39
3.50
-2.16
-8.71
-16.20
-24.57
-33.51
-42.47
-50.74
-57.62
-62.64
-65.62
-66.70
-66.14
-64.27
-61.29
-57.37
-52.72
-47.62
-42.49
-37.87
-34.29
-32.13
-31.57
-32.41
-34.05
-35.60
-36.10
-34.80
-31.43
-26.29
-20.11
-13.73
-7.81
-2.64
1.87
5.95
9.94
14.12
18.63
23.43
28.38
33.24
37.79
41.71
44.65
46.41
46.99
46.61
45.60
44.28
42.96
41.88
41.23
41.00
41.35
42.58
44.82
47.88
51.20
54.19
56.42
57.90
58.55
59.02
60.34
63.15
67.22
71.67
75.47
77.98
79.12
78.29
76.18
74.31
73.72
74.11
73.92
71.12
63.90
51.01
30.07
0.99
-34.38
-73.73
-115.46
-158.73
-203.07
-248.23
-294.01
-341.83
-388.85
-427.56
-448.07
-441.87
-404.78
-338.46
-250.31
-139.11
-20.08
84.23
156.91
195.11
206.21
199.88
183.90
163.92
146.10
130.13
116.42
105.25
94.97
82.00
62.97
37.43
8.49
-17.71
-36.34
-43.13
-36.60
-18.95
4.75
28.92
49.68
65.49
76.44
81.91
82.48
79.58
74.88
69.76
65.38
62.52
61.58
62.41
63.64
64.22
63.77
62.47
60.86
59.60
59.20
59.88
61.14
61.93
61.70
60.65
59.60
59.55
61.40
65.79
72.92
82.23
92.82
103.82
114.49
124.22
132.45
138.77
143.12
145.79
146.55
145.36
142.52
138.62
134.06
128.82
122.72
115.78
108.48
99.79
89.73
80.33
75.15
77.08
86.40
100.48
114.82
124.61
121.86
101.78
65.22
18.19
-32.08
-80.33
-123.79
-161.09
-191.26
-220.44
-253.49
-290.56
-327.02
-357.99
-381.87
-400.34
-416.42
-432.93
-461.05
-508.86
-576.51
-656.02
-737.47
-814.24
-883.81
-945.66
-942.16
-839.46
-647.08
-414.72
-194.16
-12.61
125.41
226.18
299.02
352.74
385.54
396.13
388.63
372.89
358.01
348.91
345.00
343.20
340.51
328.23
300.78
258.82
208.91
159.61
116.72
82.01
54.79
33.53
12.11
-14.08
-44.95
-74.85
-95.73
-101.25
-89.41
-63.48
-30.83
-2.47
13.04
13.30
2.92
-10.95
-22.65
-29.66
-32.67
-33.62
-34.60
-36.12
-37.31
-37.20
-34.97
-32.11
-31.48
-36.42
-48.07
-64.60
-81.79
-94.78
-99.68
-91.70
-72.81
-46.61
-18.25
8.65
33.48
58.45
87.01
122.49
170.89
233.78
306.07
376.33
432.09
464.81
472.69
460.66
438.35
421.85
422.22
441.18
471.56
503.43
528.75
542.36
540.66
487.27
368.17
200.98
25.90
-122.17
-228.36
-294.36
-329.52
-344.46
-347.44
-338.19
-316.76
-287.35
-258.20
-236.98
-227.21
-227.78
-234.34
-240.47
-234.98
-210.19
-165.61
-108.18
-48.30
4.43
45.01
71.43
84.30
88.45
87.79
83.28
73.66
58.25
38.90
19.68
4.84
-3.05
-2.42
5.70
17.94
29.77
37.79
41.14
41.53
42.37
46.90
57.85
75.71
98.12
120.37
137.10
143.41
136.83
118.92
93.96
69.67
54.68
54.59
68.65
90.06
109.02
116.94
110.58
89.09
56.78
20.80
-12.94
-42.68
-69.59
-95.13
-119.94
-141.76
-163.11
-185.14
-206.73
-226.24
-243.60
-259.12
-272.22
-282.92
-288.72
-294.36
-302.33
-310.95
-317.08
-319.71
-319.78
-319.61
-324.37
-296.20
-223.78
-126.62
-35.75
31.65
74.69
100.39
115.57
114.36
102.28
77.73
42.11
1.61
-37.16
-71.54
-103.48
-110.68
-87.37
-36.65
24.40
80.79
126.57
161.85
184.87
200.52
208.90
205.03
187.98
156.14
110.80
59.54
9.18
-36.83
-64.26
-64.26
-40.92
-4.77
32.47
65.22
94.06
120.69
143.68
162.89
177.78
187.22
191.80
192.89
192.21
191.65
191.11
185.04
170.42
146.82
115.44
77.98
35.23
-13.77
-64.58
-114.84
-168.71
-227.13
-286.88
-342.76
-391.05
-430.34
-460.67
-482.39
-457.99
-378.67
-268.40
-161.54
-76.37
-14.39
29.86
62.47
88.22
109.54
121.62
122.51
115.72
107.31
101.30
98.79
99.27
101.92
105.69
105.28
98.39
87.51
77.31
70.62
67.79
67.77
69.30
71.40
70.82
66.69
61.28
58.00
58.67
62.81
68.52
73.53
75.84
72.98
64.36
51.58
36.87
21.81
6.69
-8.53
-24.13
-40.10
-56.77
-74.09
-91.30
-106.56
-116.96
-118.91
-109.35
-87.73
-57.06
-23.37
6.35
26.94
36.94
38.52
35.70
32.14
29.38
27.12
24.43
20.97
17.52
15.35
15.27
16.99
19.28
20.69
20.11
17.56
13.96
10.62
8.64
8.45
9.60
11.17
12.09
11.68
9.99
7.59
5.34
3.93
3.62
4.18
5.04
5.58
5.45
4.62
3.41
2.24
1.46
1.19
1.32
1.58
1.72
1.56
1.12
0.52
-0.06
-0.50
-0.74
-0.82
-0.80
-0.76
-0.75
-0.77
-0.81
-0.86
-0.89
-0.91
-0.92
-0.93
-0.94
-0.96
-1.00
-1.03
-1.10
-1.18
-1.29
-1.42
-1.58
-1.77
-2.00
-2.25
-2.54
-2.88
-3.26
-3.69
-4.18
-4.72
-5.32
-5.98
-6.68
-7.43
-8.25
-9.12
-10.05
-10.97
-11.90
-12.86
-13.92
-15.12
-16.62
-18.62
-21.35
-25.04
-29.78
-35.58
-42.24
-49.36
-56.33
-62.36
-66.60
-68.23
-66.56
-61.23
-52.21
-39.81
-24.74
-7.99
9.38
26.21
41.50
54.42
64.35
70.99
74.31
74.41
71.57
66.23
58.96
50.37
41.04
31.53
22.34
13.81
6.16
-0.61
-6.55
-11.77
-16.25
-20.06
-23.31
-26.03
-28.38
-30.61
-32.89
-35.43
-38.47
-41.67
-44.78
-47.61
-50.03
-52.11
-54.05
-56.15
-58.66
-61.84
-65.13
-68.05
-70.16
-71.34
-71.74
-71.81
-72.17
-73.33
-75.51
-77.77
-79.01
-78.08
-74.15
-66.77
-55.72
-40.74
-20.87
0.78
23.59
47.49
72.82
100.08
129.73
161.82
195.38
227.95
255.55
274.36
281.12
274.67
256.57
230.60
201.40
172.79
146.78
123.49
102.52
83.25
65.60
50.03
37.09
26.92
18.93
11.99
4.84
-2.97
-11.21
-18.94
-24.94
-28.24
-28.71
-27.16
-25.06
-23.87
-24.21
-25.94
-28.58
-31.77
-35.72
-40.95
-47.64
-55.12
-62.00
-66.94
-69.77
-71.98
-76.00
-83.71
-95.02
-107.36
-116.62
-119.14
-113.27
-99.96
-82.06
-62.60
-43.57
-25.39
-7.51
10.62
28.77
45.82
60.37
71.43
78.93
83.62
86.57
88.56
89.61
89.00
85.68
78.89
68.52
55.35
40.58
25.32
10.16
-5.04
-20.81
-37.49
-54.74
-71.34
-85.45
-95.26
-99.66
-98.55
-92.80
-83.86
-73.24
-62.09
-51.14
-40.74
-31.10
-22.41
-14.90
-8.72
-3.91
-0.32
2.29
4.22
5.69
6.80
7.56
7.98
8.08
7.96
7.88
8.16
9.11
10.93
13.53
16.54
19.36
21.42
22.38
22.26
21.38
20.21
19.11
18.23
17.52
16.83
16.04
15.15
14.21
13.25
12.27
11.19
9.95
8.48
6.80
5.01
3.31
1.93
1.11
0.95
1.37
2.14
2.90
3.37
3.44
3.15
2.67
2.17
1.75
1.42
1.13
0.86
0.60
0.33
-0.01
-0.49
-1.19
-2.03
-2.88
-3.52
-3.78
-3.62
-3.10
-2.45
-1.86
-1.50
-1.38
-1.40
-1.30
-0.83
0.27
2.06
4.40
6.99
9.40
11.29
12.44
12.83
12.55
11.71
10.46
8.96
7.44
6.11
5.20
4.74
4.69
4.86
5.06
5.26
5.46
5.74
6.09
6.46
6.72
6.84
6.80
6.65
6.39
5.97
5.27
4.17
2.68
0.87
-1.18
-3.41
-5.84
-8.56
-11.63
-15.00
-18.50
-21.88
-24.85
-27.22
-28.88
-29.86
-30.26
-30.25
-29.93
-29.37
-28.51
-27.30
-25.68
-23.63
-21.27
-18.73
-16.19
-13.79
-11.64
-9.83
-8.39
-7.33
-6.64
-6.20
-5.83
-5.34
-4.58
-3.52
-2.27
-0.96
0.27
1.34
2.25
3.03
3.72
4.35
4.94
5.56
6.22
6.97
7.69
8.23
8.39
8.04
7.19
5.96
4.55
3.12
1.78
0.59
-0.35
-0.97
-1.14
-0.81
-0.02
1.08
2.30
3.45
4.44
5.25
5.91
6.45
6.91
7.28
7.50
7.53
7.30
6.81
6.09
5.20
4.22
3.19
2.17
1.17
0.26
-0.54
-1.20
-1.72
-2.13
-2.46
-2.72
-2.88
-2.89
-2.73
-2.45
-2.07
-1.62
-1.11
-0.48
0.29
1.16
2.05
2.86
3.48
3.89
4.15
4.37
4.63
4.94
5.19
5.26
5.03
4.45
3.63
2.70
1.84
1.17
0.71
0.43
0.28
0.19
0.14
0.05
-0.13
-0.43
-0.85
-1.42
-2.17
-3.17
-4.56
-6.44
-8.88
-11.77
-14.93
-18.13
-21.13
-23.76
-25.86
-27.17
-27.43
-26.39
-24.03
-20.56
-16.51
-12.45
-8.88
-6.02
-3.79
-2.00
-0.42
0.98
2.13
2.90
3.23
3.20
3.03
2.91
2.98
3.20
3.39
3.36
3.01
2.43
1.86
1.58
1.72
2.22
2.84
3.26
3.31
2.99
2.46
1.90
1.42
1.04
0.70
0.37
0.04
-0.26
-0.52
-0.76
-1.02
-1.27
-1.37
-1.22
-0.74
-0.02
0.78
1.48
1.95
2.24
2.45
2.68
2.95
3.16
3.21
3.04
2.73
2.37
2.08
1.88
1.77
1.70
1.63
1.55
1.47
1.37
1.17
0.79
0.20
-0.57
-1.43
-2.24
-2.89
-3.30
-3.51
-3.60
-3.71
-3.95
-4.42
-5.05
-5.72
-6.22
-6.37
-6.07
-5.35
-4.35
-3.24
-2.16
-1.15
-0.24
0.61
1.34
1.85
2.04
1.86
1.38
0.75
0.13
-0.36
-0.72
-1.01
-1.28
-1.54
-1.70
-1.66
-1.37
-0.84
-0.17
0.57
1.33
2.08
2.82
3.51
4.03
4.27
4.19
3.83
3.33
2.79
2.29
1.75
1.04
0.04
-1.20
-2.45
-3.40
-3.75
-3.36
-2.34
-0.93
0.57
1.95
3.15
4.18
5.08
5.87
6.48
6.85
6.93
6.78
6.48
6.15
5.89
5.71
5.59
5.41
5.10
4.64
4.11
3.65
3.35
3.25
3.24
3.19
2.97
2.58
2.08
1.55
1.04
0.51
-0.07
-0.68
-1.23
-1.63
-1.79
-1.78
-1.72
-1.78
-2.09
-2.63
-3.33
-4.01
-4.51
-4.67
-4.40
-3.67
-2.53
-1.10
0.46
1.97
3.28
4.29
4.97
5.36
5.50
5.41
5.12
4.65
4.05
3.44
2.98
2.77
2.85
3.15
3.53
3.88
4.14
4.34
4.56
4.82
5.06
5.16
5.03
4.64
4.07
3.46
2.94
2.53
2.20
1.88
1.51
1.09
0.64
0.16
-0.36
-0.96
-1.65
-2.40
-3.11
-3.69
-4.07
-4.30
-4.48
-4.73
-5.11
-5.56
-5.94
-6.06
-5.76
-5.04
-3.98
-2.72
-1.44
-0.26
0.77
1.62
2.29
2.73
2.90
2.80
2.50
2.13
1.84
1.73
1.84
2.09
2.37
2.58
2.71
2.76
2.82
2.90
3.05
3.22
3.35
3.35
3.13
2.63
1.85
0.87
-0.16
-1.11
-1.84
-2.35
-2.65
-2.85
-3.03
-3.22
-3.43
-3.63
-3.77
-3.86
-3.94
-4.03
-4.15
-4.24
-4.20
-3.81
-2.72
-0.52
3.26
9.02
17.05
27.43
39.94
53.98
68.61
82.54
94.31
102.49
105.93
103.94
96.41
83.84
67.17
47.73
27.08
6.79
-11.71
-27.35
-39.56
-48.35
-54.16
-57.75
-59.90
-61.21
-62.02
-62.39
-62.25
-61.46
-59.90
-57.42
-53.94
-49.45
-44.06
-38.03
-31.79
-25.80
-20.45
-16.00
-12.48
-9.81
-7.80
-6.30
-5.21
-4.42
-3.86
-3.46
-3.14
-2.81
-2.43
-2.03
-1.68
-1.51
-1.54
-1.74
-1.96
-2.00
-1.70
-1.05
-0.13
0.85
1.71
2.40
2.97
3.51
4.09
4.68
5.12
5.24
4.90
4.03
2.65
0.84
-1.39
-4.03
-7.04
-10.28
-13.45
-16.15
-17.98
-18.64
-18.05
-16.33
-13.73
-10.54
-7.03
-3.39
0.17
3.44
6.18
8.19
9.39
9.83
9.70
9.20
8.56
7.89
7.23
6.61
6.03
5.53
5.13
4.87
4.73
4.67
4.62
4.46
4.12
3.53
2.76
1.90
1.09
0.46
0.07
-0.13
-0.29
-0.55
-1.10
-1.98
-3.24
-4.89
-6.86
-9.03
-11.21
-13.15
-14.60
-15.34
-15.23
-14.23
-12.39
-9.83
-6.74
-3.36
0.04
3.23
6.04
8.41
10.32
11.78
12.73
13.07
12.80
11.97
10.81
9.58
8.53
7.76
7.25
6.87
6.45
5.91
5.25
4.52
3.78
3.05
2.35
1.67
1.06
0.58
0.26
0.13
0.13
0.16
0.12
-0.01
-0.21
-0.39
-0.44
-0.26
0.22
1.04
2.13
3.40
4.74
5.99
7.02
7.75
8.20
8.46
8.62
8.75
8.89
9.09
9.39
9.81
10.42
11.30
12.56
14.09
15.75
17.42
19.04
20.62
22.11
23.51
24.87
26.36
27.83
29.15
30.23
31.12
31.82
32.23
32.17
31.63
30.85
29.69
28.03
25.91
23.45
20.64
17.23
12.88
7.45
1.11
-6.59
-16.14
-27.91
-41.80
-57.44
-74.44
-92.72
-112.68
-129.63
-139.89
-142.02
-137.49
-128.85
-117.70
-104.50
-89.47
-73.10
-56.14
-40.15
-26.14
-14.66
-5.74
0.57
4.02
4.26
1.52
-2.93
-7.28
-8.99
-5.78
3.58
18.16
34.92
49.66
58.71
60.12
54.00
42.66
29.82
19.67
15.53
18.79
28.23
41.24
54.11
63.67
68.59
69.57
68.50
67.01
65.21
62.12
56.68
48.55
39.00
30.38
24.66
22.50
22.91
23.95
23.66
20.71
14.37
4.97
-6.50
-18.94
-31.48
-43.80
-56.23
-69.61
-81.97
-92.75
-100.84
-104.99
-104.81
-101.35
-96.56
-91.41
-84.80
-73.45
-54.73
-28.77
-0.11
23.36
33.99
28.42
9.70
-13.90
-32.09
-37.18
-26.32
-1.71
31.10
65.70
96.59
121.04
136.59
142.18
137.83
125.17
106.95
86.44
66.91
50.86
39.57
32.65
28.68
25.31
20.23
11.79
-0.36
-15.18
-30.44
-43.46
-52.14
-55.28
-53.28
-47.75
-40.86
-34.35
-28.97
-24.36
-19.58
-13.92
-7.22
-0.03
6.92
13.01
18.37
23.88
30.76
40.19
53.01
69.47
88.90
109.31
127.56
139.80
142.52
133.56
112.98
83.14
48.02
11.92
-21.82
-51.24
-75.55
-94.41
-107.61
-114.81
-115.78
-110.71
-100.60
-87.74
-74.73
-63.51
-54.87
-48.64
-43.94
-39.55
-34.16
-26.84
-18.39
-10.07
-2.61
4.06
10.30
16.23
21.67
26.17
29.24
29.01
24.56
17.18
9.71
4.53
2.26
1.85
1.45
-0.59
-7.30
-20.42
-39.19
-61.02
-83.75
-106.80
-131.06
-158.09
-175.45
-174.79
-158.12
-134.69
-111.11
-88.85
-67.40
-46.88
-28.23
-12.26
-1.19
3.78
3.66
1.19
-0.50
1.78
11.05
29.43
56.57
88.67
119.57
143.88
158.96
164.81
163.10
155.84
144.35
128.95
108.48
82.67
53.73
25.80
3.05
-12.37
-20.89
-24.88
-26.01
-26.35
-27.32
-29.23
-31.48
-33.00
-33.15
-32.03
-30.07
-27.46
-24.45
-21.26
-18.23
-15.96
-14.54
-14.06
-14.90
-17.38
-21.23
-25.80
-30.43
-34.63
-37.87
-38.27
-33.67
-22.97
-6.55
14.19
37.35
61.25
85.31
103.59
112.52
113.94
112.38
109.86
105.71
99.07
90.49
81.65
73.79
67.39
60.87
51.01
35.34
14.41
-7.78
-25.88
-36.04
-38.10
-34.66
-30.13
-28.85
-33.22
-43.16
-56.20
-69.65
-81.85
-92.33
-100.57
-105.77
-107.16
-104.22
-96.99
-86.12
-72.95
-59.35
-47.04
-36.69
-27.89
-19.80
-11.98
-5.07
-0.51
0.06
-4.73
-15.07
-29.39
-43.60
-51.86
-50.20
-39.80
-26.32
-15.95
-12.39
-14.73
-18.23
-16.95
-6.72
12.00
33.71
51.39
60.63
60.12
52.17
41.01
31.52
28.78
35.47
51.42
71.95
93.76
112.70
124.43
126.02
117.69
104.40
92.22
84.84
82.66
83.69
83.24
75.67
56.45
17.46
-37.52
-92.11
-128.63
-138.97
-125.38
-97.37
-66.72
-42.52
-28.03
-19.60
-10.86
0.97
14.86
28.66
39.75
46.44
48.76
48.19
47.63
48.43
49.43
45.49
34.27
15.11
-10.53
-38.86
-64.51
-81.46
-86.19
-79.36
-65.39
-50.47
-40.73
-39.19
-44.50
-52.12
-56.50
-53.62
-41.98
-22.09
3.85
32.08
58.79
81.06
96.59
103.79
102.08
92.65
78.00
60.33
40.07
16.93
-9.43
-39.58
-74.23
-113.86
-157.58
-196.31
-218.33
-217.91
-198.78
-168.72
-134.25
-99.66
-67.77
-39.14
-14.41
6.74
22.50
31.88
35.84
36.48
36.10
37.05
43.54
54.83
67.82
77.88
82.26
81.34
77.58
74.31
74.95
84.70
105.67
135.32
167.35
194.76
211.27
211.81
193.15
141.52
60.46
-29.90
-107.05
-158.96
-182.99
-181.20
-158.42
-121.83
-80.01
-38.94
-3.92
21.14
35.04
39.70
38.36
33.58
26.81
19.39
14.81
15.45
21.34
30.35
39.61
46.51
49.19
47.21
41.82
36.37
33.41
33.81
37.17
42.60
48.60
52.37
49.87
37.19
13.05
-21.36
-61.26
-99.41
-128.39
-143.50
-144.61
-135.66
-122.07
-108.02
-95.28
-83.37
-70.96
-57.48
-43.74
-31.65
-23.37
-19.86
-20.88
-25.62
-33.45
-44.23
-57.52
-71.43
-80.53
-79.93
-66.25
-40.04
-6.28
27.23
53.04
67.12
69.91
65.06
56.82
48.09
39.61
30.95
21.84
12.94
5.72
1.48
0.56
2.04
4.79
7.24
8.75
9.73
11.13
14.12
19.26
26.35
34.38
41.95
47.71
50.91
51.91
51.57
51.32
52.11
54.33
57.79
61.93
66.42
71.06
75.79
79.32
79.42
72.82
56.83
30.79
-3.42
-41.78
-79.98
-114.73
-145.64
-170.26
-186.62
-193.25
-188.76
-172.41
-144.93
-112.23
-77.39
-44.05
-15.05
8.04
25.62
39.77
50.54
58.61
64.58
69.43
73.53
77.30
80.73
83.66
85.93
87.25
87.69
87.22
85.97
83.46
79.31
73.32
65.65
56.78
47.05
36.79
26.08
15.08
3.81
-7.49
-18.51
-28.95
-38.59
-47.14
-53.79
-57.29
-56.40
-50.78
-41.26
-29.69
-18.28
-8.71
-1.65
3.42
7.68
11.98
16.11
19.16
20.45
20.29
19.91
20.84
24.38
31.20
40.77
51.46
61.42
69.53
75.83
80.84
84.83
87.46
88.16
85.97
79.60
67.91
50.24
26.22
-4.89
-44.34
-92.93
-146.03
-192.70
-220.58
-224.12
-207.50
-180.72
-153.42
-130.72
-112.09
-92.38
-66.44
-33.38
2.40
33.92
55.33
64.70
64.39
58.80
52.40
47.58
43.60
39.49
35.91
35.31
39.76
48.83
58.30
62.53
57.21
42.09
21.62
3.04
-6.87
-6.26
0.71
4.34
-3.01
-25.12
-60.07
-100.76
-138.10
-164.06
-175.37
-169.49
-152.55
-130.69
-108.23
-87.36
-68.88
-52.69
-37.11
-20.30
1.10
28.64
62.31
98.95
132.96
158.50
168.46
163.68
148.53
128.44
106.97
86.36
67.46
50.65
36.86
27.23
22.82
22.84
25.15
26.99
26.69
24.79
22.53
21.78
23.47
26.94
29.27
27.01
18.01
2.91
-15.45
-33.61
-48.78
-59.75
-66.33
-69.20
-68.88
-65.82
-60.65
-54.69
-49.77
-46.98
-46.23
-45.89
-43.69
-37.30
-25.25
-7.61
13.64
33.09
44.67
44.87
34.97
20.34
7.56
1.02
0.94
3.63
4.16
-0.12
-8.93
-19.73
-29.84
-37.91
-44.19
-49.54
-54.23
-57.41
-57.18
-51.77
-40.39
-23.89
-4.71
13.47
27.35
35.15
37.02
35.06
32.13
30.73
32.10
35.86
40.40
43.69
44.02
40.43
32.98
22.46
10.23
-1.92
-11.94
-17.86
-18.52
-14.29
-7.26
-0.62
2.78
1.94
-1.67
-4.68
-3.43
4.23
18.11
35.85
54.19
70.29
82.58
90.72
95.00
95.75
93.11
87.03
77.54
65.02
50.36
34.90
20.09
7.07
-3.69
-12.51
-20.35
-28.15
-36.17
-43.73
-49.50
-52.36
-52.07
-49.70
-47.23
-46.67
-49.06
-53.90
-59.49
-64.02
-66.66
-67.84
-68.93
-71.29
-75.55
-81.02
-85.87
-87.61
-84.04
-73.57
-55.03
-27.80
7.62
48.66
90.45
126.53
150.70
158.68
149.63
126.58
94.85
59.74
24.40
-10.43
-45.45
-78.00
-102.76
-114.79
-112.60
-99.29
-80.85
-63.35
-50.31
-41.50
-33.96
-24.77
-13.17
-0.61
10.21
18.10
23.53
28.70
36.25
47.57
61.57
75.23
85.58
90.73
90.65
86.58
80.25
73.01
65.64
58.41
49.39
38.81
27.61
17.03
8.00
1.09
-3.69
-6.74
-8.78
-10.57
-12.28
-14.02
-15.42
-15.72
-14.05
-10.20
-5.13
-0.76
0.75
-1.70
-8.15
-17.19
-26.52
-34.04
-38.73
-40.80
-40.92
-39.63
-35.19
-27.13
-17.43
-9.78
-7.11
-9.65
-15.07
-19.61
-20.02
-15.11
-6.43
2.67
8.77
9.53
5.17
-2.82
-12.20
-21.17
-29.43
-37.95
-47.93
-59.26
-69.94
-76.70
-76.93
-69.95
-55.60
-36.97
-18.26
-2.83
8.26
16.11
22.89
30.43
39.54
49.92
60.11
68.57
74.20
76.88
77.30
76.47
74.92
72.34
67.74
59.93
48.82
35.46
22.00
10.64
2.62
-2.25
-5.17
-7.64
-10.91
-15.30
-20.92
-27.64
-34.97
-42.14
-48.17
-52.24
-54.06
-54.23
-52.24
-49.01
-46.70
-47.84
-54.07
-65.18
-79.00
-91.91
-99.73
-98.53
-86.35
-63.97
-34.75
-3.81
23.63
43.83
55.54
59.84
59.31
56.18
51.56
45.84
39.62
34.47
32.87
37.68
48.97
64.61
80.28
91.06
93.40
86.63
72.75
55.15
37.13
21.02
8.14
1.08
0.54
4.67
9.34
9.81
3.40
-8.66
-21.51
-29.23
-28.54
-21.10
-12.32
-8.00
-10.87
-19.45
-29.54
-37.17
-40.89
-42.31
-43.88
-46.71
-49.91
-51.00
-47.47
-38.13
-23.90
-7.77
6.38
15.18
17.21
13.52
7.20
1.86
0.04
2.24
6.93
11.72
14.65
15.14
13.98
12.71
12.57
13.84
15.99
17.99
19.14
19.44
19.45
20.03
21.86
25.16
29.12
32.78
35.10
35.40
33.54
29.79
24.64
18.59
12.08
5.53
-0.57
-5.71
-9.48
-11.78
-12.87
-13.18
-13.19
-13.16
-13.17
-13.14
-13.06
-12.99
-13.01
-13.19
-13.39
-13.44
-13.17
-12.58
-11.79
-11.01
-10.42
-10.14
-10.30
-11.09
-12.81
-15.94
-20.93
-27.89
-36.33
-45.00
-52.07
-55.73
-54.94
-49.96
-42.30
-34.08
-27.09
-21.99
-18.29
-14.75
-10.28
-4.54
1.95
8.18
13.29
16.96
19.37
20.91
21.83
22.06
21.34
19.49
16.61
13.10
9.53
6.42
4.00
2.22
0.81
-0.57
-2.14
-3.92
-5.70
-7.19
-8.08
-8.25
-7.77
-6.87
-5.87
-4.99
-4.29
-3.66
-2.89
-1.80
-0.36
1.30
3.05
4.74
6.30
7.67
8.81
9.68
10.27
10.72
11.30
12.31
13.88
15.88
17.94
19.59
20.51
20.64
20.10
19.10
17.78
16.16
14.26
12.16
10.06
8.21
6.72
5.55
4.52
3.41
2.11
0.71
-0.55
-1.44
-1.81
-1.67
-1.15
-0.44
0.32
1.11
1.97
3.00
4.22
5.59
7.02
8.33
9.43
10.24
10.78
11.07
11.15
11.02
10.64
9.94
8.85
7.39
5.61
3.63
1.64
-0.22
-1.76
-2.91
-3.63
-3.90
-3.77
-3.27
-2.50
-1.63
-0.87
-0.50
-0.78
-1.91
-3.89
-6.59
-9.71
-12.86
-15.61
-17.63
-18.71
-18.81
-18.05
-16.72
-15.16
-13.72
-12.62
-11.93
-11.54
-11.21
-10.70
-9.87
-8.70
-7.37
-6.12
-5.16
-4.58
-4.27
-3.98
-3.39
-2.31
-0.74
1.12
2.95
4.52
5.74
6.71
7.61
8.59
9.64
10.63
11.33
11.55
11.14
10.09
8.51
6.62
4.68
3.02
1.89
1.43
1.62
2.24
2.99
3.53
3.59
3.00
1.75
-0.04
-2.20
-4.51
-6.81
-8.95
-10.79
-12.14
-12.75
-12.46
-11.18
-9.08
-6.47
-3.71
-1.10
1.21
3.19
4.89
6.36
7.57
8.50
9.14
9.56
9.89
10.25
10.72
11.29
11.85
12.27
12.45
12.38
12.08
11.65
11.15
10.57
9.93
9.19
8.36
7.51
6.70
5.98
5.29
4.50
3.51
2.29
0.92
-0.39
-1.45
-2.15
-2.53
-2.77
-3.11
-3.73
-4.60
-5.61
-6.51
-7.04
-7.08
-6.58
-5.62
-4.32
-2.75
-0.98
0.94
2.92
4.81
6.42
7.59
8.21
8.21
7.58
6.30
4.38
1.84
-1.17
-4.44
-7.72
-10.77
-13.54
-16.03
-18.30
-20.36
-22.08
-23.29
-23.83
-23.54
-22.38
-20.33
-17.48
-13.96
-10.00
-5.97
-2.28
0.65
2.56
3.36
3.16
2.17
0.58
-1.49
-3.89
-6.45
-8.90
-10.85
-11.84
-11.56
-9.86
-6.87
-2.93
1.49
5.97
10.12
13.67
16.46
18.40
19.52
19.92
19.76
19.21
18.46
17.61
16.69
15.67
14.51
13.27
12.02
10.90
9.99
9.32
8.83
8.41
7.96
7.46
6.96
6.51
6.17
6.02
6.07
6.29
6.58
6.85
7.03
7.12
7.15
7.18
7.25
7.35
7.37
7.24
7.03
6.92
7.11
7.63
8.35
8.98
9.27
8.91
7.89
6.66
5.99
6.62
8.89
12.60
17.19
21.99
26.01
28.55
29.68
30.21
31.21
33.17
35.79
38.03
38.57
35.52
27.67
15.52
1.37
-11.62
-20.82
-24.92
-24.24
-20.70
-18.43
-22.04
-34.66
-56.57
-85.16
-116.07
-144.26
-165.59
-171.69
-157.96
-127.19
-89.17
-54.40
-28.39
-11.22
-0.07
8.03
15.00
21.05
25.87
30.07
35.17
42.62
52.51
63.91
75.53
86.38
94.98
99.40
97.94
89.63
75.32
56.17
34.70
14.39
-1.79
-13.03
-21.13
-28.78
-38.08
-49.81
-63.44
-77.47
-90.02
-99.81
-106.86
-112.93
-120.02
-129.54
-141.85
-155.95
-169.60
-179.86
-184.88
-180.71
-168.03
-150.08
-131.23
-115.12
-103.47
-95.58
-88.40
-78.50
-63.46
-43.07
-18.29
9.32
37.98
65.88
91.30
113.96
133.82
150.65
163.48
171.59
174.72
173.19
167.94
160.46
154.39
152.60
155.87
162.25
168.94
173.66
175.53
174.84
172.49
171.69
174.54
181.24
190.26
200.44
211.54
224.03
238.19
238.54
216.06
172.05
117.45
64.19
19.29
-15.90
-42.95
-64.31
-82.25
-96.44
-107.21
-116.65
-128.07
-143.61
-163.33
-185.13
-206.21
-224.80
-239.19
-249.32
-255.62
-259.87
-258.21
-245.88
-219.80
-180.76
-133.43
-83.08
-34.26
10.05
47.05
73.74
86.85
83.69
64.30
33.53
1.26
-21.57
-27.65
-16.43
7.12
35.10
60.89
80.68
93.19
98.71
97.75
90.79
78.64
63.45
48.23
35.81
28.11
25.61
27.36
31.45
35.59
37.59
36.07
30.86
23.09
15.26
10.33
10.42
15.63
23.71
31.26
34.72
32.50
24.99
13.99
1.92
-8.84
-15.66
-15.43
-5.45
14.65
41.24
66.87
83.16
85.15
74.11
57.15
43.37
38.56
42.30
48.83
51.03
44.56
30.09
11.86
-5.52
-19.88
-32.16
-44.94
-60.26
-78.27
-97.10
-113.22
-122.80
-122.80
-112.32
-93.48
-70.82
-49.96
-35.55
-29.48
-30.54
-35.51
-41.13
-45.57
-48.94
-52.20
-55.90
-59.43
-61.08
-59.17
-53.21
-44.34
-34.67
-26.58
-21.56
-19.79
-20.32
-21.53
-21.89
-20.60
-17.78
-14.21
-10.98
-8.95
-8.38
-8.96
-9.95
-10.52
-10.09
-8.53
-6.11
-3.41
-1.00
0.74
1.69
1.99
1.89
1.65
1.37
1.10
0.77
0.31
-0.18
-0.58
-0.70
-0.41
0.33
1.42
2.67
3.84
4.79
5.53
6.13
6.74
7.41
8.08
8.52
8.48
7.65
5.98
3.60
0.77
-2.13
-4.75
-6.85
-8.30
-8.96
-8.73
-7.54
-5.36
-2.34
1.23
4.89
8.17
10.70
12.34
13.12
13.20
12.77
12.07
11.32
10.67
10.16
9.73
9.29
8.68
7.79
6.60
5.17
3.61
2.02
0.44
-1.14
-2.76
-4.45
-6.20
-7.90
-9.41
-10.53
-11.04
-10.80
-9.79
-8.11
-5.97
-3.66
-1.42
0.54
2.13
3.34
4.24
4.96
5.64
6.37
7.21
8.15
9.04
9.72
10.07
10.04
9.67
9.14
8.57
8.03
7.47
6.75
5.67
4.14
2.11
-0.30
-2.89
-5.43
-7.68
-9.43
-10.49
-10.72
-10.00
-8.32
-5.80
-2.70
0.65
3.91
6.79
9.10
10.74
11.68
11.94
11.57
10.68
9.45
8.07
6.67
5.28
3.82
2.19
0.33
-1.77
-4.05
-6.39
-8.60
-10.46
-11.69
-12.09
-11.50
-9.96
-7.63
-4.77
-1.65
1.52
4.60
7.44
9.93
11.99
13.48
14.35
14.67
14.48
13.86
12.83
11.39
9.55
7.36
4.92
2.34
-0.23
-2.69
-4.97
-6.96
-8.55
-9.58
-9.91
-9.47
-8.24
-6.34
-3.96
-1.32
1.34
3.74
5.70
7.10
7.85
7.92
7.29
5.94
3.96
1.52
-1.18
-3.87
-6.33
-8.40
-9.98
-10.99
-11.38
-11.05
-9.89
-7.94
-5.33
-2.27
0.97
4.11
6.87
9.02
10.38
10.86
10.42
9.11
7.17
4.85
2.55
0.59
-0.77
-1.41
-1.30
-0.53
0.83
2.70
4.95
7.45
9.97
12.24
13.98
15.03
15.36
15.07
14.31
13.17
11.79
10.29
8.80
7.44
6.26
5.18
4.09
2.93
1.77
0.84
0.45
0.74
1.64
2.86
4.03
4.85
5.25
5.29
5.15
4.94
4.71
4.38
3.86
3.04
1.85
0.26
-1.69
-3.95
-6.38
-8.78
-10.95
-12.62
-13.58
-13.67
-12.84
-11.16
-8.77
-5.89
-2.75
0.38
3.32
5.89
7.99
9.53
10.42
10.63
10.18
9.16
7.78
6.28
4.85
3.63
2.65
1.85
1.16
0.46
-0.31
-1.15
-1.99
-2.66
-2.97
-2.78
-2.01
-0.75
0.80
2.36
3.69
4.64
5.18
5.38
5.35
5.20
5.01
4.83
4.64
4.46
4.26
4.02
3.74
3.45
3.24
3.23
3.50
4.00
4.63
5.22
5.60
5.73
5.65
5.45
5.20
4.92
4.56
4.05
3.38
2.61
1.81
1.06
0.41
-0.14
-0.61
-1.06
-1.52
-2.05
-2.65
-3.30
-3.94
-4.52
-4.99
-5.33
-5.61
-5.88
-6.23
-6.68
-7.25
-7.91
-8.61
-9.30
-9.93
-10.56
-11.22
-11.98
-12.78
-13.47
-13.82
-13.61
-12.74
-11.20
-9.11
-6.59
-3.73
-0.60
2.69
5.94
8.93
11.40
13.23
14.41
15.05
15.27
15.16
14.81
14.29
13.67
13.00
12.27
11.43
10.45
9.33
8.12
6.96
5.95
5.12
4.48
3.97
3.55
3.18
2.84
2.43
1.79
0.71
-0.96
-3.22
-5.97
-9.01
-12.09
-15.02
-17.67
-19.93
-21.62
-22.55
-22.47
-21.22
-18.76
-15.25
-10.98
-6.35
-1.78
2.38
5.87
8.55
10.42
11.53
12.03
12.03
11.68
11.13
10.51
9.90
9.36
8.88
8.44
8.01
7.61
7.30
7.18
7.31
7.60
7.94
8.14
8.05
7.62
6.90
5.99
5.04
4.15
3.34
2.63
1.98
1.35
0.72
0.09
-0.53
-1.16
-1.78
-2.47
-3.23
-4.02
-4.79
-5.49
-6.14
-6.82
-7.68
-8.80
-10.21
-11.86
-13.60
-15.24
-16.60
-17.49
-17.74
-17.24
-15.95
-13.90
-11.21
-8.05
-4.66
-1.26
1.88
4.56
6.61
7.98
8.79
9.22
9.52
9.80
10.10
10.33
10.34
10.06
9.52
8.84
8.17
7.63
7.24
6.95
6.74
6.51
6.22
5.80
5.21
4.45
3.57
2.64
1.79
1.11
0.62
0.26
-0.05
-0.40
-0.81
-1.25
-1.63
-1.91
-2.07
-2.17
-2.30
-2.54
-2.92
-3.39
-3.83
-4.12
-4.13
-3.80
-3.12
-2.18
-1.09
0.03
1.08
1.99
2.71
3.22
3.53
3.67
3.66
3.51
3.24
2.88
2.48
2.11
1.86
1.78
1.87
2.09
2.36
2.65
2.94
3.22
3.49
3.68
3.72
3.56
3.20
2.70
2.16
1.67
1.24
0.88
0.50
0.05
-0.49
-1.12
-1.75
-2.36
-2.87
-3.35
-3.82
-4.30
-4.81
-5.33
-5.92
-6.66
-7.70
-9.08
-10.78
-12.58
-14.17
-15.27
-15.72
-15.56
-14.92
-13.90
-12.54
-10.77
-8.49
-5.75
-2.68
0.45
3.37
5.88
7.91
9.48
10.67
11.55
12.18
12.52
12.62
12.45
12.00
11.32
10.47
9.52
8.48
7.29
5.81
3.95
1.71
-0.83
-3.49
-6.09
-8.51
-10.64
-12.36
-13.50
-13.84
-13.19
-11.55
-9.08
-6.13
-3.08
-0.29
1.95
3.49
4.31
4.44
4.01
3.21
2.23
1.31
0.63
0.25
0.15
0.23
0.41
0.61
0.81
0.99
1.18
1.39
1.64
1.87
2.02
2.00
1.73
1.24
0.60
0.01
-0.41
-0.56
-0.52
-0.51
-0.74
-1.39
-2.50
-4.05
-5.94
-8.08
-10.33
-12.52
-14.39
-15.65
-16.08
-15.58
-14.20
-12.14
-9.59
-6.75
-3.81
-0.95
1.62
3.73
5.28
6.26
6.74
6.84
6.60
6.06
5.25
4.28
3.28
2.42
1.82
1.54
1.55
1.78
2.14
2.57
2.95
3.18
3.18
2.97
2.63
2.31
2.11
2.07
2.14
2.24
2.33
2.44
2.66
3.04
3.56
4.07
4.39
4.41
4.14
3.71
3.30
3.10
3.13
3.34
3.56
3.66
3.59
3.37
3.06
2.72
2.32
1.82
1.17
0.42
-0.32
-0.91
-1.28
-1.47
-1.63
-1.91
-2.40
-3.06
-3.76
-4.34
-4.70
-4.77
-4.55
-4.06
-3.29
-2.34
-1.33
-0.44
0.15
0.40
0.34
0.14
-0.07
-0.21
-0.22
-0.13
0.06
0.32
0.64
0.98
1.30
1.59
1.86
2.15
2.47
2.82
3.15
3.41
3.56
3.58
3.44
3.10
2.51
1.64
0.55
-0.61
-1.66
-2.41
-2.74
-2.69
-2.38
-2.05
-1.89
-2.04
-2.46
-3.01
-3.51
-3.85
-4.01
-4.08
-4.20
-4.42
-4.72
-4.97
-5.05
-4.87
-4.40
-3.67
-2.76
-1.76
-0.78
0.10
0.79
1.26
1.50
1.54
1.41
1.17
0.85
0.54
0.26
0.05
-0.09
-0.19
-0.24
-0.22
-0.09
0.13
0.44
0.75
1.03
1.24
1.40
1.52
1.61
1.61
1.51
1.32
1.11
0.94
0.84
0.74
0.56
0.28
-0.06
-0.37
-0.54
-0.59
-0.60
-0.71
-1.00
-1.49
-2.10
-2.74
-3.33
-3.81
-4.15
-4.33
-4.32
-4.09
-3.67
-3.11
-2.46
-1.79
-1.11
-0.47
0.04
0.37
0.51
0.45
0.32
0.24
0.30
0.51
0.79
1.06
1.26
1.39
1.54
1.80
2.23
2.83
3.52
4.18
4.69
4.97
4.99
4.76
4.35
3.83
3.28
2.79
2.42
2.20
2.06
1.91
1.63
1.08
0.20
-1.03
-2.55
-4.26
-6.10
-8.07
-10.16
-12.35
-14.53
-16.49
-17.93
-18.57
-18.23
-16.87
-14.62
-11.69
-8.36
-4.87
-1.44
1.73
4.48
6.68
8.25
9.21
9.63
9.66
9.48
9.23
9.03
8.88
8.75
8.58
8.35
8.07
7.79
7.57
7.36
7.12
6.75
6.23
5.64
5.10
4.71
4.46
4.25
3.94
3.44
2.79
2.11
1.54
1.11
0.74
0.31
-0.26
-0.94
-1.60
-2.08
-2.35
-2.52
-2.79
-3.37
-4.33
-5.53
-6.64
-7.29
-7.21
-6.33
-4.82
-3.03
-1.35
-0.07
0.67
0.91
0.84
0.65
0.51
0.50
0.59
0.74
0.88
1.01
1.17
1.43
1.82
2.32
2.84
3.27
3.58
3.77
3.88
3.91
3.79
3.42
2.75
1.83
0.84
0.01
-0.51
-0.74
-0.84
-1.01
-1.37
-1.90
-2.46
-2.91
-3.19
-3.32
-3.40
-3.53
-3.79
-4.19
-4.70
-5.22
-5.64
-5.83
-5.69
-5.15
-4.21
-2.98
-1.60
-0.24
0.96
1.91
2.55
2.85
2.82
2.53
2.08
1.61
1.23
1.02
0.99
1.10
1.27
1.47
1.70
1.94
2.21
2.48
2.70
2.85
2.93
2.96
2.96
2.96
2.88
2.64
2.19
1.52
0.69
-0.22
-1.14
-2.05
-2.93
-3.74
-4.41
-4.86
-5.03
-4.99
-4.85
-4.76
-4.83
-5.06
-5.33
-5.49
-5.39
-4.93
-4.14
-3.10
-1.91
-0.69
0.49
1.59
2.62
3.52
4.25
4.75
4.98
4.94
4.71
4.38
4.05
3.76
3.56
3.48
3.55
3.79
4.17
4.59
4.94
5.12
5.10
4.94
4.70
4.38
3.97
3.40
2.67
1.84
1.05
0.42
0.00
-0.27
-0.52
-0.87
-1.35
-1.86
-2.30
-2.59
-2.73
-2.81
-2.96
-3.23
-3.60
-3.99
-4.26
-4.31
-4.09
-3.59
-2.82
-1.87
-0.84
0.15
0.96
1.51
1.78
1.80
1.66
1.46
1.23
1.03
0.89
0.86
0.96
1.19
1.50
1.81
2.03
2.16
2.20
2.23
2.33
2.50
2.73
2.92
3.01
2.97
2.79
2.45
1.97
1.38
0.74
0.13
-0.37
-0.73
-0.96
-1.12
-1.29
-1.55
-1.94
-2.48
-3.19
-4.08
-5.15
-6.32
-7.42
-8.36
-9.06
-9.53
-9.85
-10.05
-10.11
-9.91
-9.28
-8.12
-6.46
-4.43
-2.21
0.03
2.20
4.27
6.21
7.94
9.41
10.51
11.23
11.59
11.67
11.60
11.47
11.30
11.03
10.54
9.73
8.57
7.17
5.71
4.39
3.32
2.46
1.66
0.81
-0.12
-1.07
-1.91
-2.56
-3.00
-3.29
-3.52
-3.74
-4.02
-4.36
-4.80
-5.33
-5.91
-6.42
-6.73
-6.71
-6.26
-5.40
-4.25
-2.94
-1.65
-0.49
0.49
1.30
1.98
2.54
2.94
3.17
3.22
3.10
2.92
2.75
2.68
2.75
3.01
3.46
4.08
4.80
5.48
5.98
6.21
6.18
5.98
5.71
5.41
5.05
4.50
3.72
2.71
1.59
0.51
-0.40
-1.11
-1.69
-2.20
-2.72
-3.23
-3.71
-4.16
-4.61
-5.14
-5.79
-6.52
-7.20
-7.64
-7.62
-7.02
-5.86
-4.28
-2.51
-0.80
0.67
1.81
2.61
3.15
3.51
3.75
3.90
3.98
3.98
3.85
3.60
3.27
2.95
2.73
2.68
2.81
3.06
3.37
3.69
3.98
4.24
4.37
4.26
3.82
3.00
1.86
0.60
-0.59
-1.54
-2.17
-2.57
-2.83
-3.08
-3.38
-3.75
-4.16
-4.55
-4.88
-5.17
-5.42
-5.68
-5.95
-6.18
-6.27
-6.12
-5.66
-4.90
-3.93
-2.86
-1.79
-0.77
0.17
1.06
1.94
2.84
3.72
4.52
5.11
5.38
5.26
4.82
4.21
3.63
3.23
3.07
3.10
3.25
3.44
3.67
3.92
4.15
4.29
4.26
4.04
3.68
3.30
3.02
2.86
2.75
2.58
2.20
1.58
0.72
-0.28
-1.30
-2.25
-3.07
-3.75
-4.31
-4.80
-5.25
-5.71
-6.16
-6.57
-6.84
-6.85
-6.54
-5.88
-4.90
-3.70
-2.37
-1.01
0.28
1.46
2.48
3.29
3.88
4.25
4.44
4.47
4.39
4.23
4.04
3.88
3.79
3.82
3.94
4.07
4.13
4.08
3.92
3.68
3.42
3.15
2.87
2.54
2.16
1.72
1.26
0.77
0.27
-0.25
-0.80
-1.35
-1.89
-2.47
-3.14
-3.92
-4.76
-5.53
-6.05
-6.25
-6.16
-5.96
-5.89
-6.05
-6.42
-6.83
-7.03
-6.84
-6.23
-5.27
-4.13
-2.96
-1.78
-0.57
0.73
2.14
3.56
4.77
5.52
5.66
5.23
4.45
3.62
2.99
2.69
2.65
2.74
2.85
2.95
3.10
3.37
3.73
4.06
4.24
4.15
3.80
3.30
2.80
2.44
2.24
2.13
1.99
1.70
1.18
0.45
-0.40
-1.26
-2.05
-2.74
-3.34
-3.85
-4.27
-4.59
-4.82
-5.01
-5.26
-5.66
-6.23
-6.87
-7.39
-7.60
-7.37
-6.69
-5.66
-4.45
-3.22
-2.12
-1.22
-0.57
-0.12
0.18
0.42
0.64
0.87
1.08
1.23
1.32
1.35
1.36
1.37
1.39
1.40
1.39
1.38
1.43
1.58
1.87
2.23
2.52
2.61
2.37
1.86
1.21
0.61
0.21
-0.00
-0.15
-0.40
-0.88
-1.53
-2.21
-2.76
-3.10
-3.27
-3.39
-3.56
-3.80
-4.06
-4.28
-4.43
-4.58
-4.80
-5.14
-5.55
-5.86
-5.86
-5.38
-4.37
-2.93
-1.30
0.20
1.31
1.92
2.05
1.86
1.54
1.21
0.96
0.82
0.83
1.05
1.53
2.23
3.03
3.75
4.25
4.48
4.47
4.33
4.10
3.84
3.54
3.21
2.87
2.56
2.25
1.90
1.44
0.85
0.18
-0.48
-1.03
-1.44
-1.74
-2.03
-2.39
-2.85
-3.38
-3.87
-4.22
-4.36
-4.23
-3.82
-3.16
-2.28
-1.27
-0.19
0.86
1.79
2.52
3.03
3.32
3.45
3.47
3.45
3.39
3.32
3.26
3.20
3.22
3.30
3.46
3.64
3.78
3.86
3.89
3.92
3.98
4.08
4.15
4.14
3.96
3.62
3.12
2.49
1.75
0.93
0.03
-0.99
-2.16
-3.52
-5.08
-6.77
-8.45
-9.93
-11.05
-11.76
-12.09
-12.14
-11.99
-11.67
-11.14
-10.34
-9.24
-7.85
-6.24
-4.49
-2.71
-1.00
0.52
1.72
2.51
2.88
2.89
2.70
2.51
2.51
2.80
3.37
4.13
4.91
5.56
5.94
6.00
5.74
5.19
4.36
3.26
1.86
0.24
-1.45
-2.96
-4.02
-4.43
-4.15
-3.27
-2.04
-0.71
0.53
1.51
2.14
2.35
2.11
1.43
0.37
-0.94
-2.36
-3.72
-4.88
-5.68
-6.05
-6.02
-5.70
-5.24
-4.83
-4.54
-4.39
-4.34
-4.31
-4.25
-4.16
-4.03
-3.86
-3.64
-3.35
-2.99
-2.60
-2.19
-1.77
-1.33
-0.81
-0.16
0.71
1.83
3.15
4.52
5.73
6.55
6.78
6.39
5.52
4.50
3.75
3.63
4.33
5.77
7.66
9.51
10.81
11.26
10.89
10.01
9.08
8.60
8.86
9.90
11.39
12.79
13.56
13.62
13.23
12.92
13.26
14.57
16.71
18.94
20.29
19.90
17.64
14.19
10.72
8.57
8.84
11.96
17.14
22.41
25.18
23.23
15.26
0.89
-19.51
-44.69
-71.62
-96.29
-115.64
-128.80
-136.25
-138.59
-135.99
-128.13
-114.71
-95.57
-71.47
-44.38
-17.31
6.63
24.86
36.09
40.77
40.67
38.31
35.95
34.91
35.60
37.95
41.57
46.08
52.10
59.85
69.88
82.09
95.03
106.08
112.33
111.69
103.77
90.20
73.61
56.73
40.99
26.37
12.19
-1.87
-15.21
-26.59
-34.49
-38.33
-38.75
-37.68
-37.54
-39.92
-45.04
-51.87
-58.23
-62.04
-62.17
-58.48
-51.98
-43.90
-34.76
-24.26
-11.81
2.30
17.28
31.81
45.08
56.67
64.77
68.19
66.94
65.09
63.42
61.44
56.68
48.44
36.99
23.27
8.71
-5.01
-16.43
-25.10
-30.93
-34.30
-34.87
-32.26
-26.30
-17.13
-4.93
10.10
27.39
46.68
67.42
89.76
113.35
136.86
155.58
163.85
158.10
138.81
112.56
81.58
46.85
8.65
-31.47
-70.72
-105.43
-131.94
-147.80
-152.30
-146.91
-133.65
-115.03
-93.55
-71.80
-52.04
-36.27
-26.24
-23.26
-27.86
-38.40
-51.93
-65.10
-75.13
-80.09
-79.09
-72.18
-60.24
-45.07
-28.65
-13.05
-0.03
9.53
16.00
20.87
25.81
31.68
37.99
43.34
46.12
45.34
40.95
33.90
25.50
16.65
7.71
-1.07
-8.96
-14.69
-16.98
-15.56
-11.80
-8.16
-7.14
-10.10
-16.48
-24.12
-30.70
-34.92
-36.95
-37.78
-38.19
-38.09
-36.99
-34.95
-33.52
-35.43
-42.93
-55.70
-69.83
-78.74
-75.76
-57.16
-23.69
20.00
67.55
113.50
154.88
191.09
222.74
250.27
272.92
289.27
297.95
298.55
292.35
281.94
270.39
260.35
253.27
249.20
247.11
