1710437786.00
64.000000
-0.00
-0.00
-0.00
-0.00
-0.00
-0.00
-0.00
-0.00
-0.00
-0.00
0.00
0.01
0.01
-0.00
-0.03
-0.05
-0.05
0.00
0.13
0.36
0.66
1.01
1.37
1.72
2.06
2.40
2.79
3.24
3.80
4.42
5.06
5.66
6.20
6.68
7.15
7.68
8.31
9.14
10.09
11.04
11.88
12.56
13.14
13.76
14.65
15.96
17.91
20.32
22.90
25.38
27.58
29.57
31.68
34.32
37.81
42.54
48.15
54.10
59.83
64.97
69.58
74.14
79.34
85.71
93.76
103.00
112.62
121.73
129.77
136.75
143.30
150.75
157.77
166.64
177.95
191.79
206.97
220.57
228.25
225.36
208.53
176.87
132.76
80.05
23.07
-34.94
-92.44
-149.16
-205.23
-260.37
-313.74
-363.86
-409.81
-450.87
-486.44
-515.65
-537.11
-549.06
-549.76
-538.11
-513.90
-478.30
-433.45
-381.95
-326.46
-269.21
-211.93
-155.88
-102.10
-51.44
-4.88
36.70
72.65
102.68
126.95
145.97
160.43
171.05
178.46
183.05
185.10
184.86
182.58
178.63
173.40
167.31
160.71
153.85
146.86
139.82
132.77
125.75
118.83
112.07
105.56
99.34
93.44
87.89
82.68
77.84
73.36
69.26
65.54
62.23
59.31
56.80
54.67
52.92
51.51
50.38
49.44
48.58
47.64
46.45
44.84
42.64
39.72
36.01
31.50
26.22
20.30
13.94
7.36
0.85
-5.35
-10.98
-15.84
-19.79
-22.75
-24.71
-25.71
-25.87
-25.29
-24.12
-22.51
-20.57
-18.41
-16.10
-13.68
-11.20
-8.68
-6.14
-3.58
-0.99
1.64
4.32
7.08
9.95
12.88
15.87
18.90
21.98
25.12
28.35
31.68
35.17
38.89
42.76
46.74
50.81
54.99
59.29
63.75
68.41
73.34
78.61
84.10
89.71
95.40
101.11
106.85
112.60
118.36
124.16
130.05
135.75
141.04
145.70
149.50
152.13
153.25
152.32
148.68
143.59
137.53
130.82
123.70
116.34
108.91
101.57
94.46
87.73
81.57
75.83
70.40
65.24
60.29
55.54
50.95
46.54
42.34
38.44
34.69
31.05
27.52
24.11
20.86
17.79
14.94
12.32
9.98
7.83
5.83
3.97
2.28
0.75
-0.65
-1.95
-3.20
-4.42
-5.68
-6.98
-8.26
-9.48
-10.63
-11.71
-12.81
-14.02
-15.40
-17.00
-18.74
-20.50
-22.14
-23.60
-24.96
-26.43
-28.27
-30.73
-33.83
-37.42
-41.15
-44.67
-47.83
-50.77
-53.91
-57.83
-62.98
-69.50
-77.07
-85.05
-92.78
-99.88
-106.51
-113.33
-121.28
-131.10
-142.98
-156.49
-170.73
-184.70
-197.78
-209.99
-221.93
-234.67
-249.57
-267.92
-290.63
-317.52
-346.75
-374.57
-395.91
-405.78
-400.95
-381.17
-349.33
-310.31
-269.21
-229.77
-193.74
-161.33
-132.15
-106.15
-83.73
-65.48
-51.50
-41.14
-33.07
-25.76
-18.01
-9.28
0.18
9.71
18.56
26.25
32.71
38.19
43.02
47.30
50.78
52.92
53.18
51.36
47.81
43.31
38.76
34.85
31.72
29.05
26.23
22.75
18.32
12.88
6.51
-0.66
-8.32
-15.97
-22.77
-27.76
-30.01
-28.93
-24.41
-16.75
-6.71
4.79
16.74
28.21
38.41
46.83
53.29
57.87
60.83
62.43
62.89
62.42
61.33
60.06
59.07
58.68
58.91
59.48
59.87
59.62
58.45
56.39
53.80
51.11
48.67
46.46
44.16
41.17
37.02
31.56
25.10
18.38
12.13
6.82
2.39
-1.65
-6.01
-11.26
-17.65
-25.12
-33.32
-41.65
-49.23
-54.94
-57.51
-55.98
-49.95
-39.93
-27.14
-13.15
0.55
12.91
23.34
31.64
37.81
41.93
44.17
44.75
43.88
41.83
39.08
36.28
34.26
33.70
34.84
37.29
40.17
42.50
43.66
43.61
42.76
41.55
40.12
38.24
35.50
31.62
26.72
21.26
15.81
10.81
6.41
2.51
-1.10
-4.62
-8.16
-11.77
-15.59
-19.83
-24.81
-30.65
-37.11
-43.38
-48.18
-50.10
-48.10
-41.94
-32.29
-20.45
-7.93
4.06
14.74
23.77
31.05
36.52
40.07
41.62
41.18
39.01
35.63
31.73
28.20
25.77
24.95
25.75
27.74
30.13
32.13
33.21
33.26
32.57
31.48
30.19
28.60
26.41
23.34
19.35
14.76
10.07
5.84
2.43
-0.12
-2.09
-4.06
-6.72
-10.66
-16.19
-23.20
-31.04
-38.68
-44.87
-48.48
-48.74
-45.44
-38.88
-29.86
-19.43
-8.69
1.39
10.06
16.86
21.68
24.65
26.09
26.43
26.03
25.13
23.87
22.38
20.91
19.83
19.45
19.89
20.90
21.97
22.61
22.60
22.07
21.36
20.66
19.81
18.33
15.67
11.60
6.32
0.42
-5.43
-10.77
-15.42
-19.44
-22.90
-25.97
-28.84
-31.80
-35.20
-39.28
-43.89
-48.36
-51.61
-52.42
-49.97
-44.08
-35.31
-24.69
-13.42
-2.50
7.42
15.98
23.13
28.86
33.21
36.19
37.67
37.56
35.86
32.88
29.27
25.95
23.74
23.09
23.86
25.38
26.82
27.51
27.25
26.27
24.97
23.56
21.90
19.54
16.00
11.08
5.16
-0.99
-6.48
-10.73
-13.78
-16.21
-18.85
-22.38
-27.01
-32.54
-38.50
-44.50
-50.26
-55.53
-59.86
-62.46
-62.30
-58.50
-50.79
-39.78
-26.82
-13.57
-1.46
8.64
16.55
22.46
26.72
29.55
30.97
31.00
29.78
27.74
25.51
23.74
22.98
23.36
24.56
25.97
26.93
27.03
26.24
24.84
23.19
21.42
19.42
16.87
13.57
9.55
5.12
0.66
-3.58
-7.59
-11.59
-15.83
-20.41
-25.34
-30.49
-35.82
-41.37
-47.21
-53.22
-58.89
-63.27
-65.12
-63.35
-57.43
-47.74
-35.47
-22.30
-9.79
1.03
9.87
16.88
22.31
26.13
28.11
28.10
26.34
23.60
20.87
18.92
18.03
17.95
18.25
18.71
19.45
20.76
22.76
25.22
27.49
28.85
28.82
27.24
24.32
20.42
15.85
10.96
6.04
1.35
-2.95
-6.90
-10.72
-14.77
-19.44
-24.95
-31.34
-38.31
-45.30
-51.45
-55.68
-56.94
-54.42
-47.89
-37.79
-25.22
-11.64
1.49
13.00
22.13
28.54
32.07
32.80
31.03
27.43
23.02
18.97
16.22
15.15
15.51
16.59
17.71
18.54
19.22
20.15
21.55
23.25
24.67
25.04
23.86
21.07
17.03
12.40
7.78
3.54
-0.20
-3.47
-6.44
-9.37
-12.65
-16.75
-21.99
-28.32
-35.12
-41.31
-45.48
-46.38
-43.26
-36.13
-25.72
-13.33
-0.50
11.32
21.10
28.36
33.13
35.68
36.34
35.33
32.85
29.26
25.17
21.31
18.27
16.32
15.34
15.01
15.08
15.47
16.17
17.04
17.68
17.55
16.10
13.14
8.86
3.73
-1.73
-7.05
-11.95
-16.27
-20.05
-23.52
-27.22
-31.86
-38.10
-46.14
-55.34
-64.32
-71.21
-74.20
-72.20
-65.19
-54.12
-40.62
-26.33
-12.52
0.12
11.35
21.01
28.82
34.39
37.37
37.79
36.22
33.65
31.23
29.80
29.66
30.51
31.71
32.64
33.02
32.94
32.73
32.64
32.57
32.03
30.26
26.67
21.07
13.78
5.56
-2.77
-10.51
-17.30
-23.14
-28.25
-33.00
-37.71
-42.57
-47.52
-52.24
-56.22
-58.81
-59.41
-57.52
-52.86
-45.36
-35.24
-23.03
-9.56
4.07
16.68
27.20
34.88
39.43
41.07
40.42
38.29
35.49
32.68
30.37
28.84
28.24
28.52
29.46
30.60
31.36
31.21
29.79
27.17
23.65
19.69
15.57
11.27
6.55
1.17
-4.77
-10.79
-16.21
-20.67
-24.43
-28.40
-33.75
-41.17
-50.29
-59.63
-67.07
-70.71
-69.49
-63.48
-53.63
-41.27
-27.73
-14.05
-1.04
10.64
20.44
27.89
32.65
34.69
34.19
31.73
28.22
24.77
22.38
21.63
22.41
24.04
25.65
26.72
27.28
27.87
29.01
30.72
32.35
32.80
31.16
27.15
21.30
14.64
8.10
2.14
-3.31
-8.59
-13.96
-19.55
-25.38
-31.52
-38.11
-45.10
-51.94
-57.52
-60.40
-59.28
-53.52
-43.46
-30.29
-15.73
-1.48
11.05
21.07
28.26
32.84
35.39
36.82
38.08
39.89
42.44
45.24
47.27
47.40
44.96
40.06
33.58
26.81
20.97
16.76
14.23
12.87
11.83
10.32
7.99
5.11
2.47
0.87
0.60
1.06
1.02
-0.64
-4.24
-8.88
-12.84
-14.24
-11.91
-5.85
2.68
11.54
18.02
19.60
14.78
4.10
-9.45
-21.04
-25.70
-20.58
-6.29
13.25
32.73
47.92
57.31
62.04
64.31
65.46
65.10
61.62
53.64
41.26
26.23
11.01
-2.52
-13.78
-23.14
-31.12
-37.77
-42.71
-45.83
-47.86
-50.17
-53.90
-59.03
-64.16
-67.31
-67.29
-64.65
-61.42
-60.00
-61.65
-65.79
-70.52
-73.73
-74.24
-72.15
-68.15
-62.73
-55.50
-45.39
-31.34
-13.21
7.77
29.10
47.80
61.28
68.23
68.89
64.97
58.91
53.03
48.79
46.48
45.45
44.78
43.90
42.85
42.11
42.11
42.87
43.94
44.58
44.17
42.42
39.40
35.28
30.26
24.51
18.18
11.58
5.03
-1.21
-7.14
-12.96
-18.93
-25.19
-31.49
-37.26
-41.71
-44.09
-43.83
-40.75
-35.05
-27.28
-18.21
-8.61
0.87
9.74
17.64
24.18
28.92
31.48
31.76
29.99
26.87
23.37
20.49
18.96
19.06
20.56
22.82
25.06
26.63
27.23
26.95
26.11
25.06
24.02
22.94
21.58
19.61
16.73
12.78
7.73
1.77
-4.77
-11.41
-17.74
-23.67
-29.47
-35.66
-42.61
-50.17
-57.45
-63.09
-65.66
-64.22
-58.51
-48.93
-36.27
-21.57
-6.01
9.05
22.24
32.39
38.79
41.44
40.92
38.17
34.18
29.80
25.71
22.34
19.93
18.38
17.37
16.48
15.47
14.40
13.54
13.08
12.70
11.60
8.68
3.19
-4.77
-14.14
-23.31
-30.91
-36.57
-41.19
-46.54
-54.42
-65.80
-80.34
-96.55
-112.41
-126.33
-137.84
-147.76
-157.73
-169.28
-182.84
-197.36
-210.51
-219.72
-223.26
-221.10
-214.82
-207.27
-201.82
-201.65
-209.22
-225.54
-249.11
-275.37
-297.20
-307.20
-301.15
-281.16
-256.37
-240.23
-244.88
-275.44
-327.09
-386.73
-438.50
-470.16
-477.22
-462.88
-434.53
-399.06
-359.97
-317.23
-269.44
-216.43
-160.36
-104.86
-53.03
-5.81
38.43
82.62
129.00
177.68
226.22
270.49
306.34
331.26
345.18
350.37
350.43
348.89
348.12
348.72
349.87
350.16
348.50
344.81
340.10
336.07
334.53
336.91
344.20
357.16
376.23
401.13
429.93
458.60
481.29
491.82
485.80
462.46
425.04
379.87
334.12
293.62
261.40
237.61
220.44
207.39
196.36
186.08
175.96
165.67
154.61
141.80
126.15
107.05
85.03
61.77
39.65
20.77
6.21
-4.17
-11.21
-15.50
-17.02
-15.53
-11.68
-7.56
-6.27
-10.23
-19.58
-31.53
-41.66
-46.18
-43.88
-36.42
-26.91
-17.68
-8.84
1.37
14.94
32.08
50.31
65.23
72.42
69.43
56.76
37.46
15.91
-3.68
-18.48
-27.50
-31.35
-31.59
-30.16
-28.85
-29.13
-32.06
-38.32
-48.17
-61.32
-76.96
-93.68
-109.71
-123.32
-133.38
-139.90
-144.36
-149.19
-156.65
-167.34
-179.16
-187.27
-185.45
-168.49
-134.48
-86.15
-30.33
24.22
69.66
101.46
119.25
125.99
125.88
122.28
116.71
109.07
98.93
86.59
73.49
61.57
52.26
45.64
40.27
33.78
23.81
8.93
-10.85
-33.98
-57.87
-79.74
-97.41
-109.65
-116.18
-117.11
-112.61
-102.83
-88.36
-70.75
-52.58
-36.89
-26.15
-21.18
-21.02
-23.52
-26.56
-29.04
-31.05
-33.23
-35.78
-37.76
-37.31
-32.61
-23.06
-9.89
4.09
15.56
22.12
23.05
19.45
13.50
7.63
3.90
3.87
8.75
19.34
35.77
57.05
80.76
103.48
121.65
132.55
135.10
129.89
118.72
103.87
87.51
71.28
56.31
43.34
32.73
24.46
18.12
12.80
7.16
-0.41
-11.36
-26.44
-45.13
-65.43
-84.27
-98.39
-105.45
-104.76
-97.35
-85.46
-71.65
-58.07
-46.08
-36.29
-28.84
-23.67
-20.50
-18.80
-17.65
-15.88
-12.36
-6.34
2.26
12.75
23.79
33.70
40.79
43.73
41.87
35.34
25.11
12.73
0.04
-11.37
-20.50
-27.12
-31.54
-34.36
-36.12
-37.30
-38.42
-40.25
-43.67
-49.44
-57.62
-67.41
-77.15
-84.77
-88.46
-87.17
-80.83
-70.19
-56.52
-41.12
-25.14
-9.56
4.86
17.39
27.50
34.92
39.76
42.44
43.57
43.73
43.38
42.84
42.29
41.85
41.62
41.66
42.08
42.93
44.24
45.93
47.74
49.23
49.84
49.10
46.96
43.92
41.05
39.72
41.10
45.76
53.26
62.29
70.88
77.04
79.25
76.93
70.34
60.42
48.39
35.35
22.08
8.92
-4.07
-16.96
-29.51
-40.90
-49.77
-54.71
-54.87
-50.62
-43.73
-36.84
-32.47
-32.16
-35.93
-42.57
-50.31
-57.60
-63.59
-68.13
-71.41
-73.68
-75.03
-75.48
-75.07
-74.08
-72.95
-72.18
-72.10
-72.84
-74.16
-75.67
-77.04
-78.19
-79.28
-80.44
-81.49
-81.68
-79.96
-75.41
-67.90
-58.30
-48.17
-39.13
-32.04
-26.76
-22.37
-17.85
-12.70
-7.23
-2.23
1.56
3.88
5.11
5.91
6.94
8.60
11.03
14.23
18.15
22.61
27.24
31.46
34.67
36.40
36.62
35.70
34.30
33.05
32.33
32.05
31.71
30.44
27.28
21.36
12.17
-0.21
-15.01
-30.60
-44.77
-55.10
-59.73
-57.86
-50.14
-38.34
-24.51
-10.22
4.04
18.54
33.65
49.01
63.30
74.57
81.10
82.22
78.42
71.00
61.31
50.27
38.30
25.70
13.38
3.01
-3.26
-3.71
2.15
13.14
26.80
40.40
52.12
61.65
70.10
79.13
89.79
102.01
114.50
125.49
133.49
137.76
138.25
135.25
129.05
119.98
108.74
96.66
85.69
77.89
74.57
75.65
79.72
85.02
90.62
97.17
106.55
120.44
138.89
159.76
179.36
194.20
202.71
205.84
206.55
208.40
214.07
224.41
238.27
252.59
262.75
263.41
250.33
222.51
183.68
141.62
105.06
79.58
64.80
54.43
39.35
11.94
-30.59
-85.68
-147.31
-208.80
-264.47
-309.64
-339.65
-349.53
-335.28
-296.20
-236.91
-167.29
-99.90
-46.15
-12.82
-0.32
-3.59
-15.00
-27.78
-38.55
-47.79
-58.57
-74.21
-96.19
-123.23
-151.89
-178.02
-198.45
-211.79
-218.39
-219.68
-217.39
-213.15
-208.48
-204.82
-203.45
-205.04
-209.21
-214.43
-218.48
-219.28
-215.76
-208.23
-198.25
-187.92
-179.07
-172.82
-169.34
-168.10
-168.23
-168.73
-168.59
-166.87
-162.76
-155.83
-146.27
-135.01
-123.49
-113.26
-105.41
-100.27
-97.47
-96.33
-96.37
-97.59
-100.53
-105.92
-114.32
-125.79
-139.77
-155.20
-170.80
-185.32
-197.87
-207.93
-215.20
-219.44
-220.33
-217.39
-210.04
-197.67
-179.64
-155.28
-124.10
-86.19
-42.78
3.32
47.94
86.38
114.76
131.33
137.22
136.07
132.77
131.66
135.24
143.84
156.22
170.82
186.62
203.36
221.16
240.04
259.81
280.36
301.92
324.93
349.36
374.01
396.27
412.73
420.32
417.42
404.18
382.17
353.52
320.27
284.22
247.07
210.60
176.54
146.13
119.77
96.93
76.52
57.37
38.78
20.66
3.49
-11.99
-25.18
-35.84
-44.17
-50.69
-56.02
-60.60
-64.69
-68.30
-71.30
-73.56
-74.98
-75.55
-75.32
-74.47
-73.25
-72.02
-71.22
-71.35
-72.87
-75.94
-80.13
-84.30
-86.75
-85.75
-80.12
-69.74
-55.60
-39.44
-23.21
-8.37
4.24
14.41
22.23
27.88
31.49
33.24
33.43
32.54
31.16
29.86
29.15
29.30
30.36
32.09
34.07
35.83
37.01
37.41
37.01
35.90
34.11
31.62
28.38
24.43
20.01
15.42
10.96
6.74
2.70
-1.29
-5.27
-9.09
-12.51
-15.37
-17.76
-20.06
-22.85
-26.66
-31.70
-37.63
-43.60
-48.37
-50.70
-49.65
-44.94
-36.94
-26.57
-15.01
-3.41
7.29
16.44
23.61
28.62
31.49
32.47
31.96
30.45
28.46
26.43
24.74
23.72
23.62
24.52
26.26
28.44
30.49
31.85
32.16
31.35
29.60
27.26
24.67
22.01
19.29
16.39
13.21
9.74
6.11
2.52
-0.89
-4.08
-7.19
-10.38
-13.79
-17.45
-21.35
-25.50
-29.92
-34.57
-39.15
-42.99
-45.14
-44.66
-40.96
-34.11
-24.79
-14.15
-3.48
6.15
14.05
19.93
23.81
25.92
26.56
26.12
24.94
23.37
21.74
20.37
19.50
19.28
19.72
20.68
21.89
23.01
23.70
23.76
23.15
21.93
20.26
18.29
16.13
13.81
11.35
8.74
5.92
2.82
-0.59
-4.26
-8.00
-11.53
-14.61
-17.12
-19.27
-21.43
-24.15
-27.82
-32.58
-38.13
-43.78
-48.61
-51.55
-51.75
-48.74
-42.64
-34.08
-24.10
-13.84
-4.22
4.12
10.95
16.21
20.01
22.42
23.55
23.55
22.69
21.37
19.98
18.87
18.20
17.95
18.01
18.25
18.61
19.01
19.36
19.49
19.31
18.83
18.23
17.78
17.62
17.63
17.45
16.67
14.98
12.33
8.93
5.06
0.96
-3.19
-7.25
-11.09
-14.56
-17.65
-20.51
-23.43
-26.75
-30.72
-35.28
-40.07
-44.34
-47.15
-47.50
-44.64
-38.36
-29.14
-18.14
-6.90
3.05
10.57
15.19
17.07
16.87
15.43
13.56
11.92
10.94
10.76
11.30
12.33
13.57
14.79
15.92
16.99
18.01
18.95
19.62
19.76
19.14
17.67
15.45
12.72
9.73
6.74
3.89
1.26
-1.16
-3.44
-5.79
-8.46
-11.56
-15.06
-18.66
-21.93
-24.53
-26.41
-27.88
-29.54
-31.92
-35.34
-39.62
-44.15
-48.01
-50.19
-49.87
-46.59
-40.41
-31.93
-22.13
-12.14
-2.94
4.91
11.25
16.22
20.01
22.70
24.23
24.54
23.72
22.15
20.41
19.15
18.85
19.65
21.34
23.44
25.39
26.72
27.19
26.71
25.38
23.22
20.31
16.70
12.54
8.06
3.58
-0.58
-4.25
-7.42
-10.26
-12.98
-15.72
-18.52
-21.35
-24.18
-27.06
-30.22
-33.82
-37.97
-42.48
-46.77
-50.01
-51.22
-49.63
-44.87
-37.19
-27.33
-16.38
-5.49
4.34
12.41
18.42
22.39
24.57
25.27
24.80
23.39
21.31
18.89
16.57
14.87
14.14
14.45
15.46
16.59
17.23
17.02
15.99
14.47
12.89
11.53
10.40
9.25
7.66
5.27
1.95
-2.19
-6.73
-11.20
-15.13
-18.27
-20.64
-22.53
-24.40
-26.74
-29.96
-34.32
-39.78
-45.87
-51.54
-55.33
-55.64
-51.30
-42.08
-28.93
-13.65
1.58
15.04
25.79
33.73
39.22
42.52
43.58
42.10
37.92
31.38
23.45
15.49
8.87
4.49
2.52
2.54
3.75
5.40
6.97
8.25
9.25
10.00
10.45
10.40
9.61
7.88
5.23
1.91
-1.66
-5.05
-8.00
-10.50
-12.75
-15.03
-17.62
-20.64
-24.15
-28.15
-32.53
-37.07
-41.23
-44.29
-45.28
-43.44
-38.35
-30.19
-19.75
-8.12
3.48
14.03
22.81
29.40
33.63
35.57
35.47
33.79
31.14
28.20
25.56
23.63
22.54
22.22
22.41
22.84
23.25
23.55
23.69
23.70
23.58
23.21
22.39
20.82
18.30
14.79
10.50
5.82
1.22
-2.91
-6.41
-9.35
-12.06
-15.01
-18.64
-23.21
-28.65
-34.39
-39.45
-42.67
-42.99
-39.86
-33.32
-24.09
-13.24
-1.99
8.62
17.80
24.99
29.90
32.40
32.59
30.81
27.64
23.79
19.98
16.75
14.40
13.02
12.52
12.68
13.31
14.18
15.08
15.77
16.00
15.56
14.28
12.03
8.83
4.75
0.03
-5.00
-9.97
-14.63
-18.88
-22.88
-26.99
-31.58
-36.91
-42.80
-48.60
-53.28
-55.61
-54.62
-49.89
-41.68
-30.90
-18.79
-6.65
4.46
13.84
21.08
25.96
28.42
28.55
26.71
23.50
19.69
16.09
13.28
11.52
10.75
10.71
11.08
11.67
12.33
12.95
13.41
13.44
12.79
11.24
8.71
5.31
1.30
-2.99
-7.27
-11.38
-15.37
-19.50
-24.15
-29.63
-36.02
-42.98
-49.70
-55.03
-57.74
-56.85
-51.97
-43.40
-32.08
-19.27
-6.27
5.81
16.22
24.48
30.29
33.49
34.11
32.47
29.28
25.52
22.25
20.24
19.77
20.53
21.88
23.11
23.72
23.58
22.84
21.70
20.23
18.30
15.69
12.21
7.93
3.13
-1.78
-6.38
-10.46
-13.98
-17.15
-20.38
-24.14
-28.83
-34.50
-40.71
-46.42
-50.24
-50.82
-47.33
-39.76
-29.01
-16.53
-3.88
7.62
17.19
24.46
29.33
31.84
32.18
30.70
27.97
24.75
21.78
19.55
18.24
17.65
17.47
17.40
17.31
17.21
17.16
17.13
16.97
16.44
15.25
13.24
10.31
6.58
2.29
-2.27
-6.77
-10.99
-14.86
-18.56
-22.42
-26.87
-32.16
-38.15
-44.21
-49.31
-52.26
-52.05
-48.24
-41.05
-31.36
-20.43
-9.50
0.48
9.02
15.94
21.27
25.00
27.12
27.71
27.12
25.91
24.80
24.35
24.72
25.70
26.83
27.69
28.05
28.01
27.80
27.64
27.56
27.40
26.86
25.59
23.40
20.25
16.34
12.01
7.65
3.55
-0.19
-3.69
-7.23
-11.11
-15.55
-20.62
-26.10
-31.58
-36.40
-39.75
-40.85
-39.15
-34.56
-27.47
-18.76
-9.38
-0.11
8.74
17.24
25.60
33.78
41.28
47.19
50.52
50.66
47.69
42.37
35.93
29.61
24.29
20.35
17.74
16.16
15.33
15.05
15.17
15.57
15.96
15.98
15.23
13.47
10.70
7.18
3.32
-0.49
-4.04
-7.35
-10.57
-13.89
-17.46
-21.33
-25.53
-30.07
-34.94
-39.95
-44.65
-48.28
-49.88
-48.66
-44.22
-36.83
-27.31
-16.88
-6.70
2.29
9.59
15.02
18.61
20.42
20.57
19.27
16.90
14.06
11.44
9.64
9.03
9.54
10.83
12.40
13.78
14.66
14.98
14.77
14.07
12.88
11.13
8.81
5.95
2.70
-0.76
-4.19
-7.42
-10.36
-12.97
-15.31
-17.51
-19.75
-22.16
-24.90
-28.07
-31.76
-36.01
-40.75
-45.64
-50.05
-53.03
-53.65
-51.18
-45.49
-37.06
-26.88
-16.10
-5.75
3.51
11.35
17.67
22.41
25.52
27.02
27.10
26.15
24.73
23.38
22.57
22.54
23.29
24.62
26.18
27.59
28.53
28.79
28.36
27.31
25.78
23.90
21.69
19.13
16.18
12.91
9.40
5.77
2.10
-1.56
-5.17
-8.67
-11.94
-14.88
-17.45
-19.72
-21.93
-24.43
-27.64
-31.88
-37.14
-42.96
-48.39
-52.16
-53.02
-50.20
-43.69
-34.27
-23.26
-12.10
-1.86
6.85
13.92
19.38
23.32
25.70
26.57
26.16
24.91
23.50
22.51
22.27
22.70
23.49
24.30
24.92
25.38
25.78
26.17
26.46
26.39
25.70
24.19
21.84
18.77
15.22
11.47
7.74
4.15
0.69
-2.72
-6.19
-9.69
-13.09
-16.19
-18.86
-21.16
-23.44
-26.20
-29.98
-35.02
-41.23
-48.03
-54.43
-59.26
-61.40
-60.00
-54.85
-46.41
-35.75
-24.25
-13.16
-3.33
4.97
11.86
17.54
22.04
25.18
26.67
26.48
24.95
22.84
21.03
20.26
20.79
22.40
24.53
26.58
28.10
28.91
29.10
28.84
28.35
27.79
27.25
26.78
26.32
25.70
24.63
22.78
19.94
16.23
12.19
8.60
6.16
5.14
5.08
4.92
3.39
-0.46
-6.95
-15.68
-25.68
-35.77
-44.70
-51.35
-54.70
-54.06
-49.19
-40.54
-29.29
-17.00
-5.24
4.84
12.69
18.32
22.01
24.05
24.65
23.95
22.18
19.77
17.30
15.37
14.39
14.46
15.35
16.68
18.01
19.05
19.68
19.87
19.64
18.96
17.75
15.89
13.35
10.16
6.54
2.75
-0.97
-4.44
-7.67
-10.70
-13.62
-16.49
-19.38
-22.42
-25.86
-30.04
-35.19
-41.24
-47.66
-53.48
-57.39
-58.25
-55.31
-48.59
-38.76
-27.02
-14.76
-3.23
6.70
14.58
20.34
24.03
25.77
25.68
23.99
21.14
17.84
14.87
12.91
12.31
12.99
14.55
16.44
18.17
19.39
19.96
19.86
19.19
18.09
16.72
15.18
13.46
11.44
8.95
5.87
2.22
-1.80
-5.86
-9.63
-12.92
-15.74
-18.33
-21.13
-24.67
-29.46
-35.73
-43.26
-51.14
-57.82
-61.35
-60.00
-52.87
-40.39
-24.35
-7.39
7.85
19.50
26.92
30.62
31.65
31.05
29.51
27.33
24.71
21.95
19.57
18.07
17.75
18.52
19.98
21.64
23.08
24.20
25.06
25.82
26.49
26.94
26.87
25.97
24.05
21.08
17.27
12.95
8.47
4.10
-0.03
-3.94
-7.72
-11.49
-15.31
-19.17
-23.05
-26.98
-31.09
-35.54
-40.42
-45.50
-50.19
-53.55
-54.51
-52.21
-46.30
-37.13
-25.65
-13.19
-1.07
9.68
18.43
25.02
29.46
31.90
32.53
31.54
29.24
26.12
22.81
19.94
18.07
17.42
17.93
19.24
20.90
22.43
23.52
23.95
23.68
22.76
21.26
19.31
17.05
14.62
12.15
9.75
7.46
5.19
2.85
0.24
-2.70
-5.97
-9.45
-12.95
-16.38
-19.77
-23.37
-27.50
-32.31
-37.58
-42.60
-46.29
-47.50
-45.42
-39.88
-31.40
-21.03
-10.06
0.37
9.47
16.80
22.23
25.79
27.62
27.89
26.94
25.15
23.00
20.94
19.34
18.41
18.16
18.46
19.04
19.67
20.16
20.45
20.60
20.66
20.59
20.19
19.13
17.13
14.05
10.03
5.45
0.79
-3.50
-7.14
-10.05
-12.42
-14.56
-16.80
-19.49
-22.81
-26.83
-31.42
-36.22
-40.62
-43.75
-44.78
-43.02
-38.21
-30.68
-21.27
-11.09
-1.20
7.57
14.69
19.91
23.10
24.27
23.54
21.25
17.93
14.27
10.94
8.50
7.23
7.16
8.07
9.53
11.14
12.49
13.38
13.76
13.64
13.02
11.82
9.91
7.23
3.92
0.24
-3.41
-6.76
-9.72
-12.43
-15.14
-18.06
-21.34
-25.04
-29.15
-33.57
-38.01
-41.94
-44.58
-45.12
-42.92
-37.81
-30.14
-20.74
-10.68
-1.03
7.34
13.89
18.36
20.79
21.37
20.50
18.65
16.33
14.05
12.25
11.25
11.14
11.79
12.90
14.06
14.97
15.48
15.64
15.53
15.22
14.56
13.31
11.20
8.16
4.35
0.15
-3.98
-7.70
-10.94
-13.89
-16.92
-20.37
-24.42
-29.07
-34.07
-38.97
-43.14
-45.80
-46.16
-43.63
-38.00
-29.56
-19.17
-7.95
2.84
12.22
19.54
24.53
27.11
27.36
25.50
22.02
17.88
14.36
12.75
13.84
17.61
23.09
28.77
33.15
35.24
34.82
32.28
28.28
23.39
17.95
12.18
6.25
0.47
-4.78
-9.14
-12.43
-14.73
-16.33
-17.71
-19.33
-21.59
-24.69
-28.63
-33.17
-37.83
-41.90
-44.51
-44.80
-42.15
-36.39
-27.91
-17.62
-6.66
3.88
13.18
20.75
26.30
29.70
30.89
29.99
27.43
23.90
20.26
17.23
15.25
14.32
14.17
14.44
14.85
15.25
15.64
16.01
16.28
16.26
15.76
14.59
12.67
9.97
6.58
2.70
-1.41
-5.39
-8.94
-11.95
-14.57
-17.20
-20.36
-24.40
-29.27
-34.46
-39.01
-41.78
-41.80
-38.51
-31.98
-22.87
-12.21
-1.17
9.19
18.07
25.01
29.75
32.25
32.62
31.13
28.19
24.34
20.23
16.45
13.48
11.58
10.74
10.76
11.27
11.95
12.56
13.00
13.21
13.11
12.53
11.21
8.93
5.62
1.47
-3.12
-7.62
-11.64
-14.98
-17.80
-20.48
-23.55
-27.49
-32.57
-38.71
-45.42
-51.84
-56.91
-59.55
-58.99
-55.03
-48.16
-39.49
-30.45
-22.47
-16.50
-13.02
-11.99
-13.14
-16.16
-20.81
-26.80
-33.73
-41.08
-48.26
-54.82
-60.59
-65.67
-70.37
-75.02
-79.82
-84.81
-89.86
-94.74
-99.13
-102.63
-104.68
-104.57
-101.53
-94.83
-84.00
-68.94
-50.01
-28.07
-4.37
19.57
42.15
61.85
77.48
88.37
94.52
96.69
96.19
94.58
93.27
93.14
94.40
96.71
99.48
102.07
104.06
105.17
105.14
103.63
100.34
95.12
88.20
80.21
72.04
64.62
58.58
54.09
50.81
48.19
45.61
42.67
39.36
35.99
33.09
31.18
30.47
30.78
31.44
31.52
30.13
26.79
21.57
15.06
8.05
1.25
-4.99
-10.65
-15.92
-20.96
-25.81
-30.28
-34.04
-36.62
-37.53
-36.27
-32.56
-26.46
-18.42
-9.28
-0.03
8.45
15.53
20.88
24.34
25.92
25.68
23.88
20.99
17.64
14.52
12.11
10.65
10.08
10.12
10.42
10.66
10.64
10.29
9.64
8.75
7.64
6.30
4.61
2.42
-0.37
-3.75
-7.52
-11.34
-14.88
-17.92
-20.45
-22.63
-24.75
-27.09
-29.89
-33.20
-36.91
-40.64
-43.83
-45.73
-45.61
-42.90
-37.43
-29.53
-20.00
-9.92
-0.35
7.92
14.49
19.28
22.44
24.12
24.44
23.50
21.51
18.90
16.24
14.13
13.00
12.98
13.85
15.14
16.32
16.95
16.82
15.94
14.48
12.70
10.76
8.70
6.45
3.88
0.89
-2.49
-6.15
-9.88
-13.46
-16.73
-19.64
-22.24
-24.68
-27.21
-30.10
-33.59
-37.74
-42.29
-46.65
-49.91
-51.06
-49.30
-44.31
-36.42
-26.52
-15.82
-5.52
3.49
10.77
16.25
20.07
22.49
23.75
24.11
23.84
23.18
22.39
21.66
21.10
20.79
20.74
20.96
21.41
21.97
22.44
22.58
22.09
20.71
18.25
14.71
10.40
5.93
2.12
-0.26
-0.87
0.02
1.55
2.56
1.98
-0.72
-5.50
-11.80
-18.90
-26.18
-33.32
-40.17
-46.61
-52.33
-56.72
-59.01
-58.42
-54.52
-47.36
-37.60
-26.28
-14.58
-3.50
6.32
14.57
21.20
26.25
29.71
31.64
32.17
31.64
30.50
29.25
28.20
27.43
26.79
26.07
25.11
23.91
22.54
21.10
19.58
17.93
16.06
13.88
11.36
8.44
5.09
1.24
-3.07
-7.68
-12.26
-16.42
-19.86
-22.55
-24.70
-26.68
-28.86
-31.48
-34.69
-38.52
-42.92
-47.67
-52.23
-55.72
-57.03
-55.16
-49.58
-40.55
-29.03
-16.43
-4.19
6.63
15.43
22.05
26.48
28.84
29.30
28.13
25.86
23.17
20.85
19.51
19.48
20.68
22.67
24.85
26.63
27.61
27.66
26.87
25.45
23.61
21.41
18.83
15.74
12.10
8.00
3.68
-0.54
-4.36
-7.61
-10.31
-12.66
-14.96
-17.60
-20.94
-25.21
-30.38
-36.04
-41.37
-45.25
-46.53
-44.39
-38.62
-29.74
-18.84
-7.27
3.70
13.15
20.59
25.86
28.94
29.86
28.74
25.89
21.87
17.47
13.58
10.89
9.75
10.01
11.19
12.70
14.04
14.98
15.51
15.72
15.58
14.96
13.59
11.23
7.85
3.67
-0.89
-5.39
-9.46
-13.06
-16.38
-19.78
-23.69
-28.43
-34.13
-40.54
-46.99
-52.41
-55.57
-55.40
-51.38
-43.72
-33.32
-21.43
-9.36
1.90
11.74
19.87
26.18
30.63
33.18
33.89
32.91
30.62
27.54
24.36
21.73
20.20
19.98
20.88
22.44
24.11
25.44
26.24
26.57
26.54
26.17
25.31
23.68
21.03
17.28
12.61
7.43
2.21
-2.63
-6.82
-10.32
-13.30
-16.06
-19.02
-22.62
-27.16
-32.68
-38.79
-44.64
-49.02
-50.66
-48.55
-42.31
-32.34
-19.74
-5.96
7.48
19.38
29.01
36.02
40.42
42.39
42.18
40.12
36.69
32.49
28.25
24.67
22.25
21.15
21.19
21.94
22.94
23.85
24.52
24.92
24.97
24.54
23.39
21.31
18.17
14.08
9.29
4.17
-0.85
-5.45
-9.41
-12.72
-15.60
-18.48
-21.88
-26.14
-31.32
-36.96
-42.16
-45.74
-46.55
-43.81
-37.32
-27.54
-15.48
-2.50
10.09
21.17
29.96
36.08
39.42
40.18
38.69
35.50
31.27
26.72
22.55
19.32
17.36
16.71
17.21
18.51
20.21
21.96
23.47
24.54
24.99
24.60
23.14
20.48
16.61
11.78
6.39
0.91
-4.24
-8.80
-12.77
-16.37
-20.00
-24.10
-28.93
-34.46
-40.19
-45.18
-48.25
-48.26
-44.51
-36.94
-26.27
-13.74
-0.86
10.97
20.73
27.82
32.08
33.67
32.93
30.39
26.68
22.54
18.72
15.76
13.88
12.96
12.57
12.25
11.71
11.06
10.73
11.29
13.07
15.85
18.80
20.72
20.49
17.54
12.00
4.66
-3.43
-11.38
-18.75
-25.54
-32.00
-38.36
-44.61
-50.44
-55.33
-58.60
-59.57
-57.72
-52.85
-45.16
-35.24
-24.01
-12.46
-1.51
8.12
15.91
21.50
24.68
25.47
24.10
21.14
17.40
13.76
10.99
9.48
9.23
9.84
10.74
11.41
11.59
11.35
10.90
10.48
10.12
9.62
8.61
6.75
3.87
0.12
-4.09
-8.25
-11.93
-14.99
-17.61
-20.28
-23.54
-27.77
-32.97
-38.59
-43.65
-46.97
-47.46
-44.49
-38.03
-28.71
-17.66
-6.31
4.00
12.33
18.36
22.44
25.31
27.75
30.18
32.48
34.12
34.48
33.25
30.55
26.93
23.07
19.47
16.33
13.66
11.38
9.51
8.18
7.47
7.29
7.29
6.91
5.58
2.98
-0.80
-5.25
-9.66
-13.38
-16.13
-18.06
-19.70
-21.74
-24.70
-28.80
-33.80
-39.05
-43.62
-46.47
-46.69
-43.72
-37.54
-28.68
-18.10
-6.97
3.66
12.97
20.51
26.02
29.46
30.82
30.28
28.17
25.10
21.78
18.96
17.16
16.57
17.05
18.19
19.57
20.71
21.36
21.41
20.90
19.99
18.85
17.56
16.02
13.97
11.13
7.42
3.06
-1.42
-5.36
-8.34
-10.34
-11.81
-13.47
-16.01
-19.80
-24.76
-30.40
-35.92
-40.36
-42.82
-42.58
-39.27
-33.02
-24.51
-14.77
-4.97
4.02
11.86
18.67
24.79
30.36
35.07
38.19
38.96
37.01
32.72
27.08
21.40
16.76
13.64
11.92
11.09
10.61
10.18
9.82
9.60
9.52
9.30
8.50
6.67
3.65
-0.38
-4.97
-9.53
-13.65
-17.13
-20.09
-22.80
-25.59
-28.68
-32.23
-36.29
-40.81
-45.54
-49.98
-53.29
-54.50
-52.72
-47.51
-39.12
-28.40
-16.61
-5.04
5.33
13.94
20.51
24.98
27.29
27.48
25.78
22.73
19.18
16.04
14.04
13.46
14.13
15.54
17.07
18.22
18.70
18.46
17.63
16.37
14.77
12.87
10.54
7.63
3.99
-0.38
-5.28
-10.34
-15.12
-19.28
-22.69
-25.51
-28.16
-31.06
-34.66
-39.18
-44.59
-50.49
-56.13
-60.48
-62.44
-61.10
-56.03
-47.42
-36.06
-23.15
-10.04
2.12
12.44
20.45
25.97
29.08
30.04
29.25
27.27
24.70
22.12
19.99
18.54
17.76
17.41
17.13
16.55
15.44
13.79
11.89
10.17
9.00
8.42
7.94
6.67
3.58
-2.06
-10.30
-20.53
-31.69
-42.65
-52.62
-61.25
-68.60
-74.90
-80.46
-85.49
-90.13
-94.26
-97.51
-99.09
-97.99
-93.13
-83.54
-68.73
-48.81
-24.72
1.80
28.45
52.89
73.42
89.59
102.27
113.21
124.10
135.58
146.93
156.35
161.92
162.49
158.09
149.83
139.42
128.83
119.88
114.02
112.00
113.34
116.19
117.70
114.85
105.70
90.25
70.62
50.26
32.82
20.97
15.84
16.93
22.65
30.76
38.94
45.13
47.74
45.85
39.27
28.44
14.42
-1.39
-17.31
-31.71
-43.20
-50.89
-54.58
-54.85
-52.97
-50.64
-49.61
-51.18
-55.96
-63.70
-73.45
-83.86
-93.55
-101.54
-107.25
-110.48
-111.10
-108.82
-103.21
-93.90
-81.05
-65.68
-49.56
-34.63
-22.37
-13.16
-6.38
-0.98
4.10
9.82
17.53
29.50
48.37
75.61
109.59
144.62
172.30
184.70
177.67
152.27
113.49
67.13
17.31
-33.99
-85.19
-133.03
-171.79
-195.21
-199.33
-184.95
-157.43
-124.30
-92.08
-64.24
-41.04
-20.95
-2.54
14.65
30.19
43.31
53.64
61.32
66.70
70.13
71.73
71.45
69.52
66.56
63.57
61.58
61.30
62.83
65.89
69.94
74.38
78.66
82.18
84.27
84.38
82.41
78.71
74.02
68.98
63.50
56.38
45.58
29.28
7.17
-18.78
-44.56
-65.42
-77.73
-80.54
-75.92
-67.91
-60.45
-55.48
-52.09
-47.29
-37.93
-22.68
-3.01
17.40
34.46
45.61
50.99
53.04
55.10
59.64
66.88
74.91
81.01
83.10
80.76
75.22
68.44
61.97
56.24
50.64
44.22
36.36
27.14
17.08
6.60
-4.42
-16.69
-30.97
-47.50
-65.47
-83.15
-98.43
-109.64
-116.15
-118.47
-117.90
-115.82
-113.11
-109.82
-105.38
-99.11
-90.68
-80.40
-69.06
-57.65
-47.01
-37.60
-29.61
-23.04
-17.91
-14.25
-12.03
-11.07
-11.01
-11.37
-11.63
-11.32
-9.99
-7.31
-3.25
1.75
6.70
10.29
11.35
9.28
4.27
-2.90
-11.15
-19.45
-27.00
-33.18
-37.48
-39.61
-39.61
-38.02
-35.82
-34.18
-34.07
-35.94
-39.57
-44.14
-48.44
-51.06
-50.71
-46.56
-38.42
-26.89
-13.10
1.58
15.92
28.96
40.01
48.51
54.10
56.77
56.97
55.56
53.50
51.52
49.84
48.25
46.41
44.19
41.81
39.67
38.00
36.68
35.15
32.66
28.67
23.05
16.18
8.76
1.47
-5.32
-11.61
-17.67
-23.87
-30.51
-37.76
-45.68
-54.19
-62.89
-70.85
-76.69
-78.82
-76.07
-68.20
-56.07
-41.46
-26.26
-11.96
0.68
11.50
20.48
27.44
31.93
33.53
32.21
28.60
23.94
19.73
17.08
16.26
16.60
16.82
15.81
13.17
9.42
5.57
2.42
-0.02
-2.59
-6.50
-12.55
-20.57
-29.49
-37.84
-44.62
-49.72
-53.97
-58.63
-64.64
-72.13
-80.31
-87.69
-92.60
-93.64
-89.87
-80.94
-67.07
-49.14
-28.82
-8.45
9.30
22.31
29.73
32.39
32.40
32.27
33.69
36.91
40.89
44.03
45.16
44.11
41.55
38.37
35.03
31.26
26.43
20.13
12.70
5.17
-1.23
-5.78
-8.68
-10.92
-13.79
-18.21
-24.38
-31.89
-40.08
-48.53
-57.11
-65.78
-74.20
-81.50
-86.32
-87.20
-83.09
-73.72
-59.79
-42.88
-24.99
-8.01
6.70
18.57
27.59
33.97
37.77
38.86
37.22
33.31
28.37
24.09
21.97
22.69
25.77
29.93
33.73
36.18
36.98
36.28
34.29
31.06
26.44
20.31
12.81
4.27
-4.82
-14.04
-23.11
-31.92
-40.51
-48.97
-57.34
-65.40
-72.54
-77.65
-79.36
-76.42
-68.31
-55.61
-40.03
-23.95
-9.57
1.92
10.69
18.05
25.60
34.19
43.45
51.77
57.17
58.33
55.22
49.23
42.50
36.97
33.78
33.13
34.48
37.08
40.18
43.18
45.44
46.34
45.30
41.98
36.31
28.50
18.75
7.20
-6.11
-21.13
-37.51
-54.50
-70.86
-85.05
-95.45
-100.76
-100.27
-94.20
-83.64
-70.42
-56.61
-43.96
-33.62
-26.11
-21.67
-20.61
-23.40
-30.41
-41.34
-54.86
-68.86
-81.04
-89.83
-94.83
-96.75
-96.68
-95.30
-92.42
-87.12
-78.47
-66.15
-50.86
-34.08
-17.52
-2.67
9.44
18.09
22.75
22.95
18.51
9.79
-2.11
-15.38
-27.86
-37.42
-42.35
-41.56
-34.59
-21.66
-3.67
17.76
40.54
62.45
81.78
97.76
110.59
121.08
129.98
137.52
143.24
146.46
146.75
144.42
140.43
136.07
132.48
130.33
129.66
130.04
130.66
130.52
128.54
123.82
115.86
104.77
91.37
77.00
63.12
50.90
40.90
32.92
26.21
19.73
12.50
3.81
-6.61
-18.58
-31.30
-43.48
-53.35
-59.15
-59.60
-54.33
-44.08
-30.38
-15.04
0.45
15.11
28.34
39.65
48.45
54.18
56.60
56.05
53.44
50.04
47.01
45.18
44.88
45.98
48.10
50.80
53.68
56.50
59.15
61.65
64.08
66.45
68.61
70.19
70.63
69.28
65.64
59.65
51.86
43.41
35.72
30.00
26.75
25.56
25.37
24.92
23.39
20.71
17.53
14.84
13.63
14.64
18.48
25.79
37.06
52.05
68.92
84.02
92.54
90.15
75.08
49.27
17.71
-13.76
-41.10
-63.65
-83.64
-104.26
-127.30
-151.87
-175.04
-193.43
-205.03
-209.78
-208.82
-203.21
-193.01
-177.70
-157.23
-132.99
-107.83
-84.84
-65.86
-50.73
-37.67
-24.90
-12.11
-1.11
4.89
2.98
-7.97
-26.77
-50.60
-76.40
-102.10
-127.05
-151.70
-176.92
-203.22
-230.54
-258.53
-286.76
-314.74
-341.58
-365.34
-382.75
-389.70
-382.29
-358.34
-318.19
-264.92
-203.54
-140.01
-80.11
-28.76
10.80
37.47
52.55
59.44
62.35
64.58
67.26
69.03
67.39
60.54
48.80
34.49
20.69
9.50
1.37
-4.47
-8.42
-9.34
-4.22
10.79
38.65
79.75
131.13
186.87
239.61
282.60
311.86
327.62
334.30
338.55
346.34
359.90
376.51
389.53
391.27
376.07
341.87
290.08
224.46
150.04
72.88
0.26
-59.71
-99.67
-115.13
-106.21
-77.50
-36.26
10.61
58.51
105.41
150.22
190.87
223.50
243.44
247.49
235.81
212.23
182.36
151.02
120.26
89.38
57.26
24.90
-3.25
-20.65
-21.99
-6.53
20.71
50.79
74.79
87.38
88.00
79.57
65.74
48.43
27.54
2.13
-27.41
-58.25
-85.71
-105.25
-114.57
-114.69
-109.42
-103.87
-102.87
-110.01
-127.14
-153.97
-187.82
-223.55
-254.57
-275.03
-282.08
-277.69
-268.69
-264.79
-275.06
-304.20
-350.16
-404.55
-455.27
-490.57
-502.75
-490.03
-456.08
-407.68
-351.80
-293.58
-235.84
-179.86
-126.67
-77.59
-33.78
4.80
40.09
75.68
115.48
161.63
213.05
265.10
310.55
342.01
354.44
346.81
322.15
286.10
244.67
202.46
162.13
125.09
92.64
66.79
50.01
44.29
50.13
66.00
88.83
114.91
141.04
165.14
186.39
204.82
220.69
234.11
244.79
252.25
255.94
255.58
251.19
243.02
231.37
216.49
198.58
177.86
154.71
129.74
103.73
77.63
52.39
28.75
7.21
-12.18
-29.72
-45.94
-61.42
-76.50
-91.13
-104.86
-116.97
-126.87
-134.29
-139.43
-142.78
-144.82
-145.65
-144.77
-141.27
-134.07
-122.44
-106.39
-86.80
-65.31
-43.91
-24.55
-8.70
2.85
9.97
13.08
12.93
10.44
6.58
2.36
-1.27
-3.55
-4.02
-2.70
-0.02
3.40
6.90
10.02
12.55
14.40
15.48
15.65
14.73
12.61
9.34
5.23
0.71
-3.84
-8.17
-12.30
-16.52
-21.30
-27.14
-34.27
-42.47
-50.90
-58.14
-62.47
-62.34
-56.85
-46.03
-30.87
-13.06
5.51
23.22
38.91
51.99
62.09
68.91
72.04
71.18
66.40
58.44
48.71
38.93
30.63
24.64
21.03
19.18
18.24
17.45
16.33
14.61
12.14
8.90
4.95
0.45
-4.36
-9.25
-14.06
-18.71
-23.14
-27.31
-31.24
-35.18
-39.62
-45.18
-52.24
-60.68
-69.61
-77.57
-82.86
-84.04
-80.40
-72.06
-59.98
-45.60
-30.53
-16.24
-3.85
5.96
12.89
16.95
18.42
17.81
15.77
13.03
10.26
8.05
6.71
6.34
6.84
8.02
9.72
11.83
14.22
16.68
18.76
19.94
19.64
17.52
13.61
8.31
2.36
-3.44
-8.44
-12.33
-15.23
-17.69
-20.57
-24.68
-30.43
-37.48
-44.65
-50.18
-52.25
-49.60
-41.91
-29.84
-14.84
1.36
17.04
30.80
41.64
49.00
52.83
53.53
51.88
48.77
45.00
41.12
37.35
33.77
30.34
27.03
23.89
20.94
18.24
15.81
13.65
11.72
9.85
7.72
4.90
1.04
-4.00
-9.91
-15.90
-20.93
-24.10
-25.14
-24.56
-23.60
-23.69
-25.71
-29.62
-34.29
-37.98
-38.97
-36.23
-29.71
-20.25
-9.21
2.01
12.33
21.09
27.97
32.92
35.90
36.90
35.87
32.90
28.33
22.76
17.09
12.19
8.76
7.10
7.04
8.02
9.28
10.06
9.80
8.27
5.57
2.08
-1.79
-5.73
-9.63
-13.60
-17.83
-22.52
-27.82
-33.81
-40.39
-47.16
-53.29
-57.54
-58.54
-55.23
-47.27
-35.32
-20.87
-5.79
8.16
19.76
28.44
34.09
36.86
36.96
34.57
30.07
24.13
17.68
11.81
7.47
5.08
4.52
5.10
5.94
6.33
5.95
4.85
3.27
1.44
-0.61
-2.99
-5.80
-9.06
-12.68
-16.55
-20.63
-24.99
-29.63
-34.39
-38.83
-42.24
-43.85
-43.02
-39.40
-32.98
-24.12
-13.44
-1.81
9.81
20.46
29.38
36.08
40.32
42.15
41.79
39.64
36.24
32.23
28.24
24.74
21.98
19.99
18.60
17.61
16.85
16.15
15.37
14.32
12.82
10.73
7.97
4.59
0.69
-3.63
-8.33
-13.44
-19.03
-25.19
-31.88
-38.81
-45.37
-50.61
-53.42
-52.82
-48.27
-39.99
-28.96
-16.73
-4.96
4.92
12.11
16.37
17.94
17.27
14.91
11.38
7.24
3.07
-0.57
-3.17
-4.40
-4.10
-2.35
0.55
4.06
7.48
10.12
11.45
11.28
9.87
7.84
5.94
4.82
4.67
5.21
5.74
5.47
3.85
0.85
-2.96
-6.54
-8.54
-7.56
-2.33
7.87
22.71
40.56
58.61
73.73
83.69
88.20
89.03
89.03
90.63
94.43
98.90
101.18
98.49
89.45
74.42
55.03
33.24
10.68
-11.56
-32.57
-51.35
-66.73
-77.74
-84.09
-86.53
-86.78
-86.99
-89.04
-93.87
-101.21
-109.89
-118.41
-125.63
-131.00
-134.54
-136.39
-136.47
-134.31
-129.27
-120.95
-109.50
-95.75
-80.99
-66.61
-53.79
-43.28
-35.33
-29.85
-26.48
-24.72
-24.00
-23.69
-23.16
-21.75
-18.78
-13.55
-5.42
6.07
20.91
38.33
56.50
72.61
83.34
85.88
79.02
63.85
43.72
23.25
6.76
-3.24
-6.88
-6.72
-6.72
-10.78
-21.38
-38.69
-60.44
-82.59
-100.46
-110.04
-109.16
-97.85
-78.25
-53.71
-27.82
-3.49
17.59
35.01
49.41
61.85
73.30
84.10
93.94
102.04
107.60
110.18
109.78
106.60
100.84
92.56
81.97
69.68
56.85
45.02
35.50
28.89
24.81
22.19
19.86
17.00
13.41
9.33
5.03
0.54
-4.43
-10.24
-17.02
-24.30
-31.14
-36.30
-38.59
-37.19
-31.85
-22.89
-11.16
2.07
15.35
27.32
37.07
44.21
48.81
51.08
51.24
49.39
45.72
40.75
35.32
30.43
26.82
24.71
23.81
23.60
23.68
23.98
24.64
25.65
26.64
26.83
25.36
21.81
16.49
10.43
4.98
1.20
-0.65
-1.20
-1.65
-3.21
-6.58
-11.62
-17.47
-22.82
-26.19
-26.33
-22.42
-14.28
-2.46
11.83
27.04
41.58
54.29
64.50
71.89
76.39
77.99
76.82
73.19
67.54
60.35
51.86
42.12
31.17
19.34
7.39
-3.65
-12.89
-19.91
-24.97
-28.75
-32.10
-35.66
-39.79
-44.56
-49.86
-55.44
-60.92
-65.78
-69.44
-71.50
-71.89
-70.93
-69.31
-67.85
-67.34
-68.32
-71.00
-75.13
-80.00
-84.43
-86.94
-85.99
-80.48
-70.13
-55.69
-38.79
-21.41
-5.28
8.60
20.03
29.32
36.85
42.79
47.06
49.50
50.14
49.32
47.56
45.43
43.32
41.38
39.65
38.15
37.07
36.77
37.68
40.06
43.80
48.24
52.31
54.79
54.66
51.41
45.14
36.50
26.44
15.99
6.12
-2.38
-8.92
-13.16
-15.11
-15.14
-14.10
-13.16
-13.51
-16.02
-20.89
-27.42
-34.26
-39.73
-42.36
-41.31
-36.51
-28.55
-18.40
-7.08
4.55
15.81
26.18
35.19
42.35
47.23
49.49
49.13
46.55
42.53
38.05
34.07
31.29
30.02
30.11
31.12
32.39
33.27
33.25
32.07
29.82
26.92
24.01
21.79
20.68
20.71
21.38
21.90
21.34
19.02
14.79
9.07
2.71
-3.30
-8.13
-11.30
-12.74
-12.68
-11.59
-10.03
-8.66
-8.09
-8.74
-10.68
-13.43
-15.97
-17.03
-15.45
-10.58
-2.52
7.94
19.57
31.15
41.76
50.87
58.26
63.74
66.99
67.55
64.94
59.01
50.17
39.39
28.09
17.76
9.63
4.37
1.96
1.84
3.09
4.79
6.17
6.80
6.49
5.25
3.23
0.67
-2.04
-4.47
-6.17
-6.91
-6.81
-6.39
-6.38
-7.39
-9.63
-12.66
-15.60
-17.49
-17.81
-16.72
-15.20
-14.55
-15.92
-19.75
-25.57
-32.11
-37.78
-41.29
-42.01
-40.12
-36.36
-31.64
-26.56
-21.27
-15.53
-8.99
-1.51
6.61
14.74
22.10
28.04
32.28
34.85
36.03
36.28
36.11
35.98
36.22
36.84
37.51
37.60
36.62
34.49
31.81
29.61
28.83
29.65
31.28
32.18
30.79
26.30
19.05
10.28
1.52
-6.06
-12.09
-16.92
-21.26
-25.86
-31.17
-37.32
-44.18
-51.45
-58.78
-65.90
-72.62
-78.86
-84.59
-89.71
-94.09
-97.62
-100.14
-101.51
-101.44
-99.41
-94.78
-87.05
-76.15
-62.68
-47.82
-32.86
-18.75
-5.76
6.50
18.60
30.84
42.82
53.33
60.69
63.30
60.23
51.75
39.38
25.60
13.18
4.37
0.27
0.53
3.56
6.97
8.33
5.81
-1.25
-12.13
-24.95
-37.30
-47.12
-53.45
-56.76
-58.58
-60.63
-63.95
-68.44
-73.17
-77.12
-79.89
-81.93
-84.19
-87.37
-91.40
-95.33
-97.78
-97.64
-94.50
-88.79
-81.30
-72.77
-63.49
-53.35
-42.06
-29.47
-15.53
-0.23
16.58
35.11
55.28
76.37
96.78
114.29
126.79
132.98
132.86
127.62
119.11
109.13
98.97
89.26
80.14
71.57
63.54
56.13
49.63
44.45
41.10
40.02
41.39
44.89
49.60
54.19
57.32
58.01
55.90
51.24
44.62
36.72
28.10
19.25
10.67
3.02
-2.98
-6.79
-8.33
-8.20
-7.56
-7.78
-9.96
-14.51
-20.99
-28.27
-34.86
-39.45
-41.22
-39.96
-36.09
-30.34
-23.52
-16.23
-8.78
-1.26
6.23
13.31
19.24
23.01
23.67
20.78
14.69
6.53
-2.19
-10.09
-16.38
-20.95
-24.22
-26.65
-28.51
-29.80
-30.28
-29.73
-28.08
-25.39
-21.91
-17.98
-14.07
-10.77
-8.66
-8.13
-9.20
-11.50
-14.41
-17.38
-20.05
-22.34
-24.31
-25.91
-26.99
-27.31
-26.82
-25.77
-24.74
-24.42
-25.30
-27.40
-30.16
-32.73
-34.25
-34.17
-32.35
-29.05
-24.60
-19.28
-13.20
-6.38
1.00
8.52
15.53
21.28
25.28
27.42
28.05
27.73
27.00
26.15
25.15
23.87
22.25
20.52
19.21
18.91
19.89
21.95
24.43
26.53
27.68
27.77
27.09
26.13
25.19
24.25
23.03
21.24
18.77
15.71
12.32
8.79
5.19
1.51
-2.31
-6.27
-10.34
-14.55
-18.96
-23.63
-28.57
-33.67
-38.66
-43.14
-46.60
-48.39
-47.95
-44.87
-39.15
-31.28
-22.08
-12.51
-3.41
4.66
11.40
16.69
20.43
22.58
23.16
22.30
20.29
17.48
14.23
10.92
7.90
5.57
4.25
4.14
5.22
7.18
9.45
11.36
12.24
11.63
9.36
5.69
1.16
-3.51
-7.78
-11.43
-14.70
-18.06
-21.94
-26.38
-30.99
-35.06
-37.90
-39.22
-39.23
-38.58
-38.09
-38.51
-40.29
-43.60
-48.20
-53.38
-57.91
-60.16
-58.50
-51.92
-40.50
-25.55
-9.09
6.97
21.54
34.59
46.76
58.48
69.41
78.33
83.77
84.86
81.93
76.47
70.41
65.32
61.80
59.49
57.60
55.49
53.04
50.56
48.42
46.70
45.00
42.62
38.92
33.61
26.96
19.62
12.46
6.18
1.15
-2.69
-5.74
-8.51
-11.38
-14.49
-17.63
-20.48
-22.76
-24.38
-25.49
-26.41
-27.47
-28.91
-30.85
-33.23
-35.74
-37.85
-38.76
-37.61
-33.70
-26.79
-17.29
-6.14
5.38
16.06
25.04
31.94
36.80
39.89
41.43
41.55
40.25
37.60
33.87
29.61
25.52
22.21
20.04
18.88
18.26
17.60
16.57
15.27
14.18
13.93
14.83
16.62
18.43
19.10
17.69
13.92
8.34
2.19
-3.08
-6.45
-7.70
-7.40
-6.72
-6.91
-8.88
-13.01
-19.10
-26.53
-34.42
-41.83
-47.83
-51.49
-52.05
-49.02
-42.36
-32.61
-20.85
-8.59
2.70
11.82
18.17
21.76
23.03
22.61
21.07
18.76
15.97
12.93
10.01
7.60
6.10
5.74
6.50
8.09
10.11
12.09
13.64
14.46
14.37
13.34
11.50
9.12
6.52
3.98
1.57
-0.84
-3.47
-6.47
-9.79
-13.17
-16.30
-19.04
-21.50
-24.02
-26.95
-30.37
-33.99
-37.16
-39.04
-38.83
-36.00
-30.45
-22.55
-13.08
-3.08
6.40
14.45
20.53
24.55
26.70
27.35
26.83
25.37
23.11
20.20
16.92
13.64
10.77
8.65
7.48
7.17
7.52
8.20
8.96
9.68
10.29
10.71
10.80
10.28
8.86
6.41
3.00
-1.01
-5.06
-8.64
-11.48
-13.61
-15.38
-17.28
-19.79
-23.22
-27.65
-32.83
-38.18
-42.91
-46.06
-46.84
-44.78
-39.95
-32.99
-24.87
-16.62
-9.10
-2.79
2.12
5.58
7.63
8.39
8.12
7.32
6.59
6.40
6.88
7.74
8.36
8.13
6.86
4.84
2.85
1.77
2.28
4.72
9.17
15.67
24.26
34.98
47.66
61.75
76.42
90.71
103.72
114.62
122.48
126.27
124.97
118.02
105.89
90.19
73.39
57.95
45.38
35.90
28.67
22.52
16.73
11.36
7.09
4.70
4.57
6.42
9.41
12.41
14.22
13.90
11.07
6.29
1.21
-1.66
0.19
8.21
21.90
38.86
55.76
69.81
79.93
87.01
93.00
99.69
107.78
116.69
125.21
132.34
137.80
141.83
144.74
146.36
145.98
142.65
135.65
124.84
110.77
94.50
77.17
59.67
42.48
25.65
9.14
-6.84
-21.58
-33.93
-42.69
-47.07
-47.13
-43.75
-38.29
-32.11
-26.13
-20.80
-16.16
-12.11
-8.56
-5.44
-2.73
-0.36
1.74
3.65
5.38
6.86
7.88
8.34
8.26
7.86
7.44
7.23
7.11
6.58
5.00
1.79
-3.24
-9.91
-17.81
-26.58
-36.08
-46.25
-57.01
-68.13
-79.29
-90.22
-100.74
-110.68
-119.56
-126.54
-130.57
-130.78
-126.89
-119.38
-109.28
-97.87
-86.29
-75.35
-65.60
-57.48
-51.36
-47.48
-45.70
-45.33
-45.22
-44.03
-40.66
-34.60
-26.11
-16.15
-5.99
3.13
10.33
15.19
17.47
16.87
12.86
4.86
-7.23
-22.53
-38.90
-53.25
-62.47
-64.39
-58.54
-46.11
-29.24
-10.32
8.51
25.41
38.78
47.49
51.45
51.96
51.47
52.37
55.57
59.49
60.33
53.79
37.27
11.33
-20.11
-51.22
-76.42
-92.08
-97.22
-93.19
-82.65
-68.54
-53.66
-40.28
-30.03
-23.54
-20.10
-17.61
-13.00
-3.29
13.07
35.02
58.65
78.25
88.08
84.40
66.57
36.71
-1.83
-46.12
-94.24
-144.43
-193.65
-236.42
-265.52
-274.13
-258.56
-219.59
-161.76
-91.34
-14.27
64.16
138.58
202.66
249.44
273.58
273.99
255.14
225.93
196.19
172.77
157.47
147.38
137.37
122.99
102.46
76.76
48.64
21.08
-3.80
-25.17
-43.36
-59.53
-75.28
-92.54
-113.18
-138.56
-168.97
-203.35
-239.24
-273.56
-303.43
-327.26
-345.05
-358.12
-367.51
-372.76
-371.61
-360.87
-338.13
-303.31
-259.04
-209.84
-161.28
-117.44
-80.10
-48.77
-21.50
3.82
28.64
53.27
76.57
94.62
102.96
97.62
76.71
41.59
-3.07
-50.31
-92.69
-124.34
-145.06
-158.60
-171.79
-192.34
-226.19
-275.60
-338.27
-407.31
-472.68
-526.90
-564.20
-583.20
-586.55
-579.82
-569.57
-561.41
-558.13
-538.15
-483.84
-383.69
-239.74
-67.68
109.45
270.68
403.25
503.39
573.46
613.78
628.63
620.00
589.56
540.49
477.76
406.51
331.30
255.75
180.43
108.76
45.37
-3.78
-33.42
-41.28
-29.25
-2.78
31.95
68.16
102.17
131.47
154.56
170.48
179.00
181.25
179.38
176.97
176.11
178.15
181.45
182.71
178.39
166.70
148.75
127.56
108.61
97.16
98.78
116.70
151.03
198.35
251.94
303.39
343.61
367.72
364.95
331.35
270.30
191.50
106.41
22.54
-50.38
-114.77
-172.07
-219.86
-251.33
-259.77
-243.25
-203.69
-147.58
-83.60
-20.87
35.65
84.31
126.63
164.54
198.86
229.22
254.69
275.45
292.65
309.39
327.83
347.63
364.21
369.47
354.91
315.05
250.38
166.96
74.55
-18.29
-107.14
-192.22
-275.32
-355.61
-427.37
-481.00
-507.39
-502.22
-468.79
-416.82
-358.36
-303.20
-255.97
-216.18
-180.76
-146.56
-111.55
-74.74
-35.54
5.91
47.34
83.16
105.23
105.84
81.63
36.12
-20.68
-75.67
-117.14
-137.99
-136.68
-115.88
-80.57
-36.55
10.22
54.09
90.56
117.53
136.23
150.74
166.24
186.67
213.14
243.58
273.86
299.69
318.19
329.00
334.12
336.78
339.81
344.36
349.15
351.02
346.03
330.76
303.28
263.36
212.19
152.10
86.40
19.14
-45.02
-101.60
-147.14
-180.04
-201.13
-213.39
-221.06
-228.42
-238.46
-252.24
-268.75
-285.60
-300.07
-310.05
-314.58
-313.74
-308.20
-298.64
-285.49
-269.05
-249.91
-229.21
-208.69
-190.15
-174.91
-163.30
-154.49
-146.70
-137.78
-125.85
-109.90
-90.08
-67.53
-43.89
-20.79
0.63
19.74
36.03
48.74
56.57
57.84
51.07
35.68
12.83
-14.25
-40.53
-60.09
-67.63
-60.09
-37.71
-4.12
34.77
72.66
104.71
128.53
144.04
152.60
155.74
154.52
149.56
141.38
130.82
119.05
107.35
96.80
88.21
81.98
78.14
76.32
75.68
75.08
73.45
70.35
66.27
62.59
61.05
63.00
68.82
77.82
88.60
99.75
110.41
120.32
129.48
137.68
144.34
148.77
150.67
150.64
150.00
150.04
151.07
151.91
150.18
143.35
130.05
110.79
87.89
64.47
43.36
26.20
13.13
3.10
-5.57
-14.51
-24.68
-36.07
-47.69
-58.02
-65.65
-69.85
-70.85
-69.82
-68.27
-67.60
-68.64
-71.63
-76.46
-82.88
-90.60
-99.11
-107.48
-114.29
-117.94
-117.26
-112.00
-103.07
-92.22
-81.46
-72.31
-65.45
-60.84
-58.19
-57.51
-59.19
-63.78
-71.49
-81.78
-93.36
-104.59
-113.96
-120.45
-123.44
-122.54
-117.37
-107.73
-94.04
-77.73
-61.23
-47.27
-37.85
-33.37
-32.42
-32.56
-31.47
-27.97
-22.25
-15.37
-8.35
-1.44
5.86
14.25
23.88
34.00
43.19
50.04
54.02
55.87
57.45
61.10
68.68
80.64
95.52
109.90
118.94
117.59
102.08
71.41
28.46
-20.15
-65.32
-97.62
-109.74
-98.27
-64.71
-15.02
41.78
95.87
138.97
166.11
176.12
170.97
154.19
129.44
99.80
68.00
37.02
10.21
-9.53
-21.07
-26.06
-28.64
-33.72
-44.71
-62.03
-82.98
-103.21
-118.61
-126.94
-128.37
-125.03
-119.78
-114.98
-111.50
-108.53
-104.06
-96.09
-83.92
-68.88
-53.92
-42.31
-35.97
-34.50
-35.49
-35.95
-34.09
-30.20
-26.36
-24.98
-27.35
-33.07
-40.50
-47.96
-54.65
-60.84
-67.13
-73.62
-79.39
-82.94
-82.94
-79.16
-72.67
-65.39
-59.19
-55.20
-53.55
-53.64
-54.80
-56.61
-59.03
-62.01
-65.11
-67.34
-67.47
-64.64
-58.91
-51.19
-42.75
-34.39
-25.96
-16.60
-5.40
7.92
22.87
38.62
54.78
71.59
89.56
108.54
127.14
142.97
153.89
159.43
161.66
164.73
173.30
190.69
217.52
251.54
288.19
321.89
347.33
360.43
359.12
343.88
317.99
287.06
257.63
235.15
222.17
217.53
217.06
215.39
208.00
192.39
168.29
136.90
100.09
60.01
19.06
-20.03
-54.48
-82.08
-102.01
-115.06
-123.19
-128.61
-132.83
-136.33
-138.81
-139.68
-138.73
-136.33
-133.25
-130.20
-127.50
-124.97
-122.30
-119.36
-116.69
-114.95
-114.64
-115.44
-116.42
-116.64
-116.42
-117.86
-124.16
-138.05
-160.29
-189.51
-223.10
-258.54
-293.92
-327.31
-355.67
-374.49
-379.06
-366.74
-338.89
-300.88
-260.03
-222.54
-191.34
-165.91
-143.88
-123.12
-102.82
-83.28
-64.65
-46.18
-26.45
-3.64
23.60
55.80
92.27
131.13
169.27
202.80
227.86
241.70
243.63
235.24
219.77
200.98
182.17
165.74
153.38
146.47
146.16
152.78
165.11
179.84
192.06
196.66
190.09
171.77
144.46
113.59
85.62
66.17
58.54
63.07
77.40
97.44
118.51
136.47
148.22
151.88
146.56
132.20
109.59
80.39
47.26
13.62
-17.03
-41.80
-59.24
-69.55
-74.31
-75.79
-76.19
-77.09
-79.28
-82.85
-87.39
-92.21
-96.46
-99.26
-99.88
-97.87
-93.29
-86.66
-78.86
-70.91
-63.66
-57.59
-52.73
-48.74
-45.02
-41.04
-36.56
-31.69
-26.83
-22.43
-18.83
-16.15
-14.40
-13.62
-14.00
-15.79
-19.06
-23.35
-27.55
-30.04
-29.21
-23.95
-14.04
-0.28
15.82
32.36
47.52
59.75
68.04
71.93
71.61
67.97
62.25
55.85
49.78
44.51
39.94
35.72
31.59
27.44
23.38
19.51
15.88
12.47
9.23
6.22
3.49
1.01
-1.41
-4.13
-7.62
-12.19
-17.97
-24.75
-32.09
-39.34
-45.74
-50.65
-53.65
-54.65
-53.81
-51.42
-47.84
-43.34
-38.14
-32.35
-26.02
-19.09
-11.46
-3.18
5.40
13.39
19.56
22.54
21.37
15.89
6.83
-4.41
-16.28
-27.57
-37.78
-47.20
-56.74
-67.30
-79.01
-90.54
-99.06
-100.98
-93.46
-75.83
-50.40
-21.93
4.15
23.62
34.92
39.15
38.79
36.13
32.15
26.46
18.19
7.03
-6.22
-19.88
-32.15
-41.87
-48.76
-53.12
-55.23
-54.93
-51.70
-45.04
-35.07
-22.55
-8.50
6.44
22.58
41.23
64.32
93.72
130.47
174.15
222.56
271.67
316.20
350.47
369.71
371.22
355.02
323.64
281.13
231.83
179.44
126.67
75.63
28.24
-13.57
-48.13
-74.56
-93.18
-105.48
-113.58
-119.33
-123.69
-126.50
-126.92
-124.20
-118.34
-110.26
-101.37
-92.89
-85.31
-78.24
-70.95
-62.99
-54.70
-47.16
-41.76
-39.39
-39.94
-42.16
-44.27
-44.56
-42.10
-37.03
-30.41
-23.65
-18.01
-14.17
-12.03
-10.91
-9.83
-7.88
-4.62
-0.22
4.49
8.14
9.16
6.23
-1.28
-12.85
-26.85
-40.90
-52.53
-59.83
-61.86
-58.69
-51.08
-40.00
-26.37
-10.96
5.50
22.10
37.76
51.26
61.37
67.04
67.45
62.23
51.62
36.76
19.62
2.71
-11.44
-20.98
-25.18
-24.52
-20.34
-14.33
-8.03
-2.57
1.37
3.43
3.40
1.23
-2.97
-8.88
-15.94
-23.42
-30.55
-36.66
-41.37
-44.61
-46.63
-47.76
-48.17
-47.73
-45.98
-42.43
-36.81
-29.34
-20.84
-12.40
-5.13
0.34
4.01
6.53
8.81
11.57
14.99
18.52
21.18
21.96
20.33
16.49
11.35
6.14
2.03
-0.22
-0.46
0.96
3.35
5.85
7.74
8.49
7.90
6.07
3.34
0.15
-3.09
-6.05
-8.51
-10.38
-11.67
-12.64
-13.62
-14.89
-16.54
-18.22
-19.25
-18.78
-16.21
-11.44
-4.94
2.44
9.88
16.74
22.75
27.83
32.02
35.26
37.47
38.54
38.43
37.16
34.84
31.64
27.88
24.01
20.60
18.31
17.61
18.63
21.00
23.83
25.87
25.86
22.95
17.04
8.93
-0.07
-8.62
-15.93
-22.07
-27.73
-33.66
-40.19
-46.97
-53.07
-57.50
-59.69
-59.64
-57.84
-55.09
-52.32
-50.42
-50.00
-50.89
-51.77
-50.18
-43.22
-28.84
-6.84
20.80
50.38
77.49
98.06
109.02
108.65
97.10
76.44
50.21
22.23
-4.84
-30.30
-54.81
-78.94
-101.65
-119.88
-129.93
-129.28
-117.82
-97.46
-70.50
-38.12
-0.54
41.13
83.16
118.67
139.65
140.27
119.65
82.47
37.13
-7.43
-44.39
-70.35
-85.00
-89.82
-86.89
-78.32
-66.24
-52.83
-40.22
-30.08
-23.20
-19.57
-18.47
-18.95
-20.06
-20.87
-20.46
-17.81
-11.98
-2.35
11.07
27.58
45.82
64.13
80.85
94.51
104.17
109.34
110.12
107.16
101.70
95.34
89.78
86.41
86.01
88.68
93.81
100.31
106.94
112.59
116.57
118.77
119.66
120.05
120.83
122.55
125.21
128.22
130.60
131.30
129.62
125.33
118.68
110.29
100.90
91.10
81.32
71.74
62.35
53.12
44.05
35.27
27.01
19.54
12.95
7.15
1.86
-3.23
-8.30
-13.49
-18.86
-24.61
-31.05
-38.36
-46.39
-54.53
-61.86
-67.55
-71.21
-73.11
-73.91
-74.41
-75.04
-75.79
-76.28
-75.98
-74.46
-71.47
-66.94
-60.97
-53.87
-46.11
-38.29
-31.02
-24.81
-19.96
-16.57
-14.59
-13.88
-14.19
-15.13
-16.23
-16.96
-16.94
-16.07
-14.51
-12.68
-10.93
-9.46
-8.23
-7.09
-5.99
-5.08
-4.63
-4.95
-6.19
-8.19
-10.60
-13.00
-15.03
-16.53
-17.53
-18.27
-19.03
-20.16
-21.88
-24.31
-27.37
-30.77
-34.14
-37.02
-39.05
-39.99
-39.90
-39.12
-38.19
-37.65
-37.85
-38.76
-39.95
-40.77
-40.63
-39.25
-36.73
-33.43
-29.75
-25.84
-21.57
-16.52
-10.19
-2.18
7.67
19.21
32.01
45.38
58.49
70.44
80.46
88.06
93.21
96.35
98.30
99.82
101.29
102.55
103.03
102.30
100.54
98.77
98.56
101.18
106.51
112.41
114.85
108.82
89.58
54.11
2.15
-62.95
-134.16
-201.65
-254.63
-283.89
-284.20
-255.73
-204.02
-138.44
-69.72
-7.21
42.98
78.84
101.79
115.19
122.50
125.90
125.77
121.20
111.01
94.66
72.64
46.06
16.02
-16.62
-50.90
-85.16
-116.76
-142.62
-160.32
-169.09
-170.20
-166.42
-160.79
-155.45
-150.93
-146.25
-139.67
-129.81
-116.45
-100.99
-85.99
-74.31
-67.91
-67.12
-70.61
-75.95
-80.70
-83.17
-82.81
-79.95
-75.19
-68.93
-61.13
-51.54
-40.01
-26.83
-12.70
1.44
14.78
26.80
37.22
45.80
52.02
55.10
54.22
48.95
39.69
27.80
15.37
4.65
-2.60
-5.57
-4.52
-0.58
4.72
9.89
13.86
16.10
16.60
15.66
13.76
11.45
9.28
7.80
7.29
7.71
8.52
8.83
7.67
4.47
-0.73
-7.13
-13.49
-18.57
-21.44
-21.72
-19.51
-15.13
-8.95
-1.32
7.38
16.51
25.16
32.28
36.98
38.92
38.45
36.53
34.29
32.62
31.85
31.81
32.07
32.24
32.16
31.81
31.13
29.86
27.53
23.77
18.56
12.39
6.03
0.12
-5.12
-10.04
-15.16
-20.73
-26.35
-31.09
-34.00
-34.62
-33.32
-31.07
-28.98
-27.59
-26.72
-25.51
-23.02
-18.64
-12.40
-4.80
3.44
11.63
19.34
26.31
32.33
37.15
40.47
42.10
42.02
40.52
38.03
35.08
32.07
29.32
27.05
25.44
24.64
24.65
25.27
26.11
26.68
26.59
25.59
23.67
20.96
17.64
13.83
9.63
5.20
0.80
-3.31
-6.93
-10.11
-13.14
-16.39
-20.05
-23.93
-27.36
-29.36
-28.95
-25.48
-18.87
-9.65
1.21
12.47
22.89
31.41
37.31
40.29
40.53
38.53
35.05
30.86
26.64
22.88
19.87
17.81
16.75
16.64
17.29
18.37
19.47
20.26
20.56
20.46
20.12
19.66
18.98
17.78
15.70
12.53
8.42
3.83
-0.63
-4.47
-7.58
-10.20
-12.84
-15.93
-19.62
-23.57
-27.01
-28.93
-28.35
-24.66
-17.74
-8.16
3.04
14.54
25.04
33.48
39.17
41.83
41.51
38.52
33.42
26.96
20.05
13.59
8.36
4.83
3.09
2.90
3.84
5.49
7.57
9.89
12.24
14.33
15.70
15.91
14.68
12.05
8.36
4.12
-0.20
-4.27
-7.97
-11.30
-14.31
-17.03
-19.49
-21.66
-23.47
-24.73
-25.12
-24.25
-21.78
-17.59
-11.81
-4.91
2.49
9.72
16.28
21.81
26.09
29.00
30.46
30.39
28.83
25.95
22.09
17.75
13.49
9.84
7.19
5.70
5.36
5.94
7.09
8.41
9.53
10.20
10.29
9.74
8.54
6.65
4.07
0.88
-2.67
-6.20
-9.30
-11.73
-13.51
-14.90
-16.29
-17.88
-19.54
-20.73
-20.76
-19.01
-15.28
-9.80
-3.17
3.84
10.54
16.43
21.23
24.73
26.73
27.06
25.66
22.69
18.59
14.06
9.79
6.39
4.16
3.12
3.00
3.48
4.24
5.07
5.87
6.50
6.77
6.46
5.39
3.52
1.08
-1.52
-3.79
-5.40
-6.35
-6.91
-7.52
-8.57
-10.26
-12.59
-15.44
-18.64
-21.98
-25.13
-27.61
-28.83
-28.23
-25.50
-20.78
-14.60
-7.75
-1.07
4.81
9.54
13.03
15.32
16.54
16.83
16.30
15.07
13.27
11.05
8.71
6.61
5.21
4.91
5.82
7.66
9.74
11.24
11.54
10.47
8.34
5.74
3.15
0.81
-1.31
-3.29
-5.15
-6.83
-8.31
-9.80
-11.64
-14.13
-17.25
-20.57
-23.44
-25.31
-26.03
-25.80
-24.91
-23.45
-21.19
-17.72
-12.76
-6.46
0.59
7.57
13.64
18.21
20.93
21.75
20.82
18.49
15.25
11.66
8.24
5.38
3.30
2.09
1.74
2.14
3.04
4.07
4.85
5.07
4.65
3.73
2.60
1.50
0.45
-0.71
-2.25
-4.35
-6.97
-9.83
-12.54
-14.74
-16.25
-17.12
-17.61
-18.06
-18.78
-19.92
-21.38
-22.84
-23.79
-23.63
-21.85
-18.19
-12.67
-5.75
1.84
9.18
15.37
19.79
22.22
22.87
22.25
20.90
19.19
17.25
15.03
12.52
9.91
7.56
5.87
5.02
4.88
5.04
5.03
4.59
3.72
2.66
1.67
0.82
-0.01
-1.06
-2.55
-4.49
-6.67
-8.76
-10.46
-11.63
-12.39
-13.03
-13.84
-15.09
-16.87
-19.11
-21.56
-23.82
-25.36
-25.65
-24.23
-20.91
-15.85
-9.55
-2.78
3.64
9.10
13.30
16.21
17.93
18.58
18.19
16.78
14.46
11.53
8.48
5.87
4.11
3.38
3.56
4.33
5.31
6.19
6.71
6.77
6.36
5.56
4.46
3.14
1.62
-0.14
-2.14
-4.31
-6.49
-8.46
-10.04
-11.22
-12.13
-13.08
-14.34
-16.12
-18.45
-21.22
-24.12
-26.70
-28.35
-28.43
-26.43
-22.21
-16.12
-8.96
-1.72
4.69
9.68
13.06
15.00
15.80
15.82
15.37
14.64
13.77
12.79
11.64
10.24
8.67
7.12
5.96
5.50
5.81
6.71
7.79
8.68
9.17
9.23
8.91
8.23
7.10
5.41
3.22
0.72
-1.72
-3.77
-5.26
-6.26
-6.97
-7.65
-8.51
-9.64
-11.11
-12.97
-15.20
-17.58
-19.66
-20.73
-20.10
-17.35
-12.52
-6.17
0.84
7.61
13.48
18.12
21.45
23.45
24.10
23.35
21.24
18.03
14.25
10.51
7.36
5.18
4.06
3.87
4.31
5.06
5.83
6.41
6.68
6.63
6.26
5.55
4.44
2.84
0.70
-1.87
-4.61
-7.17
-9.21
-10.57
-11.38
-11.92
-12.52
-13.45
-14.83
-16.70
-19.01
-21.61
-24.25
-26.47
-27.68
-27.24
-24.70
-19.93
-13.29
-5.48
2.55
9.87
15.75
19.85
22.14
22.84
22.20
20.45
17.75
14.34
10.60
7.10
4.51
3.30
3.59
5.08
7.16
9.21
10.77
11.70
12.06
12.02
11.65
10.89
9.64
7.90
5.86
3.84
2.19
1.04
0.26
-0.51
-1.67
-3.49
-6.00
-9.08
-12.47
-15.88
-18.95
-21.19
-22.01
-20.91
-17.65
-12.47
-6.07
0.64
6.81
11.86
15.56
17.91
19.02
19.00
17.94
16.01
13.50
10.76
8.20
6.16
4.81
4.15
4.02
4.15
4.27
4.15
3.71
3.03
2.25
1.50
0.85
0.25
-0.46
-1.46
-2.87
-4.69
-6.82
-9.08
-11.38
-13.65
-15.95
-18.33
-20.76
-23.06
-24.93
-26.01
-26.00
-24.73
-22.15
-18.33
-13.42
-7.69
-1.47
4.84
10.76
15.88
19.87
22.49
23.63
23.37
21.93
19.69
17.04
14.37
11.86
9.59
7.57
5.82
4.47
3.70
3.61
4.12
4.96
5.75
6.10
5.76
4.64
2.84
0.55
-1.96
-4.44
-6.68
-8.58
-10.19
-11.65
-13.17
-14.93
-16.99
-19.30
-21.73
-24.04
-25.91
-26.95
-26.69
-24.73
-20.83
-15.12
-8.10
-0.53
6.71
12.90
17.58
20.56
21.84
21.55
19.85
17.02
13.50
9.82
6.55
4.12
2.69
2.16
2.29
2.82
3.58
4.43
5.21
5.73
5.72
5.03
3.67
1.87
-0.07
-1.88
-3.49
-4.96
-6.42
-7.94
-9.49
-11.04
-12.64
-14.39
-16.43
-18.77
-21.25
-23.41
-24.71
-24.57
-22.62
-18.78
-13.33
-6.84
-0.04
6.32
11.57
15.28
17.21
17.35
15.85
13.05
9.46
5.63
2.10
-0.73
-2.69
-3.84
-4.29
-4.20
-3.65
-2.73
-1.58
-0.51
0.16
0.15
-0.60
-1.95
-3.66
-5.46
-7.20
-8.81
-10.24
-11.41
-12.24
-12.74
-13.05
-13.50
-14.40
-15.91
-17.81
-19.50
-20.16
-18.99
-15.58
-10.04
-3.01
4.53
11.60
17.48
21.80
24.47
25.58
25.25
23.66
21.00
17.63
13.96
10.51
7.66
5.69
4.66
4.43
4.72
5.17
5.50
5.49
5.04
4.17
2.88
1.21
-0.82
-3.16
-5.67
-8.20
-10.58
-12.78
-14.90
-17.28
-20.33
-24.43
-29.65
-35.56
-41.19
-45.29
-46.74
-44.98
-40.25
-33.50
-26.01
-18.87
-12.73
-7.87
-4.43
-2.68
-3.11
-6.19
-12.07
-20.39
-30.32
-40.87
-51.12
-60.42
-68.39
-74.86
-79.85
-83.62
-86.68
-89.62
-92.80
-96.15
-99.12
-100.99
-101.27
-99.98
-97.56
-94.43
-90.52
-85.03
-76.61
-63.96
-46.37
-24.14
1.50
28.66
55.40
80.09
101.67
119.67
134.02
144.93
152.68
157.49
159.61
159.38
157.26
153.79
149.62
145.17
140.57
135.55
129.60
122.39
114.07
105.46
97.89
92.65
90.50
91.32
94.29
98.29
102.45
106.40
110.11
113.57
116.43
117.92
117.21
113.76
107.70
99.86
91.58
84.15
78.49
74.73
72.26
70.09
67.29
63.45
58.88
54.51
51.60
51.38
54.84
62.54
74.38
89.50
106.22
122.40
136.07
146.17
153.11
158.40
163.91
170.60
177.72
182.78
182.29
173.10
153.42
123.08
83.14
35.16
-18.98
-76.81
-134.58
-187.19
-229.03
-255.45
-264.47
-257.63
-239.41
-215.71
-191.94
-171.87
-157.47
-149.55
-148.49
-154.21
-165.82
-181.05
-196.39
-208.03
-213.20
-211.39
-204.69
-197.16
-193.19
-195.87
-205.73
-220.67
-236.91
-250.40
-258.10
-258.48
-251.15
-236.19
-213.44
-182.56
-143.67
-97.98
-48.21
1.76
47.76
85.95
113.21
127.10
125.87
108.54
75.55
29.39
-25.07
-80.96
-130.48
-166.44
-183.75
-180.48
-158.18
-121.33
-76.15
-29.06
14.80
52.48
83.24
108.01
128.45
146.07
161.91
176.48
189.93
202.28
213.41
223.08
230.89
236.27
238.68
237.70
233.11
224.79
212.72
196.87
177.30
154.25
128.31
100.44
71.93
44.18
18.45
-4.34
-23.84
-40.33
-54.53
-67.46
-80.02
-92.74
-105.63
-118.24
-129.75
-139.36
-146.48
-150.90
-152.78
-152.53
-150.63
-147.58
-143.77
-139.57
-135.25
-130.94
-126.56
-121.77
-115.99
-108.63
-99.25
-87.77
-74.52
-60.13
-45.32
-30.75
-16.90
-4.18
6.97
15.96
22.22
25.35
25.44
23.20
19.83
16.75
15.11
15.51
17.88
21.63
25.93
29.97
33.12
35.04
35.71
35.33
34.26
32.86
31.28
29.35
26.67
22.86
17.82
11.98
6.08
0.84
-3.45
-7.16
-11.08
-16.03
-22.27
-29.26
-35.79
-40.47
-42.31
-41.07
-37.29
-31.96
-26.07
-20.25
-14.74
-9.44
-4.26
0.77
5.40
9.24
12.04
13.76
14.71
15.34
16.10
17.18
18.43
19.39
19.58
18.81
17.30
15.69
14.78
15.16
16.94
19.63
22.35
24.17
24.51
23.34
21.13
18.68
16.85
16.26
17.11
19.04
21.09
21.83
19.74
13.75
3.75
-9.14
-22.74
-34.30
-41.38
-42.57
-37.92
-28.86
-17.58
-6.41
2.86
9.32
12.90
14.14
13.76
12.44
10.64
8.67
6.81
5.38
4.70
4.96
6.16
7.98
9.96
11.61
12.66
13.02
12.79
12.09
10.89
9.02
6.25
2.57
-1.71
-5.94
-9.26
-10.88
-10.40
-7.85
-3.77
0.99
5.48
8.88
10.73
10.90
9.63
7.39
4.68
1.98
-0.29
-1.77
-2.06
-0.80
2.19
6.82
12.58
18.73
24.44
29.08
32.45
34.68
36.07
36.82
36.90
36.09
34.19
31.28
27.80
24.48
22.01
20.82
20.85
21.57
22.21
22.05
20.71
18.23
15.10
11.97
9.49
8.01
7.46
7.43
7.35
6.62
4.90
2.15
-1.40
-5.37
-9.33
-12.93
-16.02
-18.60
-20.78
-22.72
-24.48
-26.00
-27.06
-27.35
-26.52
-24.29
-20.52
-15.25
-8.76
-1.50
5.86
12.59
18.02
21.76
23.69
24.00
23.07
21.34
19.27
17.22
15.55
14.52
14.24
14.63
15.45
16.41
17.27
17.95
18.42
18.70
18.72
18.32
17.32
15.66
13.47
10.99
8.52
6.22
4.11
2.04
-0.23
-2.86
-5.93
-9.35
-12.92
-16.35
-19.34
-21.52
-22.55
-22.13
-20.12
-16.62
-11.95
-6.66
-1.32
3.65
8.00
11.63
14.54
16.65
17.87
18.15
17.57
16.34
14.80
13.26
11.93
10.95
10.34
10.04
9.92
9.76
9.27
8.09
5.89
2.50
-2.04
-7.35
-12.75
-17.44
-20.63
-21.92
-21.36
-19.51
-17.24
-15.43
-14.68
-15.20
-16.78
-19.02
-21.48
-23.74
-25.43
-26.23
-25.84
-24.10
-21.06
-16.94
-12.11
-6.88
-1.48
3.92
9.13
13.86
17.67
20.10
20.86
19.96
17.75
14.83
11.85
9.31
7.48
6.36
5.77
5.50
5.31
5.14
5.02
5.09
5.48
6.17
6.92
7.33
7.01
5.76
3.66
1.06
-1.57
-3.84
-5.62
-7.02
-8.36
-9.94
-11.96
-14.46
-17.34
-20.40
-23.35
-25.81
-27.38
-27.72
-26.70
-24.48
-21.46
-18.10
-14.76
-11.56
-8.37
-4.99
-1.31
2.53
6.23
9.42
11.79
13.15
13.43
12.63
10.85
8.32
5.37
2.42
-0.12
-1.90
-2.77
-2.74
-2.00
-0.89
0.20
0.84
0.71
-0.32
-2.17
-4.58
-7.28
-10.07
-12.91
-15.76
-18.66
-21.57
-24.43
-27.22
-29.88
-32.27
-34.04
-34.69
-33.66
-30.58
-25.46
-18.76
-11.25
-3.76
3.06
8.85
13.44
16.78
18.79
19.38
18.55
16.49
13.59
10.38
7.36
4.82
2.81
1.22
-0.06
-0.96
-1.24
-0.50
1.53
4.86
9.12
13.63
17.57
20.23
21.23
20.54
18.53
15.78
12.83
10.09
7.67
5.48
3.30
0.87
-1.95
-5.16
-8.52
-11.60
-13.75
-14.32
-12.77
-8.87
-2.85
4.64
12.71
20.47
27.22
32.53
36.18
38.10
38.30
36.91
34.18
30.50
26.27
21.85
17.43
13.07
8.77
4.55
0.50
-3.19
-6.37
-8.94
-10.94
-12.53
-13.94
-15.40
-17.05
-18.92
-20.96
-23.00
-24.95
-26.75
-28.43
-30.14
-32.07
-34.37
-37.02
-39.79
-42.21
-43.65
-43.48
-41.15
-36.43
-29.46
-20.75
-11.13
-1.53
7.24
14.61
20.34
24.37
26.71
27.37
26.36
23.88
20.36
16.49
13.04
10.60
9.42
9.36
10.04
10.97
11.78
12.26
12.38
12.15
11.56
10.51
8.83
6.38
3.10
-0.84
-5.20
-9.59
-13.72
-17.40
-20.53
-23.10
-25.11
-26.58
-27.49
-27.78
-27.29
-25.74
-22.85
-18.39
-12.44
-5.41
1.97
8.93
14.82
19.36
22.54
24.60
25.77
26.22
26.02
25.21
23.88
22.13
20.05
17.69
15.07
12.27
9.47
7.03
5.27
4.41
4.38
4.89
5.54
6.00
6.12
5.90
5.42
4.64
3.39
1.31
-1.91
-6.46
-12.24
-18.89
-25.93
-32.88
-39.41
-45.39
-50.69
-55.08
-58.17
-59.47
-58.74
-56.26
-52.87
-49.68
-47.66
-47.22
-48.15
-49.87
-51.82
-53.70
-55.37
-56.60
-56.61
-54.09
-47.41
-35.20
-16.98
6.63
33.91
62.45
89.76
113.80
133.48
148.82
160.98
171.86
183.64
198.11
216.09
237.04
259.02
279.03
293.84
300.85
299.00
289.16
273.93
256.73
240.50
226.63
214.48
201.62
184.81
161.21
129.49
90.65
48.16
7.46
-25.44
-45.81
-52.08
-46.72
-35.87
-27.32
-27.90
-41.28
-67.07
-101.69
-140.09
-177.62
-210.99
-238.44
-259.35
-273.99
-283.76
-291.44
-301.12
-316.99
-341.23
-371.88
-402.35
-422.93
-424.15
-400.67
-353.47
-289.59
-219.36
-152.37
-94.27
-45.75
-3.94
34.99
73.53
111.89
148.44
180.72
206.31
223.30
230.65
228.89
220.47
209.49
200.73
197.71
201.23
209.04
216.81
220.22
216.63
205.66
188.30
165.72
138.31
105.77
67.98
25.25
-21.90
-73.28
-129.35
-190.20
-254.00
-316.05
-369.30
-406.76
-424.30
-422.44
-405.90
-381.25
-354.02
-326.92
-300.10
-272.90
-245.64
-220.02
-198.18
-180.89
-166.53
-151.42
-131.38
-103.27
-65.90
-20.37
29.71
78.47
118.43
142.22
145.34
128.81
100.06
71.07
54.14
57.27
81.44
121.05
167.20
211.45
248.44
276.07
294.18
303.18
303.50
296.27
284.04
270.60
259.84
254.28
253.66
255.02
253.69
244.93
225.63
195.36
156.59
114.08
73.53
39.86
15.81
1.32
-6.27
-10.96
-16.54
-25.26
-37.38
-51.85
-67.80
-85.61
-107.14
-134.37
-167.33
-202.38
-232.26
-248.12
-242.99
-214.97
-168.59
-113.43
-60.85
-20.11
4.08
11.99
7.49
-4.09
-17.88
-30.33
-39.35
-44.04
-44.39
-41.07
-35.37
-29.05
-23.89
-21.25
-21.65
-24.53
-28.40
-31.36
-31.74
-28.69
-22.40
-14.00
-5.00
3.31
10.21
15.68
20.17
24.21
28.12
31.95
35.45
38.21
39.76
39.70
37.87
34.48
30.25
26.23
23.55
23.02
24.76
28.19
32.19
35.70
37.96
38.81
38.50
37.39
35.69
33.37
30.27
26.26
21.49
16.39
11.55
7.58
4.87
3.57
3.52
4.43
5.83
7.29
8.38
8.81
8.37
7.04
4.96
2.39
-0.32
-2.84
-4.94
-6.52
-7.59
-8.26
-8.72
-9.20
-9.95
-11.22
-13.13
-15.55
-18.13
-20.25
-21.29
-20.77
-18.53
-14.79
-10.01
-4.79
0.40
5.16
9.25
12.47
14.63
15.56
15.25
13.85
11.75
9.50
7.64
6.51
6.16
6.33
6.69
6.92
6.90
6.68
6.34
5.92
5.41
4.73
3.83
2.68
1.26
-0.50
-2.63
-5.12
-7.85
-10.57
-12.96
-14.80
-16.03
-16.79
-17.32
-17.89
-18.62
-19.42
-20.02
-20.00
-18.90
-16.30
-11.95
-5.89
1.58
9.84
18.13
25.65
31.75
36.03
38.39
38.91
37.80
35.26
31.43
26.46
20.59
14.21
7.87
2.14
-2.52
-5.89
-8.03
-9.23
-9.80
-10.02
-9.99
-9.71
-9.27
-8.84
-8.69
-9.05
-9.90
-10.97
-11.87
-12.33
-12.41
-12.54
-13.26
-14.95
-17.61
-20.75
-23.59
-25.43
-25.79
-24.54
-21.83
-17.90
-13.07
-7.66
-2.05
3.32
7.97
11.59
14.04
15.40
15.99
16.14
16.10
15.95
15.67
15.14
14.28
13.08
11.62
10.03
8.52
7.28
6.47
6.15
6.27
6.59
6.77
6.46
5.41
3.54
0.95
-2.11
-5.35
-8.46
-11.21
-13.46
-15.29
-16.93
-18.79
-21.17
-24.10
-27.16
-29.55
-30.35
-28.85
-24.85
-18.70
-11.22
-3.35
4.09
10.56
15.87
20.08
23.37
25.93
27.83
29.00
29.29
28.54
26.81
24.37
21.62
18.99
16.73
14.89
13.35
11.98
10.75
9.67
8.77
7.95
6.93
5.37
2.94
-0.46
-4.64
-9.12
-13.29
-16.61
-18.84
-20.08
-20.73
-21.26
-22.09
-23.38
-25.09
-27.01
-28.83
-30.16
-30.58
-29.74
-27.35
-23.38
-18.09
-11.97
-5.67
0.19
5.15
9.02
11.82
13.77
15.08
15.92
16.27
16.11
15.46
14.50
13.53
12.87
12.66
12.82
13.06
13.09
12.73
12.04
11.18
10.35
9.61
8.93
8.12
6.99
5.38
3.26
0.74
-2.01
-4.76
-7.38
-9.79
-12.10
-14.43
-16.91
-19.55
-22.19
-24.47
-25.90
-25.99
-24.40
-21.04
-16.14
-10.23
-3.94
2.10
7.38
11.61
14.67
16.58
17.43
17.40
16.73
15.67
14.51
13.43
12.52
11.76
11.08
10.44
9.80
9.15
8.44
7.68
6.86
6.02
5.22
4.47
3.70
2.82
1.70
0.30
-1.29
-2.98
-4.69
-6.47
-8.44
-10.68
-13.16
-15.72
-18.15
-20.18
-21.64
-22.35
-22.16
-20.93
-18.63
-15.30
-11.13
-6.45
-1.61
3.06
7.28
10.82
13.52
15.27
16.06
15.97
15.13
13.72
11.98
10.16
8.50
7.21
6.38
5.98
5.86
5.78
5.54
5.01
4.15
3.07
1.90
0.72
-0.43
-1.54
-2.68
-3.84
-5.02
-6.22
-7.51
-8.98
-10.78
-12.96
-15.47
-18.10
-20.48
-22.26
-23.13
-22.90
-21.53
-19.07
-15.60
-11.28
-6.40
-1.36
3.29
7.03
9.57
10.84
11.07
10.63
9.86
9.00
8.13
7.33
6.69
6.33
6.33
6.63
7.02
7.22
7.01
6.31
5.27
4.10
2.94
1.79
0.55
-0.85
-2.38
-3.86
-5.15
-6.24
-7.33
-8.69
-10.53
-12.82
-15.34
-17.83
-20.10
-22.13
-23.89
-25.19
-25.62
-24.71
-22.14
-18.02
-12.84
-7.29
-1.99
2.71
6.72
10.05
12.61
14.23
14.71
14.10
12.71
11.09
9.79
9.07
8.88
8.92
8.89
8.65
8.28
7.93
7.64
7.32
6.73
5.63
3.99
1.92
-0.38
-2.70
-4.95
-7.11
-9.22
-11.28
-13.29
-15.21
-17.09
-18.99
-20.91
-22.75
-24.23
-24.95
-24.54
-22.74
-19.57
-15.27
-10.20
-4.81
0.48
5.29
9.25
12.07
13.60
13.91
13.31
12.20
11.00
9.92
9.03
8.24
7.49
6.82
6.33
6.17
6.32
6.66
6.90
6.76
6.06
4.75
2.92
0.68
-1.84
-4.53
-7.30
-9.98
-12.43
-14.56
-16.36
-18.01
-19.78
-21.90
-24.44
-27.14
-29.43
-30.61
-30.03
-27.40
-22.86
-16.98
-10.53
-4.25
1.29
5.75
9.00
11.02
11.88
11.70
10.72
9.27
7.70
6.28
5.24
4.70
4.75
5.45
6.79
8.62
10.64
12.43
13.54
13.68
12.71
10.74
8.06
5.06
2.06
-0.72
-3.21
-5.54
-7.89
-10.55
-13.77
-17.60
-21.94
-26.34
-30.16
-32.61
-32.98
-30.88
-26.36
-19.93
-12.39
-4.63
2.61
8.83
13.75
17.31
19.47
20.31
19.97
18.69
16.86
14.90
13.17
11.87
11.04
10.59
10.36
10.16
9.88
9.45
8.87
8.18
7.37
6.39
5.13
3.49
1.47
-0.82
-3.20
-5.51
-7.70
-9.85
-12.08
-14.52
-17.24
-20.19
-23.17
-25.86
-27.77
-28.37
-27.11
-23.71
-18.24
-11.24
-3.50
4.08
10.75
16.07
19.93
22.42
23.73
24.04
23.48
22.21
20.45
18.50
16.68
15.24
14.26
13.62
13.11
12.54
11.81
10.99
10.14
9.28
8.31
7.08
5.48
3.51
1.28
-1.03
-3.28
-5.45
-7.64
-10.03
-12.79
-16.01
-19.66
-23.50
-27.13
-30.07
-31.86
-32.20
-31.01
-28.44
-24.76
-20.33
-15.47
-10.57
-6.03
-2.23
0.50
2.10
2.72
2.75
2.68
2.96
3.80
5.21
6.95
8.69
10.10
10.98
11.30
11.25
11.10
11.16
11.64
12.54
13.62
14.53
14.86
14.37
12.99
10.89
8.39
5.81
3.39
1.19
-0.83
-2.80
-4.76
-6.60
-8.06
-8.74
-8.21
-6.08
-2.12
3.63
10.86
19.03
27.53
35.80
43.44
50.20
55.91
60.44
63.67
65.61
66.39
66.32
65.75
64.93
63.91
62.59
60.75
58.28
55.24
51.88
48.56
45.53
42.83
40.21
37.14
33.15
27.93
21.60
14.66
7.85
1.82
-3.08
-7.00
-10.41
-13.91
-17.96
-22.65
-27.70
-32.46
-36.09
-37.76
-36.82
-32.92
-26.10
-16.90
-6.33
4.26
13.43
20.04
23.56
24.15
22.54
19.67
16.32
12.90
9.56
6.28
3.16
0.48
-1.32
-1.85
-0.87
1.73
5.94
11.70
18.78
26.67
34.48
41.14
45.83
48.59
50.65
54.29
62.06
75.59
94.65
117.04
139.19
157.30
168.59
171.88
167.71
157.91
144.89
130.79
116.68
102.30
86.19
66.34
41.10
10.07
-25.41
-62.42
-97.26
-126.56
-148.30
-162.55
-171.28
-177.73
-184.97
-194.37
-204.69
-212.21
-212.32
-201.78
-180.64
-152.77
-124.66
-103.07
-92.58
-94.34
-105.90
-122.35
-137.92
-147.49
-147.63
-137.16
-117.40
-91.91
-65.76
-44.13
-30.83
-27.20
-31.78
-41.06
-50.86
-57.77
-59.94
-57.09
-49.90
-39.53
-27.58
-16.32
-8.69
-7.45
-13.59
-25.18
-37.37
-44.24
-41.61
-29.15
-10.70
7.84
21.56
28.84
31.61
33.49
37.34
43.59
50.49
55.59
57.42
56.22
53.44
50.64
48.57
47.00
45.18
42.51
38.98
35.07
31.31
28.01
25.14
22.54
20.23
18.48
17.78
18.54
20.85
24.45
28.81
33.34
37.56
41.09
43.64
44.92
44.70
42.93
39.91
36.15
32.33
28.93
26.07
23.41
20.47
16.88
12.75
8.66
5.39
3.54
3.15
3.59
3.83
2.98
0.67
-2.75
-6.42
-9.45
-11.29
-12.01
-12.16
-12.48
-13.56
-15.65
-18.60
-22.05
-25.53
-28.64
-31.04
-32.42
-32.61
-31.70
-30.24
-29.11
-29.21
-30.99
-34.01
-36.96
-38.14
-36.17
-30.61
-22.19
-12.48
-3.22
4.21
9.03
11.02
10.29
7.35
3.15
-0.80
-2.73
-1.25
3.97
11.88
20.12
25.73
25.89
18.74
3.94
-17.10
-41.31
-64.54
-82.42
-91.46
-90.00
-78.61
-59.88
-37.46
-14.93
5.03
21.12
33.21
41.93
48.16
52.71
56.12
58.60
59.98
59.74
57.11
51.43
42.46
30.88
18.41
7.51
0.73
-0.29
4.64
14.05
25.32
35.60
42.64
45.30
43.56
38.24
30.61
21.97
13.55
6.29
0.78
-2.83
-4.91
-6.26
-7.85
-10.47
-14.47
-19.55
-24.88
-29.36
-31.96
-32.08
-29.62
-24.97
-18.87
-12.23
-6.00
-1.09
1.87
2.60
1.32
-1.30
-4.50
-7.77
-11.01
-14.49
-18.43
-22.68
-26.62
-29.44
-30.62
-30.34
-29.50
-29.20
-30.12
-32.11
-34.22
-35.18
-34.03
-30.46
-24.92
-18.39
-12.07
-7.11
-4.42
-4.52
-7.43
-12.60
-18.93
-25.03
-29.57
-31.54
-30.46
-26.35
-19.60
-10.87
-0.97
9.17
18.58
26.37
31.88
34.81
35.34
34.04
31.62
28.73
25.77
22.87
20.07
17.44
15.07
13.03
11.27
9.84
9.18
10.33
14.68
23.33
36.13
51.21
65.24
74.51
76.42
70.40
58.03
42.13
25.63
10.56
-2.15
-12.35
-20.09
-25.30
-27.78
-27.47
-24.64
-19.89
-14.07
-7.91
-2.00
3.34
7.90
11.47
13.86
14.89
14.64
13.42
11.88
10.73
10.50
11.32
12.88
14.60
16.00
16.91
17.49
18.09
18.94
19.92
20.72
20.94
20.47
19.48
18.34
17.28
16.23
14.82
12.58
9.30
5.09
0.42
-4.24
-8.56
-12.51
-16.24
-19.85
-23.22
-25.99
-27.64
-27.78
-26.32
-23.55
-19.98
-16.19
-12.66
-9.74
-7.80
-7.32
-8.87
-12.74
-18.36
-23.93
-26.53
-23.07
-11.67
7.08
29.88
51.72
67.80
75.34
74.47
67.74
58.59
49.79
42.58
36.87
32.08
27.97
24.91
23.44
23.63
24.65
24.94
22.79
17.14
8.02
-3.42
-15.38
-25.98
-33.76
-37.97
-38.55
-36.00
-31.18
-25.04
-18.59
-12.67
-7.93
-4.69
-2.85
-1.96
-1.37
-0.41
1.38
4.07
7.31
10.42
12.67
13.53
12.87
10.98
8.47
6.10
4.53
4.08
4.67
5.79
6.63
6.47
4.97
2.29
-1.04
-4.36
-7.27
-9.74
-12.04
-14.56
-17.49
-20.83
-24.38
-27.83
-30.86
-33.03
-33.77
-32.54
-28.98
-23.14
-15.57
-7.22
0.89
7.84
13.11
16.55
18.34
18.78
18.23
16.90
14.94
12.44
9.56
6.55
3.82
1.80
0.78
0.87
1.85
3.32
4.76
5.73
5.90
5.08
3.17
0.12
-3.94
-8.69
-13.51
-17.63
-20.38
-21.42
-20.91
-19.42
-17.72
-16.49
-16.06
-16.38
-17.04
-17.51
-17.27
-16.07
-13.88
-10.94
-7.52
-3.86
-0.10
3.62
7.15
10.20
12.43
13.60
13.69
12.84
11.31
9.29
6.90
4.19
1.30
-1.54
-4.10
-6.24
-8.08
-9.93
-12.11
-14.85
-18.13
-21.73
-25.36
-28.67
-31.32
-32.87
-32.65
-29.82
-23.54
-13.42
0.20
16.14
32.60
47.70
59.99
68.76
73.98
75.98
75.10
71.66
66.14
59.45
53.06
48.65
47.57
50.31
56.17
63.53
70.40
75.27
77.55
77.76
77.13
77.09
78.65
82.09
86.92
92.07
96.23
98.05
96.34
90.06
78.56
61.88
41.02
17.94
-4.89
-25.27
-41.97
-54.98
-65.17
-73.72
-81.34
-88.10
-93.52
-97.02
-98.42
-97.98
-96.24
-93.68
-90.41
-86.26
-80.89
-74.01
-65.53
-55.67
-44.81
-33.42
-21.99
-10.88
-0.56
8.42
15.39
19.75
21.27
20.30
17.88
15.39
14.05
14.25
15.28
15.46
12.75
5.53
-6.62
-22.68
-40.53
-57.65
-71.96
-82.36
-88.84
-92.01
-92.53
-90.69
-86.43
-79.80
-71.37
-62.46
-54.79
-49.80
-47.95
-48.48
-49.75
-50.05
-48.37
-44.70
-39.79
-34.56
-29.53
-24.64
-19.49
-13.73
-7.41
-0.93
5.05
9.85
13.01
14.25
13.58
11.36
8.35
5.61
4.19
4.68
6.98
10.40
14.10
17.54
20.68
23.71
26.68
29.15
30.19
28.87
24.82
18.54
11.30
4.69
-0.08
-2.54
-3.02
-2.46
-1.88
-2.06
-3.35
-5.67
-8.71
-12.07
-15.30
-17.94
-19.49
-19.52
-17.81
-14.57
-10.37
-5.94
-1.78
2.00
5.72
9.76
14.27
18.95
23.16
26.23
27.79
27.90
26.97
25.48
23.81
22.10
20.42
18.86
17.62
16.90
16.77
16.99
17.03
16.23
14.01
10.14
4.90
-1.06
-6.83
-11.60
-14.86
-16.57
-17.09
-17.07
-17.22
-18.13
-20.11
-23.12
-26.76
-30.32
-32.89
-33.54
-31.63
-26.98
-20.02
-11.65
-3.02
4.85
11.36
16.38
20.16
23.02
25.11
26.30
26.34
25.07
22.64
19.54
16.48
14.06
12.61
12.06
12.16
12.58
13.15
13.80
14.49
15.03
15.10
14.34
12.50
9.61
5.94
1.95
-1.92
-5.26
-7.83
-9.56
-10.55
-11.11
-11.73
-12.98
-15.34
-18.91
-23.29
-27.65
-30.87
-32.01
-30.54
-26.53
-20.55
-13.41
-5.97
1.11
7.43
12.83
17.38
21.36
25.06
28.71
32.28
35.44
37.66
38.43
37.52
35.12
31.82
28.35
25.37
23.24
21.98
21.36
21.06
20.71
20.00
18.69
16.62
13.80
10.36
6.58
2.78
-0.77
-3.93
-6.72
-9.29
-11.88
-14.72
-17.98
-21.70
-25.84
-30.25
-34.64
-38.55
-41.30
-42.15
-40.50
-36.15
-29.47
-21.37
-12.93
-5.10
1.63
7.21
11.84
15.65
18.56
20.30
20.73
19.98
18.50
16.86
15.58
14.94
14.99
15.79
17.32
19.53
22.23
25.03
27.42
29.06
29.91
30.26
30.47
30.68
30.61
29.67
27.23
23.02
17.33
10.84
4.27
-1.92
-7.84
-14.01
-21.12
-29.55
-39.22
-49.39
-58.88
-66.33
-70.49
-70.52
-66.12
-57.56
-45.61
-31.43
-16.48
-2.31
9.65
18.35
23.50
25.59
25.67
24.91
24.01
22.98
21.31
18.50
14.61
10.39
6.97
5.34
5.78
7.86
10.71
13.53
15.90
17.81
19.34
20.45
20.92
20.44
18.91
16.49
13.60
10.68
8.08
5.93
4.13
2.46
0.64
-1.55
-4.14
-6.99
-9.92
-12.77
-15.57
-18.39
-21.21
-23.69
-25.15
-24.75
-21.80
-16.13
-8.18
1.10
10.53
19.03
25.75
30.11
31.94
31.43
29.29
26.68
24.99
25.37
28.22
32.84
37.55
40.14
38.64
32.05
20.75
6.39
-8.68
-22.21
-32.64
-39.39
-42.69
-43.22
-41.74
-38.92
-35.36
-31.68
-28.55
-26.56
-26.02
-26.89
-28.73
-30.91
-32.81
-34.09
-34.80
-35.31
-36.18
-37.74
-39.91
-42.02
-43.00
-41.81
-37.85
-31.26
-22.70
-13.02
-2.89
7.30
17.28
26.65
34.70
40.62
43.77
44.11
42.14
38.84
35.31
32.50
30.97
30.89
32.07
33.98
35.98
37.41
37.87
37.26
35.76
33.68
31.25
28.52
25.42
21.88
17.88
13.56
9.15
4.96
1.30
-1.62
-3.81
-5.62
-7.73
-10.97
-15.93
-22.64
-30.39
-37.98
-44.07
-47.71
-48.53
-46.70
-42.65
-36.84
-29.74
-21.96
-14.36
-7.92
-3.42
-1.05
-0.34
-0.36
-0.20
0.69
2.40
4.76
7.62
10.98
14.90
19.23
23.56
27.32
30.10
31.86
32.96
33.78
34.43
34.49
33.23
29.82
23.73
14.94
3.98
-8.16
-20.24
-30.95
-39.26
-44.72
-47.50
-48.29
-47.86
-46.74
-44.88
-41.84
-37.10
-30.44
-22.04
-12.13
-0.79
12.17
26.73
42.19
56.90
68.61
75.24
75.63
69.91
59.28
45.54
30.59
16.15
3.74
-5.44
-10.62
-11.83
-9.93
-6.41
-3.02
-1.28
-2.15
-5.60
-10.41
-14.24
-14.34
-8.69
2.77
17.72
32.09
41.74
44.23
39.70
30.51
19.67
9.40
0.49
-7.30
-14.19
-19.71
-22.85
-22.86
-20.10
-16.10
-13.01
-12.60
-15.54
-21.22
-28.33
-35.74
-42.91
-49.75
-56.11
-61.33
-64.23
-63.64
-59.04
-51.04
-41.19
-31.36
-23.12
-17.37
-14.32
-13.77
-15.29
-18.16
-21.25
-23.12
-22.36
-18.20
-10.84
-1.42
8.60
18.18
26.88
34.68
41.48
46.69
49.34
48.75
45.12
39.72
34.48
31.29
31.28
34.59
40.40
47.44
54.43
60.31
64.40
66.25
65.53
61.92
55.13
44.97
31.62
15.79
-1.34
-18.35
-34.03
-47.60
-58.66
-66.97
-72.20
-73.78
-71.13
-63.92
-52.28
-37.02
-19.68
-2.47
12.03
21.40
24.40
21.60
15.49
9.62
6.95
8.47
12.73
16.75
17.68
14.34
7.65
-0.15
-6.94
-11.82
-15.31
-18.64
-22.69
-27.42
-32.03
-35.64
-37.84
-38.92
-39.49
-40.01
-40.43
-40.20
-38.61
-35.24
-30.21
-24.36
-18.88
-15.02
-13.55
-14.39
-16.63
-18.76
-19.22
-16.98
-11.92
-4.81
2.98
10.10
15.67
19.52
22.04
23.86
25.38
26.62
27.19
26.59
24.57
21.25
17.16
12.99
9.29
6.30
3.97
2.08
0.52
-0.67
-1.22
-0.95
0.18
1.88
3.65
4.92
5.17
4.14
1.73
-1.92
-6.58
-11.94
-17.68
-23.50
-29.18
-34.66
-39.96
-45.23
-50.63
-56.15
-61.60
-66.46
-69.85
-70.68
-68.00
-61.32
-50.83
-37.49
-22.73
-7.99
5.68
17.76
28.21
37.16
44.63
50.32
53.70
54.25
51.83
46.87
40.44
33.87
28.41
24.72
22.74
21.78
20.90
19.45
17.33
15.05
13.35
12.72
13.12
14.04
14.81
15.02
14.62
13.68
12.13
9.53
5.33
-0.65
-7.71
-14.40
-19.08
-20.71
-19.24
-15.38
-9.87
-2.92
5.98
17.51
31.85
48.30
65.52
81.99
96.61
108.83
118.47
125.44
129.59
130.80
129.11
124.82
118.28
109.78
99.58
88.05
75.95
64.38
54.65
47.69
43.71
41.99
41.09
39.47
35.93
29.97
21.77
11.84
0.76
-10.98
-22.90
-34.44
-45.07
-54.50
-62.96
-71.26
-80.33
-90.69
-101.88
-112.40
-120.17
-123.23
-120.44
-111.83
-98.50
-82.22
-65.02
-48.69
-34.56
-23.38
-15.40
-10.54
-8.54
-9.05
-11.61
-15.47
-19.62
-22.87
-24.28
-23.42
-20.61
-16.70
-12.62
-8.97
-5.84
-3.00
-0.28
2.04
3.20
2.25
-1.41
-7.73
-15.87
-24.59
-32.75
-39.80
-45.79
-51.30
-57.00
-63.36
-70.35
-77.41
-83.50
-87.37
-87.90
-84.53
-77.52
-67.98
-57.58
-47.99
-40.33
-34.96
-31.61
-29.86
-29.56
-31.02
-34.87
-41.44
-50.42
-60.63
-70.41
-78.24
-83.44
-86.35
-88.13
-90.07
-92.88
-96.29
-99.09
-99.43
-95.20
-84.42
-65.51
-37.64
-1.28
41.37
86.51
129.50
166.20
194.27
213.72
226.39
234.69
240.17
242.93
242.03
236.55
226.70
214.07
201.05
189.74
181.01
174.18
167.50
158.90
146.83
130.64
110.60
87.57
62.67
36.99
11.54
-12.69
-34.71
-53.59
-68.65
-79.69
-87.14
-91.96
-95.42
-98.68
-102.52
-107.19
-112.55
-118.20
-123.68
-128.49
-132.13
-134.20
-134.52
-133.30
-131.15
-128.91
-127.34
-126.78
-127.10
-127.75
-128.07
-127.47
-125.53
-121.93
-116.32
-108.38
-98.03
-85.81
-72.76
-59.86
-47.06
-32.48
-12.47
17.15
59.24
113.75
177.20
243.64
306.48
360.33
402.00
430.37
445.48
447.68
437.41
415.56
384.12
346.52
307.09
269.90
237.53
210.38
187.24
166.49
147.51
131.19
119.23
112.71
110.76
110.51
108.17
100.86
87.81
70.39
50.91
31.16
11.56
-8.52
-29.73
-51.73
-72.94
-91.18
-104.89
-114.05
-120.38
-126.74
-135.77
-148.78
-165.30
-183.41
-200.59
-214.67
-224.37
-229.21
-229.18
-224.32
-214.70
-200.63
-183.05
-163.55
-144.19
-126.85
-112.68
-101.88
-93.82
-87.57
-82.43
-78.19
-75.05
-73.28
-72.86
-73.33
-74.01
-74.36
-74.25
-73.92
-73.71
-73.69
-73.47
-72.29
-69.46
-64.70
-58.25
-50.78
-43.07
-35.74
-29.16
-23.52
-18.99
-15.75
-13.97
-13.62
-14.45
-16.00
-17.76
-19.36
-20.67
-21.79
-22.85
-23.86
-24.67
-25.01
-24.77
-24.06
-23.24
-22.68
-22.54
-22.66
-22.63
-22.11
-21.05
-19.74
-18.70
-18.45
-19.31
-21.30
-24.24
-27.76
-31.33
-34.24
-35.71
-35.02
-31.75
-25.97
-18.23
-9.43
-0.55
7.62
14.66
20.47
25.18
28.93
31.67
33.16
33.13
31.48
28.47
24.86
21.52
19.23
18.24
18.19
18.35
17.91
16.34
13.47
9.48
5.00
0.99
-1.31
-0.64
3.74
11.57
21.43
30.97
37.72
39.85
36.75
29.04
18.14
5.70
-6.76
-17.95
-26.76
-32.16
-33.41
-30.23
-23.13
-13.22
-1.98
9.10
18.89
26.69
32.25
35.60
36.95
36.60
35.00
32.66
30.15
27.96
26.34
25.31
24.70
24.29
23.91
23.51
23.08
22.59
21.94
21.00
19.64
17.77
15.41
12.59
9.38
5.88
2.25
-1.27
-4.45
-7.18
-9.59
-11.98
-14.80
-18.33
-22.53
-26.92
-30.67
-32.82
-32.58
-29.55
-23.81
-15.89
-6.59
3.18
12.58
20.91
27.67
32.51
35.31
36.15
35.36
33.45
30.97
28.42
26.10
24.15
22.54
21.20
20.05
19.00
18.04
17.20
16.53
16.10
15.90
15.72
15.21
13.94
11.53
7.86
3.16
-2.11
-7.34
-12.08
-16.10
-19.45
-22.37
-25.18
-28.18
-31.54
-35.20
-38.83
-41.84
-43.48
-43.03
-40.07
-34.61
-27.13
-18.41
-9.31
-0.52
7.49
14.39
19.95
23.90
26.06
26.46
25.42
23.55
21.48
19.67
18.19
16.92
15.68
14.41
13.18
11.98
10.63
8.84
6.36
3.18
-0.49
-4.35
-8.29
-12.57
-17.66
-23.86
-31.06
-38.65
-45.82
-52.07
-57.43
-62.48
-68.02
-74.62
-82.32
-90.60
-98.69
-105.81
-111.46
-115.53
-118.09
-119.30
-119.26
-117.90
-115.07
-110.50
-103.94
-95.23
-84.38
-71.65
-57.54
-42.64
-27.46
-12.11
3.68
20.34
38.18
57.00
76.03
94.10
110.00
122.92
132.70
139.79
144.97
148.85
151.56
152.65
151.32
146.93
139.44
129.45
117.97
105.89
93.64
81.11
68.06
54.59
41.38
29.57
20.30
14.32
11.87
12.96
17.69
26.23
38.51
53.69
69.98
84.90
96.20
102.68
104.62
103.49
101.09
98.70
96.54
93.91
89.88
83.91
76.22
67.75
59.73
53.17
48.48
45.32
42.80
39.74
35.00
27.75
17.55
4.32
-11.78
-30.42
-51.14
-73.37
-96.43
-119.69
-142.80
-165.46
-186.99
-205.74
-218.83
-222.76
-214.60
-193.42
-160.99
-121.37
-79.70
-40.58
-7.06
19.51
39.05
52.11
59.58
62.86
63.93
65.26
69.15
76.84
88.03
100.85
112.54
120.43
122.67
118.84
109.85
97.43
83.62
70.16
58.31
48.93
42.59
39.66
40.17
43.61
48.88
54.40
58.51
59.94
58.15
53.40
46.53
38.54
30.19
21.79
13.19
4.06
-5.87
-16.67
-28.14
-39.94
-51.73
-63.15
-73.80
-83.08
-90.22
-94.34
-94.73
-91.15
-83.90
-73.88
-62.46
-51.21
-41.65
-34.91
-31.45
-30.86
-31.98
-33.24
-33.36
-31.89
-29.38
-27.03
-25.96
-26.61
-28.45
-30.28
-30.88
-29.60
-26.73
-23.28
-20.58
-19.60
-20.74
-23.65
-27.57
-31.70
-35.47
-38.65
-41.23
-43.25
-44.69
-45.55
-45.93
-46.21
-46.97
-48.73
-51.71
-55.64
-59.76
-63.06
-64.62
-63.88
-60.64
-55.06
-47.47
-38.34
-28.17
-17.61
-7.40
1.71
9.07
14.23
17.03
17.61
16.41
14.19
11.92
10.54
10.68
12.43
15.28
18.42
21.06
22.78
23.62
23.80
23.51
22.78
21.61
20.13
18.75
18.00
18.18
19.07
19.84
19.26
16.14
9.75
0.10
-11.97
-24.97
-37.17
-47.09
-53.85
-57.39
-58.23
-57.02
-54.24
-49.89
-43.75
-35.55
-25.36
-13.67
-1.36
10.40
20.42
27.67
31.61
32.43
31.04
28.87
27.18
26.45
26.10
24.78
21.12
14.64
6.25
-1.84
-6.76
-5.90
2.07
16.70
35.68
55.33
71.49
80.64
80.79
72.06
56.71
38.45
21.18
7.54
-2.20
-10.21
-20.02
-34.66
-54.84
-78.21
-100.10
-115.53
-121.39
-117.64
-106.90
-92.90
-78.64
-65.42
-52.89
-39.99
-25.90
-10.45
5.90
22.44
38.47
53.23
65.92
75.59
81.47
83.11
80.71
75.24
68.29
61.90
58.13
58.49
63.40
71.81
81.32
88.82
91.47
87.78
78.17
64.72
50.41
38.02
29.18
23.97
21.08
18.37
13.58
5.00
-8.05
-25.03
-44.28
-63.34
-79.57
-90.73
-95.55
-93.99
-87.16
-76.94
-65.46
-54.54
-45.28
-38.00
-32.37
-27.82
-23.86
-20.37
-17.54
-15.62
-14.60
-14.14
-13.63
-12.48
-10.46
-7.76
-4.80
-1.97
0.59
3.06
5.77
8.91
12.40
15.82
18.46
19.52
18.34
14.60
8.54
0.96
-6.93
-13.87
-19.04
-22.30
-24.31
-26.15
-28.85
-32.89
-37.85
-42.49
-44.98
-43.47
-36.69
-24.46
-7.98
10.29
27.24
40.03
47.05
48.31
45.24
39.95
34.25
28.96
23.89
18.34
11.76
4.22
-3.53
-10.54
-16.05
-19.88
-22.28
-23.66
-24.27
-24.09
-23.01
-21.15
-19.18
-18.29
-19.78
-24.48
-32.18
-41.47
-50.25
-56.55
-59.43
-59.42
-58.18
-57.78
-59.80
-64.63
-71.33
-77.90
-81.85
-80.74
-72.54
-56.12
-31.73
-1.40
31.06
60.67
82.67
94.07
94.67
87.06
75.41
63.80
54.80
49.07
46.07
45.17
46.61
51.48
60.92
75.01
92.14
109.41
123.69
132.82
136.44
135.99
133.89
132.48
133.12
135.86
139.69
143.11
144.79
143.96
140.54
135.02
128.05
120.28
112.02
103.21
93.64
83.11
71.67
59.66
47.44
35.13
22.49
9.13
-5.09
-19.62
-33.19
-44.28
-51.79
-55.66
-56.95
-57.42
-58.73
-61.81
-66.59
-72.19
-77.48
-81.50
-83.79
-84.36
-83.50
-81.51
-78.58
-74.73
-69.97
-64.40
-58.21
-51.83
-45.72
-40.36
-36.13
-33.23
-31.72
-31.54
-32.59
-34.74
-37.85
-41.68
-45.85
-49.83
-53.10
-55.33
-56.46
-56.74
-56.53
-56.00
-55.06
-53.28
-50.18
-45.39
-38.89
-30.94
-22.00
-12.62
-3.31
5.42
13.00
18.90
22.69
24.21
23.62
21.39
18.20
14.83
12.00
10.18
9.57
10.00
11.05
12.23
13.12
13.52
13.46
13.06
12.43
11.59
10.43
8.83
6.78
4.41
1.98
-0.26
-2.16
-3.73
-5.08
-6.39
-7.79
-9.45
-11.47
-13.83
-16.33
-18.59
-20.08
-20.31
-19.03
-16.20
-12.05
-6.99
-1.45
4.12
9.26
13.57
16.74
18.66
19.41
19.25
18.49
17.39
16.17
15.00
14.03
13.32
12.80
12.22
11.37
10.13
8.62
7.07
5.74
4.69
3.87
3.14
2.36
1.47
0.38
-1.00
-2.80
-5.07
-7.68
-10.34
-12.80
-14.97
-17.06
-19.34
-21.98
-24.73
-27.03
-28.14
-27.55
-25.12
-21.12
-16.07
-10.51
-4.88
0.50
5.34
9.39
12.45
14.43
15.40
15.53
15.07
14.26
13.36
12.57
12.09
11.94
12.02
12.09
11.90
11.38
10.64
9.91
9.46
9.35
9.38
9.14
8.19
6.25
3.32
-0.28
-4.03
-7.40
-10.08
-12.04
-13.55
-15.07
-16.98
-19.52
-22.59
-25.82
-28.71
-30.68
-31.26
-30.09
-27.03
-22.22
-16.08
-9.28
-2.58
3.38
8.20
11.84
14.50
16.48
17.97
18.99
19.38
18.97
17.66
15.66
13.34
11.21
9.69
8.99
9.05
9.60
10.29
10.76
10.82
10.37
9.46
8.12
6.39
4.27
1.75
-1.10
-4.16
-7.16
-9.87
-12.11
-13.90
-15.53
-17.41
-20.00
-23.55
-27.93
-32.53
-36.44
-38.68
-38.48
-35.58
-30.24
-23.18
-15.27
-7.37
-0.06
6.31
11.62
15.88
19.13
21.35
22.55
22.75
22.08
20.80
19.25
17.73
16.45
15.44
14.66
14.04
13.58
13.38
13.49
13.85
14.21
14.20
13.47
11.86
9.42
6.39
3.04
-0.41
-3.90
-7.44
-11.09
-14.81
-18.44
-21.80
-24.76
-27.44
-30.11
-33.06
-36.36
-39.64
-42.12
-42.82
-40.93
-36.13
-28.79
-19.80
-10.30
-1.32
6.46
12.74
17.48
20.70
22.47
22.89
22.16
20.59
18.56
16.38
14.26
12.22
10.26
8.36
6.57
4.99
3.69
2.64
1.76
0.91
-0.08
-1.36
-3.11
-5.51
-8.77
-12.98
-18.09
-23.82
-29.67
-35.11
-39.78
-43.64
-47.13
-50.97
-55.98
-62.56
-70.45
-78.53
-85.11
-88.41
-87.13
-80.83
-70.01
-55.94
-40.32
-24.81
-10.59
1.99
13.51
25.33
39.01
55.54
74.66
94.85
113.78
129.35
140.56
147.79
152.40
155.84
158.95
161.70
163.44
163.35
160.70
154.87
145.31
131.55
113.46
91.55
67.03
41.53
16.64
-6.49
-27.26
-45.52
-61.24
-74.37
-84.78
-92.50
-97.71
-100.75
-101.90
-101.20
-98.40
-92.99
-84.56
-72.96
-58.66
-42.82
-27.16
-13.48
-3.11
3.64
7.53
10.07
12.76
16.46
21.04
25.60
29.01
30.53
30.27
29.03
27.91
27.70
28.54
29.83
30.50
29.52
26.37
21.25
15.10
9.27
5.03
2.99
2.75
2.93
1.57
-3.06
-11.64
-23.22
-35.31
-44.59
-48.08
-44.27
-33.77
-19.28
-4.79
5.83
10.20
8.43
3.13
-1.63
-1.98
4.15
16.29
31.80
47.10
59.06
65.64
65.95
59.85
47.95
31.95
15.02
1.04
-7.13
-9.83
-11.21
-17.78
-34.73
-62.48
-95.57
-124.60
-140.74
-139.88
-124.35
-101.18
-78.32
-60.87
-49.78
-42.96
-37.78
-33.18
-29.96
-29.68
-32.98
-38.83
-44.85
-48.65
-49.10
-46.94
-44.14
-42.54
-42.32
-41.52
-36.54
-23.72
-1.10
30.48
67.42
104.36
135.89
158.01
169.01
169.39
161.21
147.28
130.40
112.97
96.92
83.77
74.63
70.29
71.10
76.84
86.64
99.04
112.38
125.09
136.24
145.38
152.35
156.68
157.30
152.95
142.72
126.61
105.42
80.24
51.78
20.28
-14.17
-50.84
-87.86
-122.38
-151.40
-172.80
-185.90
-191.31
-190.18
-183.59
-172.26
-156.86
-138.33
-118.05
-97.60
-78.33
-61.17
-46.44
-34.16
-24.19
-16.43
-10.81
-7.07
-4.53
-2.14
1.19
6.19
12.82
20.31
27.42
33.06
36.85
39.24
41.31
44.11
48.25
53.60
59.57
65.40
70.60
74.98
78.50
81.06
82.41
82.23
80.41
77.09
72.60
67.16
60.66
52.65
42.71
30.79
17.54
4.24
-7.52
-16.41
-21.73
-23.62
-22.83
-20.46
-17.53
-14.75
-12.44
-10.64
-9.22
-8.06
-7.05
-6.17
-5.40
-4.77
-4.33
-4.11
-4.09
-4.30
-4.68
-5.20
-5.90
-6.90
-8.40
-10.60
-13.61
-17.36
-21.58
-25.79
-29.52
-32.43
-34.49
-36.03
-37.64
-39.89
-43.05
-46.99
-51.23
-55.04
-57.72
-58.68
-57.60
-54.46
-49.59
-43.57
-37.14
-30.98
-25.56
-21.05
-17.44
-14.63
-12.51
-11.03
-10.09
-9.51
-9.02
-8.44
-7.79
-7.27
-7.13
-7.50
-8.33
-9.39
-10.49
-11.56
-12.69
-14.07
-15.87
-18.06
-20.50
-22.92
-25.10
-26.91
-28.38
-29.72
-31.27
-33.44
-36.49
-40.44
-44.94
-49.25
-52.49
-53.84
-52.80
-49.29
-43.66
-36.54
-28.62
-20.53
-12.76
-5.62
0.61
5.77
9.68
12.20
13.30
13.05
11.78
9.94
8.09
6.68
5.92
5.73
5.84
5.93
5.71
5.02
3.75
1.81
-0.80
-3.97
-7.42
-10.78
-13.71
-16.12
-18.23
-20.51
-23.51
-27.67
-33.11
-39.61
-46.57
-53.07
-58.07
-60.52
-59.65
-55.26
-47.77
-38.17
-27.80
-17.92
-9.36
-2.47
2.82
6.78
9.59
11.32
11.98
11.62
10.46
8.85
7.07
5.31
3.63
2.01
0.52
-0.73
-1.62
-2.16
-2.57
-3.20
-4.44
-6.48
-9.28
-12.60
-16.15
-19.71
-23.18
-26.56
-29.94
-33.44
-37.22
-41.42
-46.06
-50.85
-55.10
-57.79
-57.89
-54.71
-48.15
-38.81
-27.73
-16.13
-5.00
5.02
13.58
20.56
25.92
29.67
31.98
33.11
33.44
33.35
33.10
32.79
32.47
32.13
31.85
31.72
31.77
31.86
31.66
30.73
28.71
25.46
21.20
16.33
11.31
6.45
1.79
-2.79
-7.46
-12.32
-17.36
-22.61
-28.15
-34.03
-40.16
-46.04
-50.79
-53.24
-52.38
-47.69
-39.39
-28.43
-16.18
-4.05
6.83
15.83
22.76
27.72
30.95
32.72
33.29
32.98
32.16
31.17
30.24
29.43
28.56
27.41
25.88
24.13
22.53
21.50
21.23
21.50
21.75
21.30
19.66
16.68
12.52
7.56
2.18
-3.28
-8.63
-13.73
-18.62
-23.45
-28.50
-34.01
-39.97
-45.90
-50.81
-53.47
-52.80
-48.34
-40.37
-29.84
-17.96
-5.79
5.87
16.59
26.06
33.96
39.95
43.80
45.55
45.58
44.53
43.06
41.71
40.78
40.32
40.18
40.15
40.00
39.58
38.81
37.71
36.34
34.70
32.72
30.24
27.09
23.18
18.56
13.40
7.97
2.59
-2.51
-7.19
-11.54
-15.80
-20.37
-25.62
-31.80
-38.89
-46.48
-53.92
-60.21
-64.21
-64.83
-61.32
-53.59
-42.31
-28.84
-14.90
-2.01
8.87
17.56
24.40
29.91
34.43
38.01
40.53
41.96
42.52
42.63
42.67
42.77
42.68
41.97
40.34
37.85
34.94
32.25
30.22
28.94
28.06
27.08
25.60
23.45
20.66
17.38
13.68
9.64
5.35
1.02
-3.14
-6.94
-10.41
-13.76
-17.31
-21.36
-26.06
-31.44
-37.38
-43.53
-49.32
-53.89
-56.25
-55.61
-51.67
-44.74
-35.65
-25.44
-14.95
-4.73
4.90
13.74
21.50
27.81
32.37
35.10
36.20
36.12
35.38
34.46
33.66
33.18
33.04
33.20
33.53
33.84
33.88
33.39
32.23
30.46
28.23
25.79
23.26
20.60
17.70
14.51
11.14
7.77
4.56
1.47
-1.74
-5.30
-9.28
-13.45
-17.46
-21.00
-24.08
-26.98
-30.20
-34.12
-38.84
-44.09
-49.18
-53.18
-55.07
-54.11
-50.04
-43.22
-34.49
-24.93
-15.50
-6.80
0.82
7.27
12.55
16.71
19.81
22.00
23.46
24.34
24.74
24.72
24.52
24.42
24.81
25.92
27.66
29.61
31.13
31.63
30.79
28.70
25.84
22.80
20.08
17.89
16.07
14.23
11.88
8.61
4.28
-1.02
-6.98
-13.14
-18.99
-24.01
-28.02
-31.50
-35.92
-43.73
-57.90
-81.09
-114.82
-158.93
-211.64
-270.05
-330.58
-389.47
-443.06
-487.95
-521.53
-542.57
-551.80
-551.74
-545.55
-535.49
-521.58
-501.44
-471.48
-428.54
-371.49
-301.47
-221.27
-135.07
-48.21
32.69
100.31
148.40
174.04
179.16
170.05
155.05
141.24
132.61
130.09
133.50
143.37
161.72
190.99
232.10
282.62
336.35
384.52
418.25
431.46
423.07
397.66
364.01
331.84
308.28
295.27
289.90
286.54
279.90
267.45
249.63
228.57
206.38
184.10
161.87
139.79
118.52
99.40
83.98
73.24
67.20
64.77
64.36
64.31
63.61
61.92
59.37
55.95
51.03
43.39
31.70
15.46
-4.24
-24.64
-42.03
-53.06
-55.93
-51.02
-40.46
-27.02
-12.69
2.14
18.87
39.67
66.29
98.81
134.94
170.29
199.68
218.80
225.98
222.79
213.35
202.62
194.44
189.93
187.29
182.57
171.32
150.12
117.86
76.20
29.30
-17.29
-58.22
-89.94
-112.04
-127.59
-142.25
-162.04
-190.68
-227.52
-267.17
-301.11
-320.71
-320.68
-301.29
-268.57
-232.35
-202.66
-186.28
-184.70
-194.45
-209.51
-224.44
-236.35
-244.87
-250.19
-250.85
-242.73
-220.34
-179.87
-122.19
-53.83
14.89
73.69
116.08
141.09
152.63
157.03
160.57
168.03
182.40
205.17
236.42
274.72
316.99
359.02
396.39
425.51
443.89
449.73
441.19
416.18
373.56
315.38
248.72
185.26
138.23
117.75
126.75
159.87
205.72
251.32
286.41
305.74
308.58
296.75
272.58
237.97
194.87
145.79
93.99
42.70
-6.12
-52.69
-99.16
-148.22
-201.10
-255.79
-306.71
-346.12
-367.15
-366.97
-348.36
-318.99
-288.55
-265.30
-253.56
-253.28
-261.39
-273.94
-287.70
-300.63
-311.46
-319.10
-322.30
-320.04
-312.06
-299.22
-283.42
-266.99
-251.83
-238.77
-227.46
-216.79
-205.52
-193.06
-179.67
-166.30
-154.17
-144.15
-136.57
-131.26
-127.76
-125.65
-124.86
-125.58
-128.12
-132.80
-139.67
-148.70
-160.04
-174.04
-191.00
-210.65
-231.73
-252.12
-269.46
-282.05
-289.54
-292.83
-293.28
-291.74
-287.91
-280.46
-267.65
-248.19
-221.70
-188.60
-149.76
-105.97
-57.86
-5.80
49.77
108.20
168.44
229.17
288.94
346.70
402.20
455.60
506.87
554.86
596.86
629.06
647.89
651.43
640.14
616.33
582.86
542.19
496.18
446.91
397.56
352.52
316.24
291.52
278.11
272.63
269.90
264.87
254.19
236.75
213.24
185.18
153.88
119.89
82.98
42.78
-0.57
-45.79
-90.28
-130.61
-163.51
-186.86
-200.29
-205.11
-203.75
-198.72
-191.83
-183.56
-173.17
-159.16
-140.15
-115.72
-86.88
-55.73
-24.71
4.46
31.41
56.97
82.36
108.14
133.62
157.00
176.38
190.95
201.65
210.98
221.88
236.23
253.59
271.02
284.00
288.09
280.47
260.55
229.56
189.73
143.60
93.97
44.11
-2.49
-42.88
-75.95
-103.09
-127.85
-154.37
-185.52
-221.67
-260.91
-300.23
-336.93
-369.30
-396.34
-417.11
-430.30
-434.46
-428.59
-412.67
-387.66
-355.27
-317.53
-276.60
-234.62
-193.56
-155.05
-120.05
-88.81
-61.07
-36.52
-15.09
3.00
17.68
29.35
39.13
48.43
58.40
69.37
80.59
90.56
97.63
100.46
98.42
91.68
81.14
68.20
54.54
41.72
30.91
22.58
16.56
12.10
8.29
4.34
-0.29
-5.81
-12.22
-19.32
-26.72
-33.81
-39.83
-43.97
-45.66
-44.68
-41.16
-35.54
-28.43
-20.49
-12.44
-4.90
1.69
7.13
11.51
15.01
17.78
19.79
20.90
20.98
20.12
18.74
17.49
16.99
17.67
19.55
22.23
25.09
27.49
28.99
29.44
28.91
27.58
25.54
22.77
19.19
14.84
9.99
5.08
0.59
-3.22
-6.44
-9.51
-12.96
-17.19
-22.23
-27.70
-32.85
-36.76
-38.54
-37.63
-33.90
-27.75
-19.95
-11.49
-3.30
3.99
10.04
14.81
18.40
20.78
21.92
21.76
20.39
18.17
15.65
13.39
11.83
11.07
11.03
11.51
12.39
13.68
15.30
17.06
18.58
19.39
19.11
17.71
15.50
12.98
10.67
8.78
7.24
5.68
3.71
1.09
-2.10
-5.57
-8.93
-11.97
-14.71
-17.44
-20.47
-23.89
-27.47
-30.52
-32.20
-31.71
-28.65
-23.11
-15.68
-7.32
0.96
8.31
14.20
18.45
21.14
22.45
22.58
21.70
20.04
17.93
15.82
14.16
13.25
13.18
13.79
14.81
16.02
17.25
18.41
19.36
19.86
19.66
18.54
16.47
13.65
10.44
7.26
4.47
2.25
0.55
-0.83
-2.17
-3.72
-5.57
-7.65
-9.79
-11.89
-13.98
-16.30
-19.10
-22.44
-25.99
-28.98
-30.48
-29.68
-26.25
-20.49
-13.21
-5.46
1.85
8.18
13.44
17.81
21.46
24.42
26.44
27.23
26.68
25.04
23.01
21.40
20.89
21.69
23.54
25.82
27.90
29.42
30.37
30.95
31.40
31.81
32.07
32.03
31.58
30.70
29.47
27.95
26.21
24.28
22.14
19.76
16.96
13.50
9.12
3.79
-2.30
-8.68
-14.88
-20.72
-26.47
-32.80
-40.45
-49.82
-60.59
-71.75
-81.79
-89.02
-91.94
-89.41
-80.88
-66.50
-47.34
-25.39
-3.28
16.13
30.53
38.68
40.72
37.98
32.50
26.37
21.26
18.16
17.29
18.28
20.37
22.65
24.38
25.05
24.58
23.13
21.02
18.55
15.91
13.19
10.42
7.63
4.80
1.82
-1.39
-4.91
-8.61
-12.22
-15.34
-17.79
-19.69
-21.51
-23.84
-26.99
-30.75
-34.26
-36.38
-36.06
-32.74
-26.60
-18.42
-9.35
-0.59
6.92
12.69
16.68
19.20
20.70
21.56
21.96
21.88
21.25
20.09
18.66
17.33
16.47
16.23
16.46
16.90
17.23
17.34
17.27
17.18
17.11
16.98
16.55
15.53
13.70
11.11
8.01
4.80
1.85
-0.71
-2.93
-5.01
-7.14
-9.42
-11.79
-14.20
-16.65
-19.26
-22.21
-25.64
-29.44
-33.20
-36.18
-37.50
-36.43
-32.62
-26.28
-18.16
-9.34
-0.90
6.33
11.98
16.08
18.90
20.79
21.94
22.41
22.17
21.19
19.58
17.66
15.85
14.64
14.32
14.93
16.21
17.76
19.14
20.05
20.35
20.07
19.31
18.21
16.88
15.46
14.06
12.74
11.45
10.05
8.34
6.12
3.31
0.02
-3.48
-6.86
-9.78
-12.12
-13.99
-15.73
-17.71
-20.20
-23.13
-26.07
-28.32
-29.07
-27.68
-23.91
-17.99
-10.62
-2.71
4.79
11.20
16.17
19.74
22.10
23.48
24.00
23.68
22.54
20.69
18.43
16.16
14.33
13.19
12.82
13.03
13.50
13.90
14.05
13.89
13.44
12.77
11.86
10.62
8.91
6.72
4.13
1.34
-1.43
-4.06
-6.56
-9.02
-11.54
-14.14
-16.80
-19.50
-22.32
-25.42
-28.95
-32.86
-36.86
-40.29
-42.35
-42.33
-39.83
-34.95
-28.27
-20.61
-12.78
-5.39
1.22
6.83
11.25
14.24
15.64
15.45
13.98
11.84
9.66
7.96
6.99
6.78
7.20
8.10
9.29
10.53
11.50
11.90
11.55
10.53
9.14
7.78
6.68
5.83
4.96
3.76
1.98
-0.40
-3.24
-6.30
-9.38
-12.33
-15.12
-17.80
-20.44
-23.19
-26.15
-29.34
-32.62
-35.64
-37.91
-38.86
-37.99
-34.99
-29.85
-22.90
-14.84
-6.58
0.94
7.01
11.36
14.08
15.57
16.24
16.36
15.97
15.01
13.53
11.85
10.50
10.00
10.63
12.24
14.27
16.06
17.10
17.28
16.89
16.43
16.38
16.90
17.84
18.77
19.26
19.00
17.97
16.43
14.88
13.90
13.97
15.30
17.70
20.64
23.51
25.95
28.17
30.94
35.41
42.51
52.56
65.00
78.48
91.21
101.17
106.35
104.92
95.46
77.55
52.19
21.83
-10.12
-40.45
-67.13
-89.75
-109.01
-125.60
-139.23
-148.45
-151.51
-147.62
-137.80
-124.62
-110.91
-98.38
-86.99
-75.50
-62.61
-47.95
-32.21
-16.36
-0.67
15.71
34.38
56.58
82.33
110.12
137.47
161.86
181.61
196.13
205.75
211.25
213.47
213.04
210.37
205.67
199.29
191.79
183.89
176.13
168.47
160.21
150.18
137.22
120.51
99.51
73.85
43.26
7.92
-30.91
-70.52
-107.02
-136.45
-156.33
-166.59
-169.57
-169.00
-168.37
-169.88
-174.07
-180.22
-186.93
-192.76
-196.36
-196.80
-193.82
-188.15
-181.62
-176.81
-176.35
-181.90
-193.14
-207.38
-219.77
-224.49
-216.32
-192.34
-153.08
-102.59
-47.16
6.87
55.35
97.59
135.97
174.26
215.43
260.13
306.38
350.46
388.31
416.85
434.56
441.39
438.34
426.71
407.93
383.35
354.32
321.99
286.96
249.00
206.96
159.23
104.50
42.69
-24.77
-95.05
-164.57
-229.70
-287.05
-333.77
-367.77
-388.08
-394.90
-389.73
-374.76
-352.44
-324.94
-294.10
-261.81
-230.53
-203.53
-184.19
-174.55
-173.66
-176.64
-175.33
-161.25
-129.41
-81.61
-26.90
21.47
51.57
57.84
42.95
15.40
-15.35
-42.87
-64.51
-79.43
-86.17
-82.35
-66.67
-41.70
-14.48
6.16
13.90
8.44
-4.69
-17.63
-24.69
-25.10
-22.44
-21.69
-26.08
-35.55
-47.70
-59.88
-70.85
-81.18
-92.26
-104.71
-117.33
-126.81
-128.89
-120.03
-99.16
-68.39
-32.49
2.95
33.59
58.06
78.01
96.82
117.60
141.51
167.44
192.78
214.79
231.46
241.66
244.65
239.83
226.91
206.61
181.21
154.18
129.26
108.86
93.24
80.72
68.80
55.72
41.34
27.00
14.45
4.62
-2.97
-10.06
-18.55
-29.31
-41.52
-53.02
-61.36
-65.16
-64.70
-61.58
-57.48
-53.10
-47.94
-41.07
-32.23
-22.47
-13.77
-7.71
-4.34
-1.92
2.18
9.88
21.53
35.71
50.17
62.91
72.94
80.20
85.19
88.60
91.26
94.34
99.33
107.46
118.84
131.76
142.56
146.63
139.95
120.75
90.63
54.28
18.21
-11.31
-30.40
-39.00
-40.73
-41.72
-48.63
-66.54
-97.21
-138.16
-182.78
-221.99
-247.19
-253.45
-241.57
-217.90
-191.50
-170.16
-157.18
-150.76
-146.04
-138.52
-126.81
-112.96
-100.49
-91.73
-86.49
-82.49
-77.18
-69.34
-59.26
-48.02
-36.30
-23.87
-9.95
5.94
23.56
41.80
59.14
74.00
84.99
91.21
92.61
90.43
87.31
86.64
91.10
101.23
114.96
128.49
138.01
141.29
138.08
129.24
115.59
97.43
75.46
51.88
30.70
16.66
13.14
20.41
35.54
53.93
71.60
86.84
100.12
112.70
125.14
136.69
145.90
151.79
154.65
156.01
157.90
161.53
166.72
171.97
175.29
175.31
172.24
167.99
165.50
167.34
174.35
184.99
195.65
201.83
199.77
187.64
165.91
136.86
103.41
67.88
31.32
-6.60
-46.96
-90.73
-137.82
-186.92
-236.01
-283.07
-327.11
-368.33
-407.97
-447.70
-489.15
-533.66
-581.80
-632.60
-682.64
-725.77
-754.09
-760.24
-740.09
-694.43
-628.74
-551.00
-468.86
-387.49
-309.12
-234.17
-162.66
-95.00
-31.94
26.12
79.67
129.97
178.40
225.63
270.83
311.52
343.93
364.36
370.84
364.46
349.48
331.84
316.97
307.74
303.97
303.33
303.03
301.11
296.63
289.50
280.46
271.70
267.09
271.07
286.17
310.46
336.63
354.02
352.76
327.66
279.86
215.16
140.85
62.86
-14.89
-89.21
-156.31
-211.61
-251.22
-273.88
-281.97
-280.54
-275.07
-269.30
-264.26
-258.85
-251.04
-239.37
-223.43
-203.66
-180.76
-155.33
-127.83
-98.84
-69.38
-40.99
-15.55
5.26
20.45
30.08
35.21
37.52
38.75
40.16
42.28
44.99
47.71
49.65
50.05
48.33
44.25
38.16
31.00
24.11
18.77
15.71
14.84
15.37
16.29
16.87
17.01
17.01
17.29
17.85
18.24
17.79
16.05
13.10
9.54
6.22
3.73
2.23
1.41
0.81
0.11
-0.61
-1.00
-0.53
1.13
3.87
7.14
10.00
11.49
10.88
7.96
3.10
-2.86
-8.99
-14.53
-19.12
-22.89
-26.18
-29.40
-32.69
-35.81
-38.18
-39.00
-37.53
-33.36
-26.61
-17.94
-8.33
1.13
9.64
16.69
22.12
25.85
27.90
28.29
27.20
25.05
22.39
19.83
17.69
16.01
14.73
13.80
13.47
14.10
15.90
18.62
21.41
23.13
22.80
20.10
15.51
10.06
4.93
0.91
-1.82
-3.60
-5.08
-6.92
-9.52
-13.02
-17.27
-21.79
-25.94
-28.93
-30.12
-29.20
-26.26
-21.80
-16.49
-10.88
-5.25
0.35
5.96
11.43
16.40
20.33
22.83
23.79
23.55
22.64
21.60
20.79
20.32
20.12
20.05
20.00
19.90
19.73
19.61
19.62
19.86
20.30
20.77
20.93
20.42
19.02
16.73
13.75
10.37
6.82
3.28
-0.24
-3.75
-7.31
-11.00
-14.87
-18.85
-22.71
-26.00
-28.11
-28.54
-27.00
-23.57
-18.61
-12.68
-6.37
-0.14
5.64
10.72
14.94
18.21
20.49
21.84
22.40
22.39
22.10
21.82
21.77
22.03
22.48
22.88
22.99
22.72
22.15
21.50
20.95
20.52
20.04
19.16
17.56
15.08
11.85
8.23
4.71
1.66
-0.74
-2.56
-4.06
-5.56
-7.29
-9.41
-12.04
-15.20
-18.85
-22.73
-26.31
-28.83
-29.53
-28.02
-24.47
-19.56
-14.19
-9.08
-4.54
-0.39
3.66
7.74
11.59
14.67
16.42
16.62
15.56
13.93
12.47
11.65
11.44
11.46
11.14
10.17
8.58
6.73
5.15
4.20
3.93
4.10
4.33
4.37
4.14
3.78
3.49
3.35
3.28
3.05
2.46
1.41
0.03
-1.52
-3.07
-4.63
-6.37
-8.49
-11.09
-14.07
-17.09
-19.69
-21.34
-21.66
-20.49
-17.95
-14.35
-10.13
-5.79
-1.74
1.66
4.22
5.80
6.36
5.96
4.77
3.11
1.46
0.29
-0.02
0.64
2.03
3.69
5.08
5.90
6.20
6.35
6.86
8.07
9.87
11.76
12.98
12.90
11.25
8.25
4.50
0.78
-2.25
-4.17
-4.91
-4.71
-3.97
-3.17
-2.76
-3.12
-4.52
-7.11
-10.83
-15.32
-19.90
-23.65
-25.69
-25.40
-22.72
-18.14
-12.61
-7.22
-2.83
0.18
1.94
2.95
3.79
4.82
6.02
7.10
7.63
7.33
6.28
4.87
3.61
2.89
2.81
3.20
3.73
4.25
4.70
5.15
5.53
5.65
5.22
4.07
2.29
0.28
-1.50
-2.75
-3.51
-4.14
-5.03
-6.39
-8.19
-10.23
-12.36
-14.66
-17.37
-20.65
-24.49
-28.59
-32.44
-35.44
-37.09
-37.02
-35.09
-31.38
-26.18
-19.95
-13.22
-6.54
-0.36
4.94
9.09
11.94
13.41
13.57
12.52
10.38
7.34
3.74
0.12
-2.77
-4.15
-3.46
-0.65
3.83
9.10
14.22
18.43
21.32
22.78
22.86
21.67
19.37
16.16
12.37
8.37
4.53
1.05
-2.02
-4.78
-7.35
-9.83
-12.23
-14.55
-16.82
-19.14
-21.75
-24.93
-28.87
-33.50
-38.39
-42.81
-45.93
-47.09
-46.01
-42.90
-38.33
-32.96
-27.33
-21.77
-16.44
-11.45
-7.01
-3.38
-0.85
0.47
0.70
0.19
-0.50
-0.79
-0.20
1.45
4.08
7.35
10.74
13.82
16.23
17.83
18.59
18.52
17.69
16.16
14.11
11.73
9.25
6.79
4.35
1.76
-1.13
-4.41
-7.98
-11.61
-15.04
-18.11
-20.94
-23.92
-27.57
-32.31
-38.16
-44.58
-50.50
-54.61
-55.78
-53.53
-48.16
-40.61
-32.07
-23.56
-15.64
-8.45
-1.89
4.08
9.24
13.18
15.31
15.15
12.54
7.91
2.52
-1.64
-2.26
2.39
12.66
26.91
41.95
53.90
59.36
56.33
44.70
26.04
3.07
-21.12
-43.95
-63.96
-81.04
-96.29
-111.41
-127.98
-146.98
-168.60
-192.29
-216.85
-240.38
-260.24
-273.21
-276.25
-267.60
-247.57
-218.65
-184.48
-148.30
-111.93
-75.75
-39.86
-5.29
25.64
50.07
66.18
74.20
76.41
75.98
75.31
75.20
75.21
74.86
74.68
76.34
81.63
91.09
103.32
115.36
124.16
128.04
127.46
124.68
122.64
123.84
129.32
138.59
150.03
161.69
172.02
180.17
186.00
189.75
191.62
191.59
189.45
184.96
178.09
168.98
157.82
144.73
129.79
113.30
96.01
79.14
64.14
52.20
43.77
38.47
35.32
33.28
31.60
29.95
28.27
26.55
24.70
22.57
20.10
17.39
14.70
12.33
10.56
9.45
8.99
9.03
9.39
9.89
10.36
10.66
10.72
10.54
10.16
9.63
8.86
7.76
6.19
4.11
1.66
-0.89
-3.26
-5.29
-7.04
-8.76
-10.76
-13.24
-16.22
-19.52
-22.82
-25.77
-28.02
-29.32
-29.61
-29.05
-27.98
-26.78
-25.75
-24.97
-24.25
-23.31
-21.95
-20.15
-18.15
-16.20
-14.49
-13.02
-11.69
-10.33
-8.84
-7.22
-5.49
-3.59
-1.39
1.35
4.70
8.50
12.24
15.18
16.64
16.21
13.97
10.42
6.29
2.24
-1.41
-4.64
-7.71
-10.93
-14.48
-18.37
-22.43
-26.39
-29.82
-32.24
-33.24
-32.55
-30.13
-26.23
-21.25
-15.69
-9.97
-4.38
0.86
5.62
9.72
12.93
15.05
15.94
15.64
14.41
12.67
10.86
9.37
8.34
7.76
7.54
7.60
7.92
8.46
9.07
9.44
9.20
8.08
6.03
3.32
0.41
-2.30
-4.59
-6.49
-8.17
-9.79
-11.42
-13.03
-14.55
-15.96
-17.17
-18.03
-18.26
-17.53
-15.52
-12.13
-7.60
-2.35
3.03
8.10
12.56
16.36
19.53
22.07
23.90
24.93
25.20
24.91
24.40
24.02
23.92
24.04
24.16
24.09
23.78
23.36
22.98
22.70
22.39
21.82
20.77
19.18
17.16
14.94
12.81
10.99
9.59
8.58
7.79
7.00
5.94
4.43
2.43
0.03
-2.54
-5.03
-7.17
-8.71
-9.43
-9.22
-8.07
-6.18
-3.87
-1.50
0.62
2.27
3.38
3.96
4.03
3.62
2.79
1.59
0.14
-1.44
-3.00
-4.39
-5.50
-6.19
-6.39
-6.12
-5.48
-4.70
-3.94
-3.37
-3.07
-3.08
-3.45
-4.21
-5.32
-6.67
-8.01
-9.14
-9.98
-10.60
-11.20
-11.96
-12.95
-14.12
-15.39
-16.67
-17.90
-19.01
-19.82
-20.06
-19.46
-17.83
-15.21
-11.90
-8.30
-4.83
-1.74
0.90
3.14
5.06
6.65
7.78
8.26
8.00
7.17
6.12
5.25
4.78
4.67
4.67
4.57
4.36
4.25
4.47
5.07
5.79
6.14
5.71
4.35
2.29
-0.08
-2.42
-4.56
-6.51
-8.32
-9.94
-11.29
-12.31
-13.09
-13.86
-14.86
-16.23
-17.83
-19.37
-20.52
-21.01
-20.74
-19.74
-18.11
-15.95
-13.33
-10.30
-6.92
-3.24
0.58
4.31
7.62
10.19
11.72
12.12
11.57
10.48
9.40
8.87
9.27
10.76
13.26
16.57
20.40
24.48
28.50
32.22
35.31
37.42
38.19
37.19
34.17
29.12
22.50
15.08
7.83
1.55
-3.36
-7.00
-9.77
-12.12
-14.31
-16.40
-18.39
-20.30
-22.29
-24.42
-26.50
-28.09
-28.63
-27.79
-25.65
-22.69
-19.44
-16.29
-13.25
-10.12
-6.76
-3.31
-0.19
2.12
3.46
4.08
4.58
5.49
6.99
8.79
10.29
10.96
10.63
9.52
8.14
6.97
6.23
5.86
5.59
5.16
4.43
3.41
2.24
1.05
-0.12
-1.28
-2.48
-3.79
-5.24
-6.80
-8.39
-9.89
-11.26
-12.53
-13.86
-15.44
-17.35
-19.46
-21.40
-22.72
-22.98
-21.93
-19.59
-16.15
-11.93
-7.27
-2.54
1.89
5.65
8.47
10.22
10.94
10.85
10.22
9.39
8.64
8.20
8.16
8.47
8.97
9.44
9.70
9.66
9.35
8.84
8.19
7.41
6.55
5.67
4.79
3.94
2.99
1.72
-0.04
-2.38
-5.12
-7.98
-10.61
-12.85
-14.75
-16.52
-18.39
-20.49
-22.78
-25.04
-26.95
-28.10
-28.06
-26.53
-23.46
-19.12
-14.07
-8.98
-4.33
-0.31
3.12
6.11
8.66
10.61
11.71
11.85
11.14
9.94
8.63
7.51
6.76
6.43
6.59
7.28
8.44
9.81
10.98
11.58
11.44
10.73
9.85
9.23
9.02
9.05
8.89
8.14
6.65
4.55
2.18
-0.16
-2.31
-4.34
-6.44
-8.81
-11.57
-14.65
-17.88
-20.98
-23.63
-25.48
-26.29
-25.83
-24.01
-20.85
-16.63
-11.79
-6.92
-2.58
0.90
3.46
5.32
6.79
8.12
9.40
10.58
11.57
12.29
12.71
12.88
12.81
12.56
12.24
11.96
11.90
12.18
12.88
13.98
15.31
16.58
17.42
17.46
16.52
14.67
12.20
9.55
7.07
4.95
3.14
1.47
-0.27
-2.20
-4.36
-6.74
-9.32
-12.08
-14.93
-17.69
-20.02
-21.43
-21.48
-19.92
-16.78
-12.39
-7.28
-1.95
3.24
8.10
12.49
16.21
18.92
20.29
20.17
18.81
16.85
15.07
14.12
14.24
15.29
16.88
18.63
20.29
21.78
23.04
23.93
24.33
24.17
23.62
23.08
23.00
23.67
25.06
26.80
28.38
29.37
29.63
29.32
28.83
28.69
29.35
31.07
33.86
37.48
41.58
45.93
50.55
55.81
62.23
70.24
80.02
91.36
103.75
116.62
129.37
141.45
152.27
161.11
167.24
170.07
169.23
164.57
156.05
143.62
127.42
108.08
87.14
67.00
50.40
39.46
34.81
35.32
38.54
41.83
43.20
41.83
37.84
31.64
23.43
12.89
-0.69
-18.15
-40.13
-66.72
-97.06
-128.99
-159.23
-184.00
-200.27
-206.79
-204.68
-196.81
-186.49
-176.13
-166.61
-157.57
-148.35
-138.86
-129.68
-121.60
-114.80
-108.52
-101.34
-92.10
-80.74
-68.53
-57.55
-49.67
-45.61
-44.64
-45.04
-45.09
-43.83
-41.39
-38.53
-35.92
-33.69
-31.34
-28.24
-24.29
-20.15
-16.97
-15.77
-16.83
-19.55
-22.76
-25.43
-27.03
-27.68
-27.84
-27.84
-27.73
-27.38
-26.83
-26.51
-27.04
-28.89
-31.88
-35.12
-37.26
-37.12
-34.22
-28.98
-22.42
-15.70
-9.64
-4.48
-0.13
3.63
6.85
9.41
11.09
11.81
11.67
10.97
10.07
9.25
8.68
8.40
8.33
8.41
8.56
8.74
8.89
8.97
8.95
8.74
8.22
7.26
5.81
3.90
1.73
-0.44
-2.37
-4.01
-5.52
-7.19
-9.32
-12.01
-15.12
-18.26
-20.94
-22.76
-23.53
-23.27
-22.04
-19.97
-17.08
-13.43
-9.18
-4.59
-0.04
4.07
7.50
10.21
12.23
13.65
14.45
14.64
14.27
13.53
12.68
11.91
11.29
10.65
9.85
8.90
8.06
7.69
8.03
8.94
9.96
10.47
10.02
8.58
6.49
4.23
2.12
0.18
-1.81
-4.07
-6.70
-9.56
-12.46
-15.22
-17.75
-19.97
-21.70
-22.57
-22.25
-20.53
-17.42
-13.17
-8.13
-2.67
2.82
7.93
12.08
14.70
15.42
14.30
11.94
9.29
7.28
6.49
6.88
7.87
8.72
8.83
8.05
6.65
5.15
4.05
3.56
3.64
3.99
4.30
4.29
3.79
2.74
1.15
-0.88
-3.21
-5.62
-7.97
-10.18
-12.31
-14.50
-16.91
-19.49
-22.05
-24.20
-25.54
-25.82
-24.98
-23.16
-20.55
-17.31
-13.54
-9.37
-5.05
-0.96
2.50
5.06
6.68
7.55
7.97
8.10
8.03
7.72
7.16
6.47
5.86
5.52
5.53
5.83
6.31
6.81
7.24
7.51
7.57
7.32
6.65
5.50
3.88
1.90
-0.31
-2.56
-4.76
-6.88
-8.93
-10.99
-13.13
-15.46
-18.07
-21.07
-24.37
-27.59
-30.01
-30.67
-28.73
-23.96
-16.96
-9.20
-2.41
1.99
3.58
3.05
1.83
1.42
2.62
5.26
8.35
10.67
11.44
10.67
9.22
8.43
9.65
13.87
21.40
31.46
42.01
49.79
51.02
42.73
24.11
-2.62
-32.60
-59.80
-78.93
-87.07
-84.23
-72.90
-56.94
-40.15
-25.17
-12.83
-2.09
9.28
23.58
41.98
63.69
86.30
106.65
122.29
132.17
136.49
135.93
130.97
121.88
109.20
94.34
79.53
66.97
57.71
51.00
44.56
35.81
23.30
7.48
-9.57
-25.07
-36.89
-44.25
-47.77
-48.80
-48.69
-48.26
-47.73
-46.95
-45.73
-44.07
-42.16
-40.31
-38.70
-37.43
-36.48
-35.86
-35.61
-35.90
-36.94
-38.83
-41.39
-44.03
-45.84
-45.86
-43.46
-38.59
-31.91
-24.47
-17.36
-11.31
-6.56
-2.89
0.07
2.61
4.79
6.49
7.52
7.82
7.54
6.90
6.18
5.55
5.06
4.68
4.28
3.77
2.98
1.79
0.07
-2.33
-5.59
-9.88
-15.29
-21.75
-28.91
-36.23
-43.02
-48.67
-52.92
-55.90
-58.15
-60.32
-62.93
-65.87
-68.29
-68.69
-65.41
-57.27
-44.41
-28.67
-13.37
-2.36
1.36
-3.42
-15.75
-33.20
-52.92
-72.71
-91.30
-108.19
-123.18
-136.22
-147.54
-157.82
-168.00
-178.38
-187.86
-193.56
-191.40
-177.63
-150.13
-109.31
-57.88
0.20
60.76
120.19
175.60
224.16
262.47
286.72
293.79
282.92
257.28
223.82
191.58
168.80
160.15
165.74
182.24
205.50
232.86
263.81
298.44
335.16
369.48
394.73
404.79
396.86
372.64
337.44
297.58
257.65
219.21
181.16
141.15
97.41
49.63
-1.03
-52.37
-101.64
-145.92
-182.50
-209.40
-226.05
-233.32
-233.32
-228.66
-221.73
-214.46
-208.39
-204.74
-204.38
-207.37
-212.35
-216.58
-216.24
-207.36
-186.81
-153.05
-106.68
-50.56
10.40
70.09
122.41
162.80
189.24
202.46
205.12
200.33
190.54
176.95
159.99
140.02
117.98
95.25
73.16
52.41
33.03
14.88
-1.60
-15.11
-23.94
-26.97
-24.61
-19.10
-13.70
-11.27
-12.89
-17.36
-22.14
-25.02
-25.77
-26.72
-32.06
-46.21
-72.18
-110.57
-159.44
-214.96
-272.19
-325.84
-370.87
-402.90
-418.73
-416.90
-397.89
-364.04
-318.93
-266.59
-210.84
-155.02
-101.76
-52.95
-9.63
27.99
60.27
87.54
109.68
125.91
135.15
136.82
131.67
122.00
111.34
103.23
100.03
102.19
108.22
115.32
120.25
120.11
112.85
97.67
75.02
46.55
14.63
-18.14
-49.49
-77.71
-101.60
-120.29
-133.01
-139.36
-139.51
-134.53
-126.17
-116.35
-106.43
-96.85
-87.46
-78.03
-69.00
-61.60
-57.43
-57.75
-62.87
-72.06
-83.85
-96.58
-108.80
-119.29
-126.75
-129.69
-126.44
-115.80
-97.64
-73.11
-44.34
-13.62
17.38
47.99
78.26
108.26
137.47
164.66
188.16
206.47
218.76
225.18
226.71
225.14
222.65
221.41
223.09
228.17
235.67
243.33
248.33
248.10
241.07
227.01
206.84
182.35
155.77
129.16
104.10
81.38
61.01
42.61
25.82
10.64
-2.54
-13.29
-21.49
-27.55
-32.33
-36.82
-41.79
-47.48
-53.64
-59.59
-64.59
-68.23
-70.61
-72.37
-74.42
-77.46
-81.64
-86.45
-90.94
-94.11
-95.30
-94.34
-91.57
-87.58
-83.12
-78.84
-75.10
-71.96
-69.07
-65.54
-60.07
-51.04
-36.93
-16.73
9.28
39.28
70.25
98.79
122.03
138.00
145.51
143.77
132.39
111.77
83.64
51.42
19.44
-8.31
-29.63
-44.57
-55.03
-63.38
-71.12
-78.36
-84.14
-87.25
-87.07
-83.75
-77.86
-70.12
-61.17
-51.62
-42.29
-34.43
-29.64
-29.28
-33.91
-42.84
-54.20
-65.65
-75.24
-82.23
-87.24
-91.98
-98.36
-107.81
-120.80
-136.72
-154.20
-171.50
-186.91
-199.06
-207.05
-210.36
-208.67
-201.79
-189.43
-171.05
-145.81
-112.86
-71.91
-24.13
27.37
77.71
121.52
154.68
175.82
186.84
191.71
194.64
198.07
201.88
204.10
202.36
195.43
183.71
168.74
152.18
135.10
117.81
100.29
82.71
65.59
49.63
35.31
22.75
11.72
2.06
-6.04
-11.90
-14.58
-13.33
-8.05
0.43
10.48
20.21
28.28
34.48
39.97
46.74
56.52
69.95
86.09
102.98
118.71
132.37
144.40
156.05
168.39
181.49
194.42
205.81
214.84
221.80
227.80
234.11
240.80
246.39
247.74
240.94
222.41
189.96
143.52
85.36
19.84
-47.48
-110.82
-165.42
-208.53
-240.09
-262.60
-280.14
-296.74
-314.48
-332.24
-345.71
-348.90
-336.64
-306.86
-261.84
-207.76
-152.70
-104.08
-66.40
-40.13
-21.76
-5.10
17.15
51.09
99.81
162.09
232.24
301.33
359.41
398.06
412.27
401.12
367.32
316.23
254.71
190.30
130.41
81.28
46.75
27.25
19.72
18.70
18.39
14.83
7.01
-3.48
-13.97
-22.62
-29.32
-35.57
-43.25
-53.34
-65.27
-77.21
-87.01
-93.10
-95.13
-93.81
-90.42
-86.14
-81.68
-77.25
-72.66
-67.76
-62.47
-56.83
-50.84
-44.30
-36.79
-27.88
-17.31
-5.28
7.53
20.13
31.48
40.71
47.39
51.52
53.46
53.90
53.68
53.67
54.48
56.30
58.76
61.03
62.00
60.65
56.41
49.34
40.14
30.06
20.54
12.83
7.75
5.54
5.94
8.45
12.49
17.69
23.78
30.52
37.46
43.79
48.38
50.17
48.48
43.51
36.49
29.55
25.37
26.59
35.05
51.01
72.58
95.82
115.69
127.66
129.23
120.51
103.85
82.40
58.69
33.99
8.33
-18.30
-45.04
-70.37
-92.82
-112.06
-129.49
-147.64
-169.22
-197.00
-232.57
-276.10
-325.88
-377.96
-426.34
-464.23
-485.64
-487.52
-472.02
-444.32
-410.19
-373.51
-335.27
-294.81
-252.21
-210.09
-173.41
-149.70
-143.97
-156.36
-181.68
-211.40
-236.97
-253.23
-259.74
-260.26
-263.29
-276.28
-302.98
-342.12
-388.32
-434.61
-475.53
-508.52
-515.60
-484.26
-408.01
-290.13
-143.57
13.71
165.11
298.41
406.78
487.58
538.38
559.40
553.73
527.77
488.98
444.56
399.24
355.09
311.43
263.58
206.27
135.67
51.39
-42.60
-135.18
-213.32
-264.64
-281.22
-263.43
-218.20
-156.36
-88.17
-20.16
46.04
111.08
176.98
244.46
311.19
372.17
419.99
445.87
441.94
404.33
334.87
244.69
150.22
67.53
6.82
-30.30
-49.56
-58.92
-63.54
-64.96
-58.53
-38.45
-1.58
50.69
113.33
180.55
249.05
319.50
384.35
435.96
465.35
465.93
437.44
386.37
322.32
253.22
191.21
133.43
77.82
26.94
-12.08
-31.35
-27.74
-6.14
19.36
33.47
22.83
-15.16
-74.24
-143.54
-212.67
-274.57
-325.53
-363.35
-382.82
-381.71
-361.34
-328.84
-294.26
-265.66
-246.67
-236.67
-232.99
-232.34
-233.33
-235.09
-235.62
-233.13
-226.78
-217.31
-206.65
-196.90
-189.14
-183.83
-179.79
-174.78
-167.63
-157.74
-145.56
-132.36
-119.61
-108.26
-98.88
-91.13
-84.00
-76.46
-67.63
-57.32
-45.94
-34.25
-22.94
-12.45
-2.82
6.42
15.91
26.27
37.73
50.07
62.68
74.93
86.38
97.04
107.38
118.09
129.87
143.03
157.38
172.31
187.06
201.07
214.23
226.98
240.19
254.98
272.16
291.89
313.34
334.82
354.03
368.38
375.50
373.62
361.99
341.08
312.54
278.75
242.15
204.58
166.99
129.71
93.04
57.77
25.24
-3.17
-26.93
-46.92
-65.13
-83.59
-102.92
-121.51
-135.77
-141.59
-136.05
-118.95
-92.99
-62.89
-33.96
-10.70
3.97
8.95
4.95
-5.75
-19.51
-31.98
-39.05
-38.05
-28.66
-12.91
5.64
23.29
37.48
47.23
52.92
55.50
55.75
53.95
50.07
44.10
36.25
27.01
16.91
6.33
-4.47
-15.33
-26.13
-37.04
-48.94
-63.48
-82.62
-107.53
-137.47
-169.39
-198.60
-220.36
-231.56
-231.66
-222.46
-207.07
-188.72
-169.89
-151.98
-135.34
-119.30
-102.13
-81.36
-54.32
-19.25
23.74
72.26
122.14
168.69
208.12
238.77
261.43
278.97
295.02
312.46
332.21
352.85
371.41
384.76
391.08
390.36
383.90
373.02
357.82
336.82
307.50
267.45
215.32
151.24
76.62
-6.13
-93.78
-182.18
-266.12
-339.50
-396.04
-430.53
-440.21
-425.89
-392.29
-347.18
-299.43
-256.62
-223.13
-199.42
-182.88
-169.66
-156.56
-142.10
-126.40
-110.38
-94.86
-80.16
-66.21
-52.93
-40.41
-28.92
-18.70
-9.73
-1.81
5.41
12.16
18.49
24.18
28.87
32.15
33.78
33.77
32.39
30.07
27.22
24.06
20.57
16.67
12.33
7.74
3.36
-0.22
-2.35
-2.57
-0.69
3.14
8.38
14.25
19.88
24.57
28.02
30.28
31.64
32.38
32.61
32.16
30.73
28.13
24.42
20.00
15.51
11.57
8.64
6.87
6.09
5.91
5.87
5.57
4.78
3.42
1.54
-0.71
-3.11
-5.49
-7.76
-10.04
-12.57
-15.69
-19.54
-23.90
-28.16
-31.41
-32.80
-31.74
-28.18
-22.51
-15.46
-7.89
-0.62
5.70
10.59
13.81
15.38
15.51
14.62
13.10
11.32
9.51
7.85
6.48
5.55
5.19
5.34
5.78
6.11
5.97
5.20
3.91
2.43
1.04
-0.13
-1.29
-2.85
-5.13
-8.27
-12.10
-16.25
-20.28
-23.76
-26.26
-27.37
-26.71
-24.03
-19.35
-13.06
-5.83
1.53
8.28
13.92
18.17
20.97
22.41
22.65
21.92
20.48
18.64
16.67
14.84
13.27
12.01
11.01
10.16
9.32
8.46
7.53
6.54
5.48
4.21
2.56
0.39
-2.25
-5.19
-8.15
-11.00
-13.88
-17.10
-20.97
-25.37
-29.67
-32.77
-33.56
-31.40
-26.43
-19.53
-11.94
-4.80
1.19
5.85
9.30
11.70
13.10
13.38
12.40
10.19
7.03
3.43
-0.04
-2.83
-4.60
-5.15
-4.37
-2.24
1.22
5.71
10.67
15.25
18.57
20.04
19.58
17.59
14.72
11.48
8.01
4.14
-0.33
-5.32
-10.30
-14.34
-16.53
-16.25
-13.40
-8.39
-1.96
5.17
12.43
19.50
26.16
32.10
36.88
39.99
41.07
40.12
37.61
34.39
31.40
29.41
28.74
29.29
30.58
31.99
33.09
33.71
34.05
34.59
35.82
37.94
40.62
43.05
44.22
43.43
40.78
37.28
34.61
34.34
37.08
41.98
46.94
49.60
48.76
45.41
42.89
45.63
57.22
78.44
106.27
134.37
154.83
160.37
146.29
111.68
60.19
-0.13
-57.93
-101.30
-121.43
-115.84
-89.62
-53.57
-19.93
2.27
10.22
7.32
0.57
-3.13
-0.03
9.32
20.65
27.87
25.42
10.37
-16.43
-50.51
-85.26
-114.57
-134.90
-146.00
-149.87
-148.73
-143.47
-133.47
-117.72
-96.37
-71.55
-46.78
-25.57
-9.80
0.90
8.68
16.08
24.62
34.06
42.55
47.84
48.45
44.53
37.77
30.52
24.76
21.36
19.98
19.54
18.93
17.60
15.59
13.25
10.81
8.11
4.46
-1.05
-9.25
-20.38
-33.84
-48.09
-61.04
-70.62
-75.56
-75.87
-72.98
-69.22
-66.91
-67.45
-70.71
-75.03
-77.91
-76.95
-70.72
-59.20
-43.67
-26.14
-8.73
6.89
19.74
29.46
36.05
39.71
40.74
39.45
36.15
31.17
24.79
17.28
8.98
0.37
-7.85
-14.84
-19.82
-22.28
-22.15
-19.82
-15.89
-10.90
-5.19
1.11
7.95
15.07
22.02
28.19
33.00
36.03
37.06
35.94
32.52
26.67
18.52
8.62
-2.06
-12.26
-20.74
-26.66
-29.64
-29.71
-27.16
-22.47
-16.21
-9.09
-2.00
4.15
8.66
11.22
12.03
11.67
10.79
9.92
9.26
8.71
8.13
7.39
6.48
5.32
3.70
1.25
-2.35
-7.12
-12.64
-18.14
-22.89
-26.55
-29.34
-31.85
-34.69
-38.12
-41.87
-45.39
-48.11
-49.69
-49.98
-48.91
-46.40
-42.30
-36.57
-29.50
-21.77
-14.32
-8.09
-3.73
-1.51
-1.35
-2.99
-6.07
-10.12
-14.58
-18.76
-21.98
-23.72
-23.71
-21.97
-18.75
-14.33
-8.98
-2.97
3.36
9.55
15.00
19.14
21.52
21.88
20.11
16.30
10.82
4.30
-2.28
-7.91
-11.76
-13.54
-13.54
-12.51
-11.29
-10.45
-10.13
-10.06
-9.81
-9.03
-7.63
-5.80
-3.88
-2.32
-1.56
-1.86
-3.40
-6.22
-10.28
-15.48
-21.57
-28.19
-34.83
-40.95
-46.08
-49.94
-52.45
-53.63
-53.55
-52.27
-49.84
-46.31
-41.75
-36.09
-29.08
-20.37
-9.67
2.94
16.86
31.00
44.07
54.84
62.34
65.95
65.48
61.21
54.02
45.48
37.61
32.50
31.56
35.12
42.35
51.70
61.58
70.91
79.33
86.93
93.85
99.99
104.94
108.34
110.05
110.28
109.50
108.17
106.60
104.98
103.42
101.98
100.65
99.09
96.67
92.62
86.31
77.58
66.81
54.76
42.28
30.12
18.86
9.07
1.35
-3.73
-5.91
-5.49
-3.40
-1.05
0.15
-0.77
-4.09
-9.36
-15.76
-22.38
-28.60
-34.19
-39.31
-44.22
-49.05
-53.60
-57.28
-59.38
-59.25
-56.69
-52.01
-46.05
-39.78
-33.98
-28.93
-24.26
-19.26
-13.27
-6.14
1.53
8.57
13.69
16.15
16.04
14.30
12.20
10.68
9.93
9.31
7.77
4.56
-0.27
-5.61
-9.73
-10.94
-8.34
-2.34
5.43
12.75
17.69
19.51
19.10
18.70
21.23
29.35
44.48
66.32
92.66
119.52
141.73
153.92
151.92
134.36
103.72
66.21
30.15
3.11
-11.02
-13.49
-9.77
-6.42
-7.57
-12.89
-18.47
-19.95
-16.01
-9.94
-8.15
-16.58
-37.05
-65.95
-95.85
-119.11
-131.29
-132.64
-127.08
-119.66
-114.17
-112.07
-112.90
-115.56
-119.42
-124.66
-131.80
-140.72
-150.03
-157.01
-158.52
-152.20
-137.67
-116.87
-93.47
-71.43
-53.50
-40.19
-29.83
-19.59
-7.12
8.13
24.51
38.74
47.29
47.87
40.38
27.03
11.51
-2.25
-11.32
-14.55
-12.61
-7.56
-1.82
2.59
4.57
4.10
1.84
-1.26
-4.41
-7.13
-9.25
-10.74
-11.63
-12.00
-12.03
-12.07
-12.50
-13.54
-15.06
-16.58
-17.31
-16.56
-13.91
-9.49
-3.85
2.23
8.07
13.27
17.74
21.57
24.80
27.30
28.73
28.72
26.96
23.49
18.72
13.43
8.57
4.96
3.07
2.83
3.67
4.72
5.19
4.59
2.89
0.49
-2.06
-4.27
-5.90
-7.08
-8.24
-9.99
-12.97
-17.61
-23.92
-31.35
-38.75
-44.70
-47.86
-47.53
-43.91
-38.06
-31.50
-25.65
-21.35
-18.67
-17.20
-16.36
-15.90
-15.93
-16.80
-18.78
-21.92
-26.12
-31.03
-36.27
-41.48
-46.35
-50.58
-53.74
-55.37
-55.14
-53.23
-50.25
-47.06
-44.44
-42.65
-41.16
-38.79
-34.11
-26.40
-16.39
-5.90
3.02
8.89
11.73
13.27
16.44
24.67
40.28
62.93
90.48
119.86
147.52
170.12
184.97
190.49
187.54
178.87
167.24
156.12
148.42
143.65
137.32
122.53
93.20
49.05
-3.92
-56.90
-98.78
-119.16
-113.05
-81.59
-30.71
31.39
98.20
164.24
221.99
266.06
294.88
309.10
311.60
306.77
288.15
251.12
211.39
176.87
143.72
111.27
80.63
54.26
34.51
22.15
17.40
18.54
19.89
17.17
9.73
-1.64
-15.45
-30.38
-45.72
-59.85
-71.39
-81.50
-90.84
-98.62
-104.22
-107.49
-108.68
-108.38
-106.38
-102.34
-97.14
-90.99
-82.98
-72.40
-59.13
-43.77
-27.58
-11.85
2.09
12.47
18.37
20.34
19.85
18.93
19.48
22.65
28.47
35.63
41.46
42.65
35.96
18.64
-10.73
-51.32
-99.38
-148.42
-190.52
-218.55
-228.45
-220.50
-198.98
-170.30
-140.63
-114.11
-92.35
-75.26
-62.32
-53.47
-49.09
-49.30
-53.12
-58.37
-62.26
-62.50
-58.37
-50.99
-42.77
-36.18
-32.57
-31.49
-30.96
-28.50
-22.38
-12.51
-0.38
11.64
21.39
27.76
30.97
32.13
32.49
32.66
32.44
30.99
27.51
21.83
14.65
7.36
1.49
-1.92
-2.65
-1.34
0.92
3.14
4.76
5.86
6.83
8.05
9.57
11.15
12.30
12.68
12.20
11.09
9.66
8.13
6.42
4.32
1.65
-1.49
-4.61
-6.95
-7.85
-6.98
-4.54
-1.20
2.18
4.85
6.42
6.81
6.28
5.13
3.66
2.09
0.58
-0.71
-1.66
-2.26
-2.62
-2.98
-3.55
-4.43
-5.44
-6.20
-6.28
-5.39
-3.50
-0.83
2.16
4.97
7.08
8.14
7.93
6.50
4.13
1.21
-1.80
-4.59
-6.92
-8.67
-9.60
-9.45
-7.88
-4.75
-0.24
5.16
10.71
15.65
19.43
21.76
22.62
22.22
20.85
18.83
16.46
13.95
11.47
9.19
7.27
5.85
4.96
4.48
4.15
3.68
2.91
1.82
0.57
-0.62
-1.67
-2.62
-3.59
-4.71
-5.99
-7.42
-8.89
-10.34
-11.76
-13.07
-14.15
-14.84
-14.94
-14.39
-13.20
-11.47
-9.31
-6.81
-4.11
-1.35
1.24
3.39
4.87
5.57
5.53
4.93
4.06
3.24
2.76
2.86
3.71
5.44
8.03
11.29
14.81
18.06
20.56
22.03
22.50
22.27
21.71
21.12
20.60
20.06
19.37
18.47
17.35
16.05
14.54
12.70
10.43
7.72
4.71
1.69
-1.09
-3.38
-4.94
-5.60
-5.22
-3.80
-1.61
0.88
3.12
4.73
5.60
5.93
5.98
5.87
5.54
4.79
3.51
1.83
0.08
-1.34
-2.16
-2.35
-2.04
-1.40
-0.53
0.56
1.89
3.41
4.94
6.24
7.03
7.13
6.52
5.35
3.84
2.29
0.82
-0.60
-2.13
-3.95
-6.10
-8.46
-10.77
-12.76
-14.21
-15.09
-15.44
-15.37
-14.93
-14.18
-13.14
-11.78
-10.09
-8.09
-5.81
-3.36
-0.89
1.40
3.39
4.95
6.08
6.80
7.21
7.43
7.63
7.94
8.44
9.17
10.10
11.18
12.38
13.64
14.92
16.11
17.02
17.46
17.32
16.60
15.44
14.06
12.62
11.18
9.64
7.92
6.01
4.04
2.24
0.79
-0.29
-1.24
-2.41
-4.16
-6.68
-9.91
-13.62
-17.44
-21.01
-23.92
-25.86
-26.60
-26.11
-24.57
-22.31
-19.71
-17.08
-14.51
-12.01
-9.58
-7.36
-5.58
-4.48
-4.15
-4.48
-5.15
-5.79
-6.14
-6.13
-5.81
-5.30
-4.75
-4.28
-3.98
-3.91
-4.07
-4.29
-4.29
-3.80
-2.71
-1.22
0.27
1.32
1.69
1.43
0.87
0.36
0.14
0.21
0.42
0.55
0.45
0.09
-0.54
-1.39
-2.47
-3.76
-5.18
-6.54
-7.52
-7.82
-7.18
-5.51
-2.93
0.23
3.56
6.64
9.21
11.22
12.76
14.02
15.22
16.42
17.64
18.82
19.88
20.79
21.58
22.31
23.09
23.89
24.65
25.22
25.56
25.90
26.79
29.08
33.64
40.98
50.98
62.78
75.09
86.45
95.62
101.63
103.73
101.38
94.37
83.07
68.65
53.03
38.33
26.16
17.19
11.18
7.47
5.61
5.59
7.66
11.90
17.76
24.15
29.88
34.24
37.29
39.79
42.66
46.57
51.56
57.20
62.81
67.75
71.49
73.63
73.79
71.80
67.79
62.44
56.87
52.26
49.04
46.43
42.31
33.98
19.27
-2.39
-29.62
-59.71
-89.65
-117.44
-142.64
-166.25
-190.17
-216.67
-247.89
-285.28
-328.59
-374.92
-418.17
-450.08
-462.60
-450.87
-415.33
-361.69
-298.77
-235.09
-176.12
-123.11
-73.91
-24.95
26.53
80.89
135.36
184.21
220.05
235.74
226.87
193.69
141.54
79.42
17.35
-36.46
-77.37
-104.30
-118.59
-122.45
-118.07
-107.43
-92.67
-76.27
-60.66
-47.49
-37.03
-28.07
-18.57
-6.68
8.34
25.75
43.68
59.99
73.23
83.16
90.75
97.47
104.48
111.86
118.54
122.73
122.79
117.98
108.92
97.44
86.15
77.70
74.19
76.74
85.09
97.68
111.87
124.54
133.05
135.98
133.51
127.24
119.41
112.06
106.36
102.34
99.21
95.89
91.66
86.53
81.33
77.37
75.79
76.99
80.35
84.37
87.23
87.59
85.04
80.15
74.05
67.89
62.32
57.38
52.62
47.30
40.76
32.50
22.10
9.47
-5.38
-22.15
-39.95
-57.53
-73.94
-89.38
-105.61
-125.62
-152.40
-187.22
-228.22
-270.18
-305.48
-326.12
-325.86
-302.00
-256.28
-194.84
-126.97
-63.10
-12.08
21.05
36.01
37.12
31.40
25.86
25.37
31.79
44.38
60.89
78.55
94.10
104.27
105.89
96.50
75.44
44.97
10.31
-21.57
-44.05
-54.16
-52.96
-44.83
-35.49
-29.53
-28.88
-33.15
-40.97
-51.56
-66.59
-88.60
-119.72
-160.71
-210.40
-265.82
-323.05
-377.98
-417.30
-429.06
-404.83
-343.58
-253.70
-150.08
-48.22
40.48
110.79
162.48
197.59
218.19
227.96
228.57
219.47
199.42
167.22
122.83
68.23
7.97
-50.04
-96.04
-118.24
-108.68
-65.67
4.73
91.78
176.94
240.50
270.09
265.50
236.96
198.54
161.72
131.99
109.58
92.07
77.87
67.44
61.99
61.47
63.33
63.95
60.44
52.08
40.29
28.30
19.69
16.51
18.34
22.52
25.83
25.91
22.20
15.73
8.83
3.98
2.66
4.78
8.77
12.62
14.78
14.73
12.92
10.58
9.03
9.11
10.89
13.68
16.56
18.77
20.04
20.53
20.76
21.28
22.39
24.12
26.12
27.88
28.89
28.75
27.25
24.44
20.37
15.26
9.36
2.97
-3.67
-10.32
-16.78
-22.79
-28.09
-32.33
-35.26
-36.73
-36.84
-35.99
-34.71
-33.60
-33.02
-33.04
-33.38
-33.62
-33.37
-32.55
-31.47
-30.70
-30.85
-32.20
-34.55
-37.29
-39.62
-40.99
-41.29
-40.99
-40.92
-41.82
-44.10
-47.86
-52.93
-58.91
-64.90
-69.44
-70.79
-67.45
-59.05
-46.73
-32.91
-20.32
-10.68
-3.72
2.39
9.94
20.29
33.14
46.77
59.19
69.40
76.63
81.33
84.55
87.03
88.65
88.53
85.53
79.20
70.13
59.75
49.90
41.88
36.01
31.80
28.44
25.18
21.38
16.29
9.06
-0.85
-13.13
-26.43
-38.54
-47.16
-50.72
-48.82
-42.14
-31.94
-19.70
-7.13
3.61
9.97
9.76
2.13
-11.54
-27.80
-42.17
-50.82
-51.94
-46.07
-35.47
-22.77
-9.94
2.09
13.06
22.77
30.62
35.69
37.12
34.55
28.40
19.55
9.16
-1.78
-12.41
-22.02
-29.88
-35.25
-37.58
-36.61
-32.55
-26.03
-18.02
-9.65
-1.97
4.27
8.81
11.75
13.44
14.23
14.24
13.49
11.95
9.65
6.84
3.85
1.03
-1.32
-3.00
-3.90
-3.93
-3.06
-1.35
1.12
4.21
7.74
11.57
15.39
18.78
21.28
22.58
22.74
22.20
21.60
21.41
21.76
22.42
23.09
23.80
25.07
27.65
32.09
38.20
44.89
50.34
52.82
51.29
45.91
37.91
29.12
21.29
15.48
11.87
9.84
8.30
6.11
2.41
-3.24
-10.68
-19.20
-27.57
-34.32
-37.97
-37.61
-33.12
-25.32
-15.78
-6.27
1.69
7.31
10.53
11.90
12.09
11.73
11.27
11.05
11.41
12.61
14.74
17.52
20.44
22.94
24.69
25.75
26.53
27.52
28.93
30.50
31.54
31.18
28.84
24.38
18.25
11.22
4.15
-2.26
-7.67
-12.07
-15.73
-19.08
-22.55
-26.46
-30.92
-35.83
-40.87
-45.57
-49.39
-51.91
-52.95
-52.60
-51.11
-48.59
-44.70
-38.55
-28.81
-14.32
5.43
30.10
58.66
89.92
122.96
157.29
192.57
228.18
262.93
295.28
323.69
347.16
365.41
378.78
387.91
393.37
395.53
394.56
390.45
383.02
371.83
356.23
335.48
309.05
276.97
240.08
200.10
159.24
119.89
83.82
51.89
23.86
-1.41
-25.46
-49.65
-74.52
-99.45
-122.71
-142.18
-156.30
-164.99
-169.98
-174.30
-181.02
-191.80
-206.20
-221.95
-236.18
-246.99
-254.69
-261.82
-272.25
-289.68
-316.04
-350.44
-388.97
-425.17
-451.21
-459.76
-446.24
-410.79
-359.15
-301.73
-250.70
-216.00
-201.81
-205.08
-216.94
-226.33
-224.39
-207.58
-178.16
-142.29
-106.94
-77.28
