1700166017.00
64.000000
-0.00
-0.00
-0.00
-0.00
-0.00
-0.00
-0.00
-0.00
-0.00
-0.01
-0.00
0.00
0.01
0.01
-0.00
-0.03
-0.05
-0.05
-0.00
0.13
0.36
0.66
1.01
1.37
1.72
2.06
2.40
2.77
3.24
3.80
4.42
5.06
5.66
6.20
6.68
7.15
7.64
8.31
9.14
10.09
11.04
11.88
12.56
13.14
13.76
14.58
15.96
17.91
20.32
22.90
25.38
27.58
29.57
31.68
34.20
37.81
42.54
48.15
54.10
59.83
64.97
69.58
74.14
79.19
85.71
93.76
103.00
112.62
121.73
129.77
136.75
144.29
150.58
157.77
166.64
177.95
191.79
206.97
220.57
228.25
225.36
208.37
176.87
132.76
80.05
23.07
-34.94
-92.44
-149.16
-205.23
-260.49
-313.74
-363.87
-409.83
-450.91
-486.50
-515.74
-537.23
-549.22
-550.04
-538.37
-514.20
-478.67
-433.88
-382.45
-327.02
-269.84
-212.63
-156.70
-102.95
-52.37
-5.90
35.58
71.43
101.35
125.50
144.38
158.68
169.15
176.37
180.75
182.57
182.07
179.51
175.23
169.65
163.18
156.15
148.81
141.30
133.69
126.02
118.33
110.69
103.16
95.80
88.68
81.83
75.25
68.95
62.95
57.25
51.86
46.78
42.03
37.59
33.45
29.61
26.07
22.81
19.82
17.11
14.67
12.48
10.54
8.83
7.35
6.07
4.97
4.05
3.27
2.62
2.09
1.65
1.30
1.01
0.79
0.61
0.48
0.37
0.28
0.22
0.18
0.14
0.11
0.09
0.08
0.07
0.06
0.05
0.05
0.04
0.04
0.04
0.03
0.03
0.03
0.03
0.03
0.04
0.05
0.06
0.09
0.12
0.16
0.21
0.27
0.34
0.41
0.49
0.58
0.67
0.76
0.85
0.95
1.05
1.15
1.26
1.37
1.49
1.63
1.77
1.93
2.10
2.30
2.51
2.75
3.02
3.33
3.67
4.05
4.47
4.93
5.45
6.01
6.63
7.32
8.07
8.88
9.75
10.69
11.69
12.77
13.92
15.15
16.46
17.87
19.38
20.95
22.60
24.34
26.18
28.17
30.30
32.55
34.89
37.30
39.63
41.84
43.84
45.51
46.68
47.12
46.60
44.90
41.85
37.18
30.92
23.21
14.35
4.73
-5.20
-15.00
-24.31
-32.30
-39.18
-44.91
-49.42
-52.63
-54.50
-55.13
-54.72
-53.91
-52.89
-52.11
-51.78
-51.92
-52.28
-52.60
-52.62
-52.31
-51.89
-51.76
-52.50
-54.37
-57.27
-60.60
-63.58
-65.41
-65.59
-64.17
-61.68
-59.01
-56.84
-55.74
-55.01
-53.70
-50.72
-45.34
-37.61
-28.63
-20.70
-16.78
-19.55
-29.64
-44.70
-59.02
-65.43
-57.97
-34.73
1.10
42.36
80.29
107.16
117.94
111.19
89.26
57.94
25.45
0.36
-11.07
-7.22
8.12
27.60
43.64
51.85
52.67
50.24
49.66
54.30
64.04
75.22
82.39
80.03
64.35
34.55
-6.81
-54.37
-100.73
-138.16
-160.28
-163.25
-147.16
-115.98
-76.23
-35.81
-1.89
20.97
31.82
32.65
27.72
21.38
17.10
17.83
25.35
40.46
62.94
91.64
121.93
149.47
170.57
183.46
189.36
190.59
189.08
184.99
176.87
162.75
142.20
117.01
87.17
57.20
32.61
16.92
9.56
7.59
7.84
8.77
10.10
12.20
16.13
21.96
29.03
35.20
38.71
38.97
36.33
32.01
27.48
24.50
24.02
26.10
28.20
27.91
24.13
17.60
10.28
4.25
1.09
0.81
4.47
8.08
7.16
-1.11
-16.63
-36.96
-58.92
-79.89
-98.54
-115.26
-135.59
-165.08
-206.93
-260.94
-324.89
-396.23
-472.51
-550.28
-602.52
-607.39
-556.69
-461.58
-345.14
-230.83
-135.01
-64.95
-19.34
8.36
22.56
26.23
21.20
9.76
-4.75
-18.02
-26.93
-28.17
-20.85
-9.26
1.01
5.46
2.83
-5.21
-14.99
-22.92
-26.32
-24.34
-19.50
-15.14
-13.51
-14.10
-17.02
-19.58
-18.65
-11.76
1.70
19.66
38.67
55.50
68.54
78.10
86.41
96.05
109.01
126.10
147.15
171.72
199.35
228.80
257.24
280.25
292.27
288.57
267.14
229.71
181.19
128.25
77.73
35.49
6.39
-6.17
-0.32
23.47
61.52
106.47
148.00
175.06
179.11
157.58
115.08
62.49
13.20
-21.67
-37.13
-34.80
-20.64
-0.98
20.85
45.32
74.83
110.48
149.54
185.33
209.23
213.76
195.33
155.57
100.69
39.64
-18.31
-65.63
-97.89
-113.99
-115.75
-106.67
-90.61
-70.53
-47.93
-23.33
2.35
26.63
45.05
52.43
45.26
24.03
-6.25
-37.29
-60.62
-70.65
-66.28
-50.41
-28.07
-4.21
17.53
34.83
46.15
50.08
45.35
31.38
8.89
-19.82
-51.29
-81.85
-108.58
-129.80
-144.86
-153.69
-156.06
-151.51
-139.74
-121.28
-98.22
-74.25
-54.20
-42.61
-42.31
-52.99
-71.19
-90.99
-105.95
-111.12
-104.28
-86.21
-59.77
-28.58
4.11
35.77
64.31
87.67
103.92
111.87
111.81
106.05
98.49
93.28
93.45
99.83
110.94
123.46
133.64
138.40
136.21
127.37
113.62
97.34
80.58
64.40
48.70
32.47
14.27
-7.09
-32.09
-60.19
-89.80
-118.54
-143.64
-162.53
-173.26
-174.79
-167.27
-151.81
-130.33
-105.22
-79.03
-54.21
-32.57
-15.20
-2.21
7.19
14.33
20.31
25.79
30.78
35.06
38.69
42.23
46.58
52.11
58.03
62.17
61.87
55.32
42.86
27.30
13.15
4.88
5.14
13.64
27.22
40.81
49.01
47.29
33.17
6.68
-29.51
-70.61
-110.57
-143.29
-164.13
-170.75
-163.38
-144.24
-116.82
-84.82
-51.62
-19.92
8.32
31.73
49.50
61.32
67.51
68.91
66.74
62.45
57.27
52.16
47.59
43.74
40.63
38.21
36.35
34.72
32.80
29.64
24.31
16.15
5.18
-7.63
-20.50
-31.28
-38.27
-40.90
-39.92
-36.91
-33.42
-30.02
-26.00
-19.84
-10.19
3.17
19.00
35.11
49.30
60.44
68.61
74.73
79.57
83.19
84.90
83.88
80.05
74.06
67.17
60.45
54.42
48.86
43.39
38.03
33.34
30.33
29.70
31.23
33.57
34.54
32.02
24.90
13.70
0.54
-11.52
-19.60
-22.37
-20.69
-17.54
-16.73
-21.26
-31.79
-46.23
-60.36
-69.55
-70.50
-62.46
-47.48
-29.39
-12.56
-0.51
5.00
4.21
-1.03
-7.71
-12.27
-11.40
-2.92
13.46
35.88
60.90
84.68
104.43
119.20
129.64
136.88
141.24
141.45
134.82
118.67
91.75
55.48
13.88
-27.51
-63.56
-90.86
-108.43
-117.24
-119.01
-115.36
-107.45
-96.55
-84.70
-74.64
-68.82
-68.10
-70.94
-73.75
-72.56
-64.87
-50.88
-33.38
-16.37
-3.43
3.78
5.90
5.50
5.78
9.37
17.27
28.63
41.37
53.01
61.73
66.88
69.00
68.82
66.91
63.22
57.40
49.40
39.81
29.84
20.66
12.77
5.68
-1.59
-9.75
-18.53
-26.73
-32.99
-36.87
-39.62
-43.96
-52.85
-67.69
-87.00
-106.74
-121.46
-126.52
-119.90
-102.82
-79.14
-53.75
-31.15
-14.40
-4.68
-1.36
-2.63
-6.06
-9.27
-10.54
-9.11
-5.18
0.43
6.72
12.89
18.40
22.81
25.62
26.40
25.02
21.97
18.24
15.05
13.04
11.84
10.17
6.72
0.70
-7.23
-15.33
-21.55
-24.60
-24.64
-23.08
-21.79
-21.94
-23.43
-24.78
-24.08
-19.99
-12.50
-3.08
5.98
12.41
14.95
13.70
9.90
5.39
1.81
0.08
0.30
2.05
4.86
8.43
12.79
17.90
23.49
28.84
33.09
35.30
34.91
31.81
26.32
19.09
10.93
2.76
-4.58
-10.39
-14.33
-16.51
-17.62
-18.67
-20.61
-23.79
-27.62
-30.75
-31.52
-28.72
-22.08
-12.37
-1.21
9.63
18.66
25.07
28.88
30.81
32.04
33.59
35.94
38.77
41.23
42.47
42.31
41.37
40.79
41.53
43.73
46.58
48.69
48.72
45.94
40.43
32.86
24.26
15.60
7.60
0.58
-5.42
-10.65
-15.24
-19.09
-21.73
-23.01
-23.24
-23.43
-24.89
-28.27
-33.01
-37.18
-38.42
-35.12
-27.30
-16.64
-5.69
3.25
9.06
11.86
12.51
11.88
10.34
7.79
4.07
-0.51
-5.13
-8.57
-9.86
-8.60
-5.13
-0.28
5.21
10.87
16.66
22.77
29.35
35.95
41.68
45.44
46.44
44.86
41.90
39.32
38.53
39.68
41.42
41.37
37.38
28.65
16.49
3.86
-5.78
-9.78
-7.48
-0.18
9.45
18.62
25.19
28.39
28.62
26.99
24.71
22.64
21.14
20.02
18.73
16.53
12.88
7.46
0.50
-7.28
-14.97
-21.75
-27.26
-31.57
-35.13
-38.39
-41.61
-44.85
-48.12
-51.47
-54.87
-58.05
-60.48
-61.47
-60.77
-58.92
-57.25
-57.24
-60.04
-65.44
-71.97
-77.32
-79.14
-76.01
-67.78
-55.73
-41.97
-28.71
-17.41
-8.37
-0.79
6.62
14.82
23.84
32.76
40.19
45.01
46.91
46.41
44.18
40.70
36.00
30.00
23.06
16.26
11.12
8.72
9.05
10.92
12.71
13.01
11.44
8.49
4.89
0.98
-3.53
-9.18
-16.16
-23.84
-30.76
-35.11
-35.48
-31.38
-23.51
-13.55
-3.69
4.06
8.39
9.22
7.68
5.72
5.03
6.41
9.36
12.46
14.35
14.60
14.03
14.02
15.50
18.14
20.53
20.81
18.10
13.04
7.51
3.55
2.17
2.84
3.88
3.58
1.14
-3.07
-8.03
-12.84
-17.22
-21.36
-25.34
-28.55
-29.90
-28.36
-23.66
-16.54
-8.68
-1.67
3.47
6.60
8.24
9.15
9.93
10.83
11.80
12.61
13.06
12.89
11.90
10.03
7.47
4.81
2.96
2.72
4.41
7.60
11.22
13.82
14.32
12.36
8.46
3.84
-0.18
-2.63
-3.47
-3.61
-4.60
-7.86
-14.17
-23.08
-32.88
-41.00
-44.82
-42.54
-33.95
-21.03
-7.97
-0.45
-3.77
-20.64
-49.35
-83.52
-114.01
-131.90
-131.69
-113.03
-80.24
-40.14
0.55
36.57
64.71
83.25
91.55
90.33
81.95
70.34
59.99
54.44
55.07
61.03
69.86
78.48
84.02
84.21
77.62
63.73
43.63
20.14
-2.51
-19.91
-28.91
-28.91
-21.86
-11.14
-0.07
9.54
17.56
24.91
32.46
40.19
47.39
53.09
56.85
58.94
60.03
60.69
60.99
60.58
58.98
56.00
51.86
47.13
42.38
37.94
33.78
29.70
25.59
21.26
16.50
10.96
4.20
-4.06
-13.61
-23.67
-33.07
-40.53
-45.18
-46.63
-45.22
-41.86
-37.96
-35.24
-35.34
-39.42
-47.52
-58.46
-70.02
-79.62
-85.14
-85.62
-81.42
-73.93
-64.97
-56.13
-48.46
-42.37
-37.59
-33.44
-29.14
-24.20
-18.82
-13.76
-9.98
-8.05
-7.89
-8.85
-10.34
-12.22
-14.98
-19.29
-25.41
-32.94
-40.85
-47.93
-53.14
-56.14
-57.05
-56.43
-54.99
-53.44
-52.42
-52.43
-53.57
-55.41
-56.91
-56.63
-53.12
-45.53
-33.93
-19.41
-3.79
11.06
23.63
33.23
39.96
44.55
47.70
49.99
51.67
52.67
52.87
52.13
50.48
47.99
44.84
41.19
37.31
33.43
29.83
26.82
24.62
23.35
22.88
22.73
22.20
20.55
17.43
12.94
7.84
3.05
-0.70
-3.28
-5.07
-6.58
-8.07
-9.25
-9.50
-8.19
-5.45
-2.00
1.06
2.82
3.16
2.67
2.29
2.63
3.61
4.41
4.20
2.59
0.10
-2.08
-2.69
-1.01
2.84
7.92
12.99
17.00
19.44
20.08
18.95
16.18
12.00
6.97
2.00
-1.91
-4.10
-4.65
-4.31
-4.18
-5.37
-8.51
-13.67
-20.37
-27.63
-34.04
-38.07
-38.31
-34.01
-25.46
-14.08
-2.05
8.37
15.76
19.93
21.85
23.08
24.81
27.32
30.02
32.06
32.69
31.95
30.34
28.53
26.87
25.32
23.60
21.58
19.33
17.06
14.95
12.92
10.75
8.36
5.90
3.82
2.62
2.74
4.51
8.19
13.99
21.74
30.55
38.49
43.03
41.82
33.88
20.29
4.15
-10.55
-20.26
-22.94
-18.62
-8.84
4.13
18.00
30.86
41.25
48.05
50.55
48.72
43.47
36.69
30.83
27.95
28.89
32.62
36.34
36.21
28.87
12.66
-11.55
-40.50
-69.61
-94.29
-111.32
-119.36
-118.70
-110.42
-96.01
-76.78
-54.16
-29.97
-6.48
13.76
28.48
36.27
37.06
32.10
23.81
15.05
8.45
5.79
7.70
13.77
22.91
33.77
45.04
55.53
64.24
70.00
71.89
69.36
62.63
52.90
42.10
32.20
24.49
19.08
14.94
10.47
4.20
-4.56
-15.52
-27.58
-39.20
-49.09
-56.52
-61.46
-64.31
-65.42
-64.91
-62.66
-58.89
-54.52
-51.17
-50.48
-53.04
-57.88
-62.66
-64.66
-62.12
-55.03
-45.09
-34.72
-26.07
-20.23
-17.40
-17.09
-18.66
-21.49
-24.82
-28.00
-30.37
-31.65
-31.84
-31.11
-29.50
-26.92
-23.34
-18.92
-14.25
-9.85
-6.10
-2.78
0.69
4.86
9.87
15.09
19.48
21.90
21.63
18.55
13.22
6.50
-0.77
-8.02
-14.71
-20.05
-22.93
-21.99
-16.22
-5.54
8.83
24.54
38.85
49.49
55.41
56.94
55.34
52.07
48.16
44.00
39.61
35.09
30.92
27.75
26.15
26.22
27.52
29.04
29.74
28.92
26.58
23.39
20.30
18.13
17.15
17.03
17.05
16.52
14.91
11.79
6.76
-0.54
-10.09
-21.03
-31.60
-39.50
-42.82
-40.77
-34.29
-25.46
-16.70
-9.73
-5.13
-2.42
-0.56
1.25
3.33
5.42
7.10
8.17
8.89
9.97
12.13
15.95
21.16
26.95
32.15
35.75
37.34
37.10
35.57
33.06
29.54
24.78
18.91
12.68
7.29
3.79
2.41
2.34
1.86
-0.60
-5.72
-12.71
-19.56
-23.86
-23.82
-19.13
-10.82
-0.83
9.18
18.35
27.04
36.13
46.26
57.14
66.90
72.52
70.40
57.73
33.93
1.52
-33.71
-64.00
-81.88
-82.72
-66.33
-36.97
-1.58
32.77
61.15
81.46
93.86
99.39
98.89
92.81
81.52
65.76
46.44
24.15
-1.09
-29.75
-61.76
-95.66
-128.08
-154.37
-170.00
-172.21
-160.95
-138.83
-110.22
-79.81
-51.52
-28.10
-10.88
-0.05
5.30
7.06
7.93
10.74
17.40
28.03
40.71
52.25
59.44
60.69
56.78
50.62
46.11
46.60
53.58
66.22
81.91
97.41
110.04
118.48
122.75
123.72
122.41
119.68
116.42
113.91
114.15
119.57
132.19
152.14
177.06
202.15
221.59
230.58
226.94
211.82
188.74
162.02
134.86
108.72
83.25
57.50
30.93
3.89
-22.72
-48.10
-71.88
-94.18
-115.13
-134.81
-153.52
-172.27
-192.82
-216.99
-245.35
-275.98
-304.52
-325.35
-333.71
-327.68
-308.58
-280.38
-248.15
-216.73
-190.17
-171.72
-163.86
-167.88
-183.04
-205.86
-230.26
-248.88
-254.99
-244.36
-216.11
-172.55
-118.47
-60.16
-4.73
40.78
70.60
81.89
75.79
57.87
36.80
21.95
20.58
35.80
65.93
105.40
146.79
182.77
207.89
219.33
217.17
203.92
183.80
161.82
142.66
129.71
124.20
124.73
127.63
127.79
120.29
101.96
72.64
35.40
-4.18
-39.41
-64.30
-74.88
-70.07
-51.62
-24.14
6.08
32.13
48.01
50.11
38.23
15.68
-11.86
-37.89
-56.70
-64.22
-58.26
-38.44
-6.44
33.46
74.10
106.29
121.10
113.09
83.05
38.64
-7.94
-44.14
-61.53
-58.15
-38.08
-8.60
22.85
50.73
71.66
83.64
85.57
77.08
59.40
35.69
10.84
-9.89
-22.50
-25.53
-20.35
-10.53
-0.81
4.25
1.23
-11.29
-32.16
-57.65
-81.91
-97.98
-99.30
-81.42
-43.54
10.41
71.81
128.98
170.35
187.84
179.51
150.04
108.53
65.18
27.95
0.54
-17.38
-28.76
-37.76
-48.66
-65.29
-90.09
-123.30
-161.92
-200.16
-230.99
-248.51
-249.84
-235.50
-208.52
-172.69
-131.53
-88.23
-46.27
-9.67
17.68
33.33
37.43
32.67
23.29
13.51
6.28
3.09
4.24
9.23
16.94
25.71
33.18
36.61
33.73
23.37
6.31
-14.39
-33.51
-44.95
-43.22
-25.58
6.74
48.52
91.98
129.08
153.40
161.22
151.44
125.10
84.87
35.08
-18.38
-68.71
-109.53
-136.49
-148.33
-146.77
-135.22
-117.09
-94.82
-69.67
-42.20
-12.63
18.91
52.41
87.56
122.81
154.83
178.76
189.78
185.08
165.50
135.41
100.99
67.70
38.33
12.65
-11.43
-35.89
-61.10
-85.35
-105.79
-119.59
-125.06
-122.18
-112.24
-97.14
-78.57
-57.70
-35.25
-11.92
11.08
32.03
49.10
61.11
67.97
70.71
71.03
70.40
69.35
67.38
63.41
56.36
46.07
33.53
20.64
9.39
1.04
-4.41
-8.06
-11.48
-15.91
-21.69
-28.42
-35.26
-41.25
-45.45
-46.82
-44.36
-37.52
-26.87
-14.43
-3.42
2.70
1.75
-6.16
-18.26
-29.96
-36.47
-34.47
-23.45
-6.18
12.08
25.32
28.75
20.61
2.86
-19.57
-40.60
-55.14
-60.58
-57.06
-46.44
-30.94
-12.33
8.27
29.59
49.55
65.47
74.94
77.18
73.63
67.64
63.00
62.61
67.12
75.12
83.78
89.96
91.13
85.80
73.54
54.79
30.84
3.84
-23.29
-47.37
-65.70
-76.82
-80.88
-79.20
-73.49
-65.19
-55.11
-43.88
-32.21
-21.30
-12.22
-5.50
-0.59
3.84
9.20
16.19
24.60
33.64
42.55
51.12
59.39
67.25
73.83
77.36
75.64
66.76
49.74
24.97
-5.72
-39.39
-72.52
-102.06
-126.29
-145.23
-160.35
-173.38
-185.14
-194.79
-200.05
-198.33
-188.01
-169.24
-143.77
-114.31
-83.55
-53.42
-24.92
1.57
26.04
48.34
68.00
84.02
95.07
99.91
98.46
92.26
84.41
78.61
77.57
81.70
88.93
95.62
98.09
94.15
83.51
67.49
48.40
28.92
11.59
-1.34
-8.34
-8.85
-3.40
6.30
18.05
29.63
39.27
45.68
48.06
45.90
39.17
28.63
15.93
3.48
-6.19
-11.50
-12.35
-10.39
-8.26
-8.50
-12.35
-19.21
-26.72
-31.73
-31.76
-25.95
-15.51
-3.36
6.89
12.13
10.76
3.18
-8.44
-21.04
-31.68
-38.59
-41.49
-41.31
-39.55
-37.71
-37.19
-38.99
-43.72
-51.02
-59.15
-65.05
-65.21
-57.38
-41.84
-21.92
-2.71
10.83
16.08
13.66
6.83
0.06
-3.14
-1.14
5.23
13.38
20.07
22.54
19.53
11.61
1.03
-8.93
-14.76
-13.75
-4.91
10.54
29.17
46.29
56.96
57.99
48.86
32.07
12.11
-6.33
-20.15
-29.06
-35.25
-42.16
-52.42
-66.76
-83.42
-98.93
-109.38
-111.49
-103.52
-85.21
-57.67
-23.24
14.63
51.33
81.81
101.56
108.04
101.90
86.99
68.93
52.68
40.69
32.40
25.57
17.82
8.23
-2.22
-11.41
-17.53
-20.31
-21.08
-22.02
-25.01
-30.86
-39.60
-50.44
-62.36
-74.45
-86.10
-96.73
-105.43
-110.87
-111.75
-108.20
-101.58
-94.32
-88.71
-85.66
-83.97
-80.57
-72.13
-52.67
-22.08
13.54
44.61
63.63
68.45
62.19
50.25
37.59
27.83
22.18
21.62
27.38
40.58
60.76
84.74
106.85
120.80
120.11
103.04
74.33
42.61
15.61
-3.57
-16.16
-24.63
-28.97
-25.16
-8.80
21.40
61.78
104.82
142.39
169.40
185.05
185.73
173.20
151.44
124.42
94.97
65.05
36.90
15.22
2.91
2.27
14.56
37.86
66.62
93.27
110.53
112.25
97.14
68.92
35.29
5.47
-14.00
-21.45
-19.71
-13.76
-8.25
-5.43
-5.44
-6.98
-8.51
-9.69
-11.42
-14.98
-20.87
-28.23
-34.96
-39.16
-39.98
-37.95
-34.80
-32.59
-32.41
-33.86
-35.51
-36.10
-35.47
-34.54
-34.49
-35.65
-37.55
-39.04
-38.90
-36.60
-32.73
-28.39
-24.47
-21.04
-17.07
-12.13
-6.35
-0.09
5.95
10.62
12.72
11.31
6.16
-1.07
-8.85
-15.59
-19.62
-20.13
-18.31
-16.84
-19.13
-27.94
-43.06
-63.68
-87.83
-112.51
-128.52
-128.19
-107.99
-71.29
-34.37
-4.41
15.77
25.15
25.73
17.71
0.68
-24.41
-54.69
-85.67
-112.01
-131.83
-146.19
-156.56
-162.67
-161.84
-149.88
-123.97
-84.86
-36.47
13.38
56.39
86.82
102.49
103.97
93.26
72.71
45.24
17.04
-4.80
-14.21
-8.93
8.68
33.31
59.34
82.55
100.61
113.25
120.86
124.29
124.54
122.91
120.64
118.79
117.87
117.88
118.71
120.01
121.34
122.22
122.48
122.27
121.83
121.25
120.43
118.52
114.56
107.69
97.31
83.52
67.34
50.62
35.74
24.62
18.71
18.58
23.81
33.18
45.30
59.10
74.10
90.39
107.57
124.71
139.99
150.71
153.74
146.34
126.79
94.31
52.42
4.10
-48.24
-103.10
-159.98
-219.09
-280.88
-345.71
-413.35
-482.10
-548.42
-606.24
-647.79
-665.99
-657.10
-622.40
-568.12
-503.11
-435.68
-371.56
-312.91
-259.13
-208.59
-160.18
-114.06
-71.49
-34.37
-4.64
16.22
28.02
32.23
31.30
27.34
21.11
11.90
-1.27
-17.85
-34.98
-47.93
-52.25
-46.05
-31.01
-11.42
7.88
23.80
35.80
45.37
54.75
65.57
78.40
93.01
109.09
126.27
144.12
162.08
179.33
195.01
208.47
219.78
229.74
240.24
254.07
274.15
302.00
335.98
370.45
396.36
404.05
386.97
344.55
282.95
212.79
145.25
88.52
46.37
18.73
3.67
-1.32
0.84
6.43
10.54
8.08
-4.35
-26.57
-54.70
-82.03
-101.55
-108.52
-101.95
-84.85
-63.06
-43.52
-32.22
-32.39
-43.38
-60.82
-77.96
-87.79
-85.41
-69.40
-41.94
-7.86
26.98
57.31
79.47
91.54
93.17
85.04
68.59
46.09
20.83
-2.80
-20.05
-27.17
-22.99
-9.54
8.01
23.19
30.44
26.86
12.84
-8.51
-32.72
-55.32
-72.67
-82.57
-84.69
-81.00
-75.61
-73.51
-78.44
-90.73
-106.47
-118.70
-120.35
-107.50
-80.84
-45.58
-8.87
22.91
46.08
59.98
66.02
66.25
62.10
54.21
42.76
28.38
12.83
-0.75
-8.42
-6.72
5.90
27.97
55.16
81.32
100.35
107.82
101.74
82.36
51.42
11.75
-32.77
-77.02
-114.99
-141.31
-153.26
-152.51
-144.83
-138.28
-139.41
-150.30
-167.24
-182.26
-187.00
-176.63
-152.49
-121.71
-94.07
-77.57
-75.02
-82.88
-93.09
-97.02
-89.22
-69.66
-43.02
-15.87
6.96
24.53
39.52
56.35
78.45
106.92
140.39
176.12
210.90
241.37
264.02
275.60
274.34
260.91
239.17
214.94
193.92
179.49
171.64
167.78
164.69
160.48
155.47
151.87
152.26
158.17
169.08
182.42
194.40
201.26
200.70
192.68
179.37
164.35
150.69
140.06
132.10
125.11
117.43
107.92
96.03
80.91
61.16
35.62
5.09
-26.41
-51.86
-63.66
-57.17
-33.19
2.15
40.24
74.20
101.75
124.99
147.74
171.97
195.73
214.00
221.45
215.47
197.41
171.75
143.72
116.97
92.76
70.14
47.61
24.28
-0.06
-25.29
-51.94
-81.53
-115.72
-154.72
-195.77
-233.08
-259.40
-268.92
-259.69
-234.50
-199.69
-162.90
-130.60
-106.95
-93.85
-91.71
-100.36
-119.56
-149.21
-189.05
-238.12
-293.66
-350.25
-399.76
-432.67
-440.71
-419.63
-371.32
-303.62
-228.48
-158.85
-105.35
-73.95
-65.17
-74.73
-95.55
-119.97
-141.41
-155.38
-159.46
-153.18
-137.63
-115.30
-89.81
-65.09
-44.06
-27.54
-14.08
-1.40
11.90
24.88
34.87
39.55
39.16
37.14
38.30
45.77
58.58
71.83
79.26
77.31
67.52
56.29
51.17
56.19
68.84
80.97
82.95
68.80
39.42
2.18
-32.52
-55.73
-63.07
-55.28
-36.68
-12.55
12.58
35.81
55.85
72.38
85.98
97.62
108.08
117.26
123.49
123.66
114.05
91.79
56.52
11.29
-37.68
-82.45
-115.83
-133.51
-135.22
-124.25
-105.85
-85.11
-65.46
-48.22
-33.16
-19.44
-6.44
5.86
17.02
26.50
33.49
36.93
35.52
28.23
15.24
-1.47
-18.21
-30.74
-35.95
-33.18
-24.43
-13.10
-2.09
8.03
19.50
36.09
60.41
91.35
123.20
146.93
153.47
137.31
99.02
45.36
-12.87
-64.35
-100.92
-119.40
-121.35
-110.94
-92.59
-69.23
-42.27
-12.88
16.50
41.39
56.17
55.96
39.26
9.54
-25.06
-54.00
-67.88
-61.77
-37.15
-1.48
34.49
60.41
69.70
61.31
39.28
10.75
-16.66
-36.97
-46.83
-45.25
-32.69
-10.27
20.46
57.37
97.36
136.17
168.72
189.95
195.94
184.91
158.18
120.33
78.56
40.90
14.34
3.17
8.18
26.79
53.45
80.54
99.62
103.52
89.02
58.56
20.52
-13.49
-33.11
-33.45
-17.13
7.15
28.79
39.79
37.72
26.17
12.35
3.90
5.99
19.66
42.17
68.56
94.06
115.76
133.13
147.15
158.80
168.17
174.50
177.33
177.50
177.13
178.26
181.35
184.13
182.16
170.94
147.95
113.98
72.86
29.72
-10.89
-46.01
-74.37
-95.10
-106.71
-107.23
-95.42
-72.46
-43.23
-15.56
1.96
2.93
-14.70
-47.79
-89.13
-129.40
-159.45
-172.44
-165.32
-139.94
-103.01
-64.54
-34.90
-21.55
-26.32
-44.97
-69.11
-89.34
-98.73
-94.80
-79.41
-57.34
-33.98
-13.84
0.38
7.50
7.66
2.14
-6.75
-15.70
-21.27
-20.82
-13.54
-0.74
14.27
27.53
35.70
37.16
32.66
24.88
17.58
14.15
16.25
22.98
31.05
35.82
33.01
20.51
-0.76
-27.01
-52.97
-73.48
-85.04
-86.60
-79.38
-66.60
-52.53
-41.74
-38.05
-43.36
-56.71
-74.08
-89.15
-95.00
-86.27
-60.74
-20.25
29.92
82.65
130.92
169.37
194.82
206.18
203.77
188.85
163.62
131.34
96.37
63.47
36.65
18.01
7.15
1.39
-2.70
-7.83
-14.87
-22.80
-29.80
-34.49
-36.86
-38.16
-40.15
-44.09
-50.05
-57.00
-63.31
-67.51
-68.88
-67.59
-64.90
-62.81
-63.54
-68.58
-78.04
-89.93
-100.46
-105.27
-100.93
-86.48
-63.84
-37.24
-11.66
8.85
22.46
29.78
33.25
35.94
40.35
47.73
58.00
70.20
83.06
95.44
106.54
115.35
120.78
121.51
116.57
106.03
91.30
74.85
59.27
46.20
35.84
27.35
19.45
11.47
3.70
-2.98
-7.73
-10.47
-12.03
-13.86
-17.37
-23.29
-31.34
-40.43
-49.28
-56.90
-63.02
-67.83
-71.71
-74.65
-76.10
-75.20
-71.06
-63.63
-53.82
-43.52
-34.94
-29.77
-28.58
-30.48
-33.63
-35.84
-35.29
-30.81
-21.94
-8.64
9.01
30.75
55.85
82.57
108.17
129.19
142.38
145.69
138.91
123.51
101.82
76.12
47.90
18.18
-12.02
-40.93
-65.90
-83.89
-92.41
-90.54
-79.16
-60.80
-38.88
-16.90
2.12
16.06
23.69
24.65
19.44
9.37
-3.41
-16.58
-28.08
-36.61
-41.53
-42.99
-41.10
-35.70
-26.27
-12.17
6.72
29.38
53.36
75.23
91.38
99.33
98.63
91.10
80.37
70.69
65.55
66.39
72.00
78.74
81.54
75.67
57.99
28.49
-9.78
-51.44
-90.44
-121.97
-143.55
-155.46
-159.88
-159.51
-156.24
-150.74
-142.51
-130.61
-114.25
-93.14
-67.71
-39.07
-9.24
18.95
42.14
57.10
61.81
56.26
42.74
25.37
8.91
-2.72
-7.69
-6.36
-0.88
6.15
12.33
16.36
17.88
17.23
15.12
12.29
9.37
6.46
2.94
-2.47
-11.14
-23.59
-38.71
-53.65
-64.61
-68.30
-63.37
-51.14
-35.10
-19.80
-9.08
-5.18
-8.02
-15.46
-24.08
-30.17
-30.88
-25.15
-14.27
-1.31
10.03
17.12
19.20
17.74
15.27
13.94
14.48
15.91
16.46
14.65
10.08
3.40
-4.39
-12.93
-22.87
-35.43
-51.31
-69.62
-87.67
-101.94
-109.62
-109.96
-104.36
-95.68
-86.38
-77.50
-68.48
-58.09
-45.68
-31.96
-19.07
-9.56
-5.14
-5.66
-9.24
-12.58
-12.19
-5.59
7.95
26.88
47.80
66.57
79.77
85.88
85.74
81.98
77.62
74.87
74.18
74.49
73.98
71.28
66.03
59.00
51.80
45.71
41.40
38.54
36.15
33.08
28.64
22.90
16.38
9.70
3.21
-3.01
-8.98
-14.39
-18.62
-21.13
-22.04
-22.47
-24.16
-28.51
-35.52
-43.35
-49.09
-49.94
-44.74
-34.38
-21.25
-7.87
4.02
13.90
21.98
28.34
32.80
34.55
33.06
28.40
21.47
13.94
7.63
4.05
3.74
6.09
9.65
12.82
14.52
14.55
13.45
11.80
9.78
6.88
2.28
-4.46
-12.92
-21.74
-29.48
-35.18
-39.00
-42.01
-45.40
-49.67
-54.05
-56.90
-56.40
-51.42
-41.83
-28.76
-13.87
1.20
15.25
27.63
37.93
45.65
50.15
50.86
47.71
41.48
33.71
26.26
20.76
18.12
18.43
21.08
25.01
28.98
31.79
32.55
30.51
25.57
18.26
9.77
1.83
-3.87
-6.20
-5.18
-2.17
0.52
0.46
-3.95
-12.72
-24.07
-34.94
-42.01
-42.91
-37.04
-25.73
-11.71
1.84
12.24
18.04
19.16
16.79
12.85
9.30
7.52
7.78
9.33
10.81
11.23
10.28
8.78
8.03
9.00
11.77
15.38
18.43
19.77
19.09
16.87
14.01
11.25
8.91
6.87
4.93
3.02
1.22
-0.49
-2.34
-4.89
-8.68
-13.97
-20.32
-26.63
-31.33
-32.97
-30.77
-24.87
-16.46
-7.35
0.54
5.88
8.09
7.53
5.19
2.30
-0.07
-1.33
-1.37
-0.45
1.04
2.78
4.61
6.39
7.93
8.96
9.24
8.71
7.63
6.40
5.43
4.88
4.69
4.46
3.88
2.84
1.64
0.84
0.92
1.83
2.67
1.93
-1.77
-8.71
-17.44
-25.06
-28.37
-25.34
-16.08
-2.92
10.65
21.51
27.98
30.25
29.54
27.31
24.37
20.85
16.61
11.83
7.33
4.04
2.53
2.58
3.38
3.72
2.85
0.72
-2.02
-4.26
-5.05
-4.02
-1.69
0.67
1.49
-0.38
-5.13
-11.97
-19.52
-26.72
-33.34
-40.00
-47.56
-56.06
-64.21
-69.56
-69.85
-63.93
-52.57
-38.05
-23.16
-10.11
0.15
7.59
12.65
15.66
16.83
16.25
14.29
11.59
8.99
7.32
7.12
8.51
11.09
13.98
15.99
15.99
13.30
7.98
0.98
-6.29
-12.30
-16.03
-17.23
-16.39
-14.34
-11.80
-9.43
-7.61
-6.72
-7.09
-8.86
-11.70
-14.58
-16.15
-15.17
-11.10
-4.33
3.87
11.84
18.16
21.98
23.34
22.99
22.11
21.92
23.10
25.58
28.32
29.88
29.02
25.48
20.22
14.94
11.32
9.95
10.10
10.22
9.01
5.84
1.28
-3.60
-7.92
-11.31
-13.91
-15.98
-17.67
-19.09
-20.55
-22.61
-26.04
-31.31
-38.10
-45.17
-50.53
-52.09
-48.43
-39.37
-26.12
-10.88
3.55
14.86
21.70
24.11
23.41
21.62
20.58
21.16
22.93
24.54
24.67
22.52
18.50
13.85
10.02
8.01
8.04
9.67
12.19
14.94
17.40
19.11
19.46
17.77
13.67
7.39
-0.04
-7.06
-12.33
-15.23
-16.18
-16.36
-17.49
-20.89
-27.15
-35.75
-45.00
-52.48
-55.65
-52.96
-44.52
-32.29
-19.26
-8.38
-1.26
2.42
4.41
6.88
11.23
17.45
24.36
30.41
34.56
36.52
36.73
35.78
34.09
31.82
28.99
25.82
22.53
19.32
16.25
13.37
10.47
7.47
4.23
0.65
-3.14
-6.77
-9.68
-11.39
-11.91
-11.96
-12.72
-15.40
-20.64
-28.11
-36.74
-45.04
-51.58
-55.27
-55.24
-50.96
-42.16
-29.56
-14.70
0.04
12.28
20.54
24.85
26.63
27.69
29.18
31.00
32.07
31.09
27.67
22.77
18.25
15.93
16.51
19.27
22.44
24.23
23.80
21.51
18.57
16.11
14.54
13.43
11.90
9.38
5.87
1.99
-1.45
-3.78
-5.05
-5.80
-6.91
-9.27
-13.39
-19.32
-26.45
-33.82
-40.15
-44.12
-44.56
-40.73
-32.60
-20.94
-7.32
6.27
17.92
26.39
31.41
33.69
34.44
34.60
34.52
33.76
31.67
27.97
23.23
18.75
15.72
14.61
14.71
14.70
13.12
9.53
4.62
-0.15
-3.28
-4.12
-3.10
-1.53
-0.89
-2.10
-5.09
-8.88
-12.14
-13.77
-13.56
-12.20
-10.97
-11.24
-13.73
-18.34
-24.04
-29.64
-33.96
-36.27
-36.17
-33.37
-27.70
-19.26
-8.87
1.86
10.96
16.95
19.37
19.06
17.55
16.18
15.46
15.07
14.34
12.97
11.25
9.72
8.57
7.33
5.02
0.96
-4.71
-10.87
-15.97
-19.01
-20.08
-20.26
-20.79
-22.54
-25.29
-28.06
-29.63
-29.19
-26.86
-23.66
-21.38
-22.03
-27.03
-36.48
-48.74
-60.67
-68.56
-69.51
-62.50
-48.78
-31.23
-13.19
2.76
15.50
25.00
31.90
36.75
39.86
41.48
42.02
42.25
42.74
43.60
44.21
43.69
41.05
36.06
29.34
22.26
16.52
13.54
13.92
17.05
21.26
24.25
24.01
19.64
11.76
2.34
-6.13
-11.72
-13.76
-13.14
-11.66
-11.30
-13.26
-17.95
-24.74
-32.33
-39.10
-43.25
-43.22
-37.99
-27.89
-14.68
-1.30
9.24
14.86
15.47
12.85
9.77
8.67
10.62
15.10
20.58
25.49
28.90
30.59
30.65
29.08
25.80
20.90
15.08
9.64
6.00
5.07
6.72
9.88
12.78
13.93
12.56
8.94
4.24
-0.06
-2.60
-2.99
-1.95
-1.17
-2.69
-8.07
-17.65
-30.18
-43.19
-53.62
-58.87
-57.62
-50.15
-38.24
-24.46
-11.56
-1.52
4.77
7.69
8.59
9.18
10.80
13.66
16.82
18.77
18.49
15.91
12.35
9.68
9.19
11.00
13.88
16.18
16.64
15.02
11.97
8.45
5.05
1.70
-2.01
-6.45
-11.48
-16.40
-20.31
-22.51
-22.85
-21.70
-20.25
-19.86
-21.76
-26.51
-33.46
-40.82
-46.02
-46.82
-42.24
-32.99
-21.15
-9.48
-0.21
5.64
8.45
9.62
10.80
13.20
17.12
21.90
26.25
28.83
28.81
26.23
22.04
17.65
14.36
12.78
12.56
12.80
12.59
11.79
10.73
10.21
10.66
11.80
12.80
12.78
11.36
8.80
5.68
2.39
-1.06
-5.03
-9.83
-15.39
-21.34
-27.16
-32.38
-36.67
-39.50
-40.09
-37.49
-31.23
-21.74
-10.50
0.44
9.37
15.55
19.52
22.35
25.00
27.65
29.92
30.94
30.33
28.43
26.21
24.87
25.15
26.90
29.03
29.96
28.40
24.06
17.78
11.28
6.29
3.81
3.76
5.21
6.90
7.84
7.60
6.34
4.42
2.28
0.20
-1.66
-3.27
-4.67
-5.83
-6.71
-7.16
-6.97
-5.96
-4.43
-2.97
-2.45
-3.66
-6.90
-11.81
-17.50
-23.00
-27.45
-30.29
-31.08
-29.52
-25.42
-18.83
-10.18
-0.26
9.97
19.63
28.10
34.99
40.02
42.90
43.38
41.42
37.48
32.60
28.15
25.51
25.39
27.63
31.14
34.49
36.15
35.36
32.33
28.28
24.99
23.95
25.71
29.34
32.65
32.88
27.78
16.57
0.23
-18.79
-37.61
-53.93
-66.81
-76.49
-83.77
-89.04
-91.61
-89.99
-82.48
-68.47
-49.05
-26.93
-5.66
11.86
24.05
31.07
34.35
35.89
37.19
39.02
41.29
43.29
44.33
44.11
42.97
41.56
40.46
39.82
39.54
39.69
40.86
44.01
49.57
56.36
61.22
59.76
48.30
25.97
-4.27
-36.69
-64.83
-84.19
-93.56
-94.76
-90.86
-84.34
-76.36
-67.07
-56.92
-47.19
-40.06
-37.34
-39.47
-45.09
-51.64
-56.53
-58.21
-56.41
-51.79
-45.21
-37.33
-28.65
-19.74
-11.35
-4.15
1.67
6.68
11.76
17.60
24.11
30.39
34.92
36.49
34.49
29.17
21.47
12.70
4.19
-3.01
-8.31
-11.66
-13.48
-14.74
-16.79
-21.11
-28.91
-40.42
-54.50
-68.54
-78.96
-82.44
-77.11
-63.55
-44.74
-25.15
-9.05
1.00
5.00
5.26
4.92
6.63
11.43
18.82
27.08
34.41
39.51
41.86
41.66
39.44
35.79
31.07
25.53
19.33
12.94
7.07
2.55
0.05
-0.43
0.39
1.25
0.89
-1.29
-4.94
-8.85
-11.92
-13.66
-14.81
-16.97
-21.82
-30.08
-40.84
-51.77
-59.87
-62.62
-58.84
-49.18
-35.69
-20.97
-7.26
4.25
13.49
21.20
28.27
35.19
41.74
47.04
49.94
49.62
46.06
40.30
34.08
29.22
26.65
25.95
25.48
23.31
18.04
9.86
0.43
-7.89
-13.19
-14.90
-14.07
-12.86
-13.55
-17.53
-24.69
-33.55
-41.80
-47.17
-48.17
-44.53
-37.30
-28.56
-20.69
-15.58
-13.78
-14.39
-15.23
-13.75
-7.98
2.88
18.24
36.40
54.96
71.36
83.50
90.42
92.23
90.37
86.89
83.64
81.65
80.90
80.60
79.79
77.78
74.26
69.23
62.64
54.43
44.78
34.31
24.21
15.88
10.32
7.74
7.38
7.93
7.77
5.75
1.38
-5.04
-12.47
-19.50
-24.72
-27.37
-27.58
-26.46
-25.55
-26.44
-29.99
-36.03
-43.35
-50.12
-54.49
-55.15
-51.61
-44.28
-34.33
-23.30
-12.74
-3.87
2.83
7.57
11.12
14.36
17.76
21.14
23.80
25.04
24.41
22.24
19.47
17.25
16.39
16.97
18.33
19.22
18.37
15.00
9.22
2.00
-5.16
-10.90
-14.58
-16.50
-17.72
-19.49
-22.55
-26.84
-31.44
-35.24
-37.40
-37.90
-37.58
-37.82
-39.90
-44.46
-51.29
-59.29
-66.78
-71.76
-72.57
-68.14
-58.35
-44.22
-27.52
-10.46
4.99
17.48
26.54
32.37
35.65
37.13
37.43
37.03
36.27
35.43
34.74
34.28
33.96
33.61
33.21
32.60
31.83
30.90
29.90
29.05
28.59
28.69
29.00
28.67
26.48
21.54
13.73
4.08
-5.54
-13.19
-17.70
-19.17
-18.90
-18.83
-20.71
-25.51
-33.04
-42.06
-50.59
-56.38
-57.55
-53.15
-43.47
-30.17
-15.70
-2.54
7.72
14.50
18.46
20.76
22.54
24.53
26.94
29.63
32.20
34.14
34.91
34.12
31.72
28.03
23.75
19.61
16.17
13.62
11.83
10.53
9.48
8.43
6.97
4.56
0.61
-5.07
-11.98
-18.80
-23.85
-25.94
-25.04
-22.44
-20.10
-19.98
-23.04
-28.95
-36.36
-43.34
-48.00
-48.88
-45.24
-37.24
-25.99
-13.37
-1.54
7.66
13.42
16.02
16.69
16.92
17.85
19.86
22.69
25.74
28.20
29.57
29.61
28.48
26.68
24.81
23.32
22.10
20.57
17.95
13.92
8.76
3.43
-0.94
-3.62
-4.63
-4.66
-4.62
-5.18
-6.41
-7.94
-9.24
-10.05
-10.58
-11.32
-12.78
-15.25
-18.59
-22.53
-26.77
-30.95
-34.41
-36.28
-35.27
-30.28
-21.03
-8.36
5.76
18.93
29.12
35.33
37.77
37.62
36.41
35.41
35.31
36.06
37.15
38.02
38.37
38.36
38.39
38.81
39.25
38.79
36.29
31.20
24.10
16.62
10.64
7.16
5.65
4.33
1.37
-4.15
-11.43
-18.41
-22.91
-23.66
-20.89
-16.09
-11.27
-8.27
-8.31
-11.83
-18.58
-27.63
-37.31
-45.39
-49.63
-48.35
-41.19
-29.19
-14.61
-0.00
12.35
21.22
26.57
29.16
30.16
30.49
30.60
30.29
29.19
27.00
23.97
20.71
17.88
15.85
14.48
13.31
11.98
10.59
9.60
9.49
10.27
11.11
10.63
7.42
0.95
-7.96
-17.27
-24.40
-27.61
-26.65
-23.06
-19.27
-17.88
-20.40
-26.88
-35.87
-44.69
-50.16
-49.38
-40.81
-25.12
-5.39
13.74
27.62
33.51
31.59
24.63
16.52
10.39
7.52
7.37
8.52
9.87
11.01
12.23
13.79
15.49
16.80
17.27
17.07
16.81
17.17
18.31
19.90
21.10
21.33
20.42
18.63
16.32
13.57
10.14
5.49
-0.99
-9.91
-21.75
-36.81
-54.88
-74.75
-94.02
-109.36
-117.44
-116.28
-106.12
-89.50
-70.21
-52.19
-37.95
-28.13
-21.65
-16.51
-10.78
-3.41
5.32
14.03
20.82
24.19
23.62
19.92
14.89
10.62
8.64
9.34
12.07
15.57
18.67
20.72
21.54
21.12
19.26
15.65
10.23
3.54
-3.22
-8.83
-12.73
-15.59
-18.91
-24.40
-32.58
-42.24
-50.67
-54.73
-52.19
-42.78
-28.46
-12.68
0.83
9.45
12.52
11.44
8.96
7.94
10.16
15.64
22.83
29.51
33.94
35.66
35.32
34.18
33.16
32.39
31.41
29.74
27.40
24.82
22.50
20.54
18.56
15.76
11.63
6.19
0.13
-5.46
-9.63
-12.02
-13.09
-14.02
-16.26
-20.88
-28.04
-36.66
-44.57
-49.23
-48.58
-41.86
-30.02
-15.37
-0.81
11.21
19.22
23.23
24.35
24.23
24.36
25.56
27.85
30.44
32.26
32.38
30.54
27.10
22.91
18.89
15.67
13.54
12.38
11.88
11.60
10.99
9.45
6.53
2.08
-3.58
-9.62
-15.00
-18.83
-20.72
-21.09
-21.01
-21.71
-24.03
-28.09
-32.89
-36.69
-37.55
-33.96
-25.53
-13.13
1.21
14.87
25.43
31.50
33.13
31.73
29.48
28.36
29.44
32.48
36.31
39.54
41.29
41.50
40.64
39.25
37.47
35.06
31.81
27.96
24.21
21.22
18.96
16.59
12.89
6.96
-0.88
-9.04
-15.32
-17.95
-16.45
-11.89
-6.54
-2.93
-3.05
-7.65
-16.14
-26.71
-36.79
-43.69
-45.31
-40.80
-30.88
-17.63
-3.82
8.13
16.55
21.14
22.67
22.47
21.90
21.90
22.82
24.34
25.76
26.38
25.91
24.38
22.19
19.70
17.12
14.47
11.84
9.53
8.04
7.67
8.22
8.80
8.21
5.55
0.85
-4.84
-9.87
-12.78
-13.10
-11.58
-9.97
-10.16
-13.76
-21.22
-31.76
-43.39
-53.35
-58.91
-58.30
-51.53
-40.56
-28.68
-19.09
-13.66
-12.26
-13.08
-13.83
-12.92
-10.18
-6.74
-4.10
-3.32
-4.32
-6.21
-7.77
-8.23
-7.60
-6.55
-5.83
-5.69
-5.87
-5.70
-4.66
-2.65
-0.27
1.59
2.15
1.18
-0.85
-3.04
-4.50
-4.87
-4.51
-4.43
-5.84
-9.68
-16.24
-24.89
-34.26
-42.48
-47.53
-47.84
-42.58
-32.03
-17.57
-1.75
12.61
23.06
28.43
29.26
27.40
25.23
24.39
25.12
26.26
26.24
24.04
19.98
15.60
12.67
12.27
14.11
16.81
18.76
19.01
17.73
15.81
14.23
13.24
12.34
10.73
7.94
4.32
0.70
-2.06
-3.68
-4.43
-5.19
-6.69
-9.39
-13.39
-18.49
-24.30
-30.22
-35.49
-39.26
-40.78
-39.59
-35.69
-29.49
-21.67
-13.05
-4.46
3.41
10.12
15.55
19.96
23.85
27.48
30.75
33.04
33.63
32.16
29.02
25.35
22.30
20.49
19.64
18.85
17.07
13.83
9.48
4.91
1.07
-1.58
-3.23
-4.60
-6.66
-10.08
-15.07
-21.27
-27.98
-34.40
-40.00
-44.67
-48.72
-52.69
-56.98
-61.66
-66.25
-70.14
-72.59
-73.01
-70.91
-65.76
-57.10
-44.69
-29.08
-11.89
4.21
16.28
21.80
19.77
11.03
-1.89
-15.42
-25.99
-30.91
-28.92
-20.34
-6.78
9.22
24.73
36.82
43.10
42.11
33.84
19.99
3.56
-11.81
-22.91
-27.80
-26.65
-21.29
-14.61
-9.43
-7.38
-8.37
-10.77
-12.24
-10.90
-6.12
1.17
8.82
14.29
15.36
10.83
0.79
-13.36
-29.13
-43.34
-52.80
-55.12
-49.64
-37.70
-22.23
-6.37
7.77
19.93
31.27
43.08
55.49
67.08
75.62
79.31
77.93
72.89
66.64
61.67
59.79
62.14
69.15
80.73
96.08
113.60
130.91
145.46
155.34
160.17
161.05
159.93
158.66
158.16
157.99
156.76
152.79
145.04
134.06
121.91
111.63
106.34
107.97
116.35
129.01
141.57
149.04
147.68
135.51
112.73
81.47
44.99
6.67
-30.37
-63.93
-92.55
-115.11
-129.69
-134.07
-127.03
-109.68
-85.34
-57.82
-29.97
-5.27
16.85
36.61
52.91
63.69
66.96
61.67
49.39
32.24
12.17
-9.31
-32.36
-58.19
-88.11
-122.81
-161.78
-203.48
-245.68
-285.52
-319.62
-345.75
-363.87
-376.72
-388.97
-404.56
-423.80
-442.04
-450.57
-440.00
-404.84
-346.32
-272.46
-195.55
-128.33
-80.33
-55.70
-52.41
-63.34
-78.71
-89.55
-90.63
-82.04
-68.06
-54.05
-43.11
-34.32
-23.78
-6.95
18.78
53.22
93.72
135.98
174.25
201.26
209.04
191.27
146.77
82.01
10.40
-51.60
-90.49
-100.41
-84.17
-50.70
-10.10
30.38
67.86
102.55
135.56
166.95
195.63
220.13
239.73
254.89
267.04
277.59
287.32
296.04
302.12
302.70
293.85
271.50
233.14
179.81
117.39
56.34
9.43
-12.04
-2.17
36.93
94.99
156.32
204.36
226.57
217.94
182.05
129.03
71.92
22.30
-13.06
-33.41
-43.22
-49.63
-59.28
-75.70
-98.15
-121.72
-139.29
-144.25
-133.31
-108.58
-77.70
-51.82
-41.76
-53.72
-86.21
-130.06
-171.72
-198.50
-203.65
-188.73
-162.11
-134.65
-114.62
-104.38
-100.33
-95.91
-84.97
-64.23
-33.49
5.60
50.65
98.75
145.48
184.56
208.87
212.93
195.40
160.26
115.55
70.09
30.29
-1.55
-26.34
-45.72
-59.60
-65.18
-58.03
-34.50
5.71
58.34
115.10
165.70
200.69
214.02
204.58
176.36
137.26
96.51
62.18
38.98
27.16
23.08
20.93
15.07
2.05
-18.42
-43.66
-69.13
-90.18
-103.61
-108.61
-106.87
-101.59
-96.14
-92.69
-91.59
-91.68
-91.16
-88.72
-83.97
-77.43
-69.92
-61.94
-53.46
-44.30
-34.73
-25.71
-18.61
-14.45
-13.59
-15.43
-18.81
-22.58
-25.95
-28.50
-29.80
-29.04
-24.92
-15.98
-1.27
18.72
41.63
63.51
79.85
87.36
85.64
77.82
69.58
66.73
72.34
84.88
98.76
106.95
104.58
91.77
73.91
59.58
57.00
71.08
102.01
145.78
195.64
243.87
283.23
307.98
314.76
303.10
275.42
236.33
191.57
146.60
105.78
71.74
45.30
25.69
10.83
-2.27
-16.87
-35.62
-60.00
-90.07
-124.76
-162.50
-201.45
-239.70
-275.50
-307.35
-334.53
-357.42
-377.23
-395.13
-411.24
-423.98
-430.53
-428.08
-415.28
-393.14
-364.53
-332.84
-300.38
-267.67
-233.66
-196.87
-156.62
-113.36
-68.51
-23.64
20.14
62.37
102.75
140.55
174.35
202.32
223.04
236.01
242.17
243.32
241.09
236.16
227.86
214.71
195.32
169.41
138.28
104.71
72.13
43.78
21.94
7.67
0.75
-0.11
3.06
7.97
12.74
16.53
19.55
22.83
27.19
32.66
38.30
42.89
45.84
47.46
48.74
50.45
52.46
53.52
52.18
47.60
40.15
31.23
22.36
14.42
7.32
0.41
-6.77
-14.02
-20.50
-25.43
-28.72
-31.36
-35.03
-41.43
-51.46
-64.61
-79.04
-91.97
-100.84
-103.78
-100.32
-91.27
-78.38
-63.77
-49.30
-36.32
-25.43
-16.53
-8.90
-1.68
5.98
14.55
24.01
33.98
43.89
53.32
62.10
70.25
77.68
83.78
87.49
87.58
83.30
74.92
63.87
52.19
41.45
32.11
23.51
14.77
5.42
-3.74
-11.18
-15.49
-16.39
-15.09
-14.06
-16.34
-24.66
-40.73
-64.46
-93.62
-123.84
-149.49
-165.22
-167.81
-157.36
-137.26
-112.82
-89.26
-70.02
-56.34
-47.54
-42.06
-38.43
-35.83
-34.25
-34.16
-36.33
-41.13
-47.92
-54.63
-58.30
-56.03
-46.27
-29.53
-8.11
15.05
37.55
58.22
76.74
93.01
106.49
116.30
121.82
123.25
121.74
118.80
115.43
111.24
104.34
91.85
71.23
41.31
3.53
-37.95
-76.98
-107.01
-123.08
-123.41
-110.01
-87.76
-62.69
-39.83
-21.95
-9.33
-0.57
6.24
12.56
18.91
25.05
30.46
34.98
39.01
43.19
47.95
52.82
56.50
57.29
53.92
46.39
36.02
25.01
15.42
8.54
4.31
1.99
0.70
0.02
0.24
2.08
6.28
13.24
22.73
33.93
45.66
56.52
65.08
70.15
71.01
67.77
61.60
54.58
49.25
47.80
51.38
59.68
71.31
84.51
98.04
111.53
125.13
138.61
150.68
159.16
162.08
159.23
152.77
146.98
146.50
154.08
169.09
187.38
202.85
209.84
205.28
189.76
167.08
142.68
121.67
107.26
100.12
98.69
100.22
101.85
101.66
98.77
93.15
85.04
74.66
62.09
47.64
31.91
15.55
-1.21
-18.80
-37.61
-56.81
-73.52
-83.34
-82.15
-68.42
-44.38
-15.15
13.63
38.30
58.05
73.72
85.57
91.86
89.37
75.89
52.65
24.92
0.05
-16.02
-21.80
-20.86
-19.83
-25.12
-40.00
-63.46
-91.43
-119.10
-143.28
-163.56
-182.00
-201.77
-225.79
-255.72
-291.64
-332.27
-375.04
-416.16
-450.73
-473.57
-480.35
-469.06
-441.00
-400.68
-354.57
-309.16
-269.08
-236.11
-209.44
-186.89
-166.42
-147.20
-129.76
-115.35
-104.99
-98.70
-95.44
-93.60
-91.45
-87.53
-80.37
-68.35
-49.40
-21.40
16.86
64.68
118.66
172.75
219.12
250.21
260.98
250.58
222.66
184.08
142.74
105.33
75.81
55.08
41.68
33.07
26.80
21.38
16.45
12.68
11.21
12.95
17.94
25.00
31.88
35.66
33.73
24.57
8.55
-12.25
-34.20
-53.33
-66.46
-72.13
-70.88
-64.54
-55.27
-44.63
-33.36
-21.88
-10.97
-2.19
2.48
1.04
-7.96
-25.19
-50.52
-82.87
-119.94
-157.70
-190.22
-209.98
-210.15
-187.00
-142.17
-83.75
-25.23
17.73
32.68
15.49
-26.74
-78.94
-123.48
-146.98
-144.31
-118.90
-79.75
-36.23
6.15
47.71
91.23
138.63
188.65
237.42
280.11
312.20
331.03
336.18
330.11
315.28
293.46
265.45
232.67
201.08
178.48
171.31
174.11
182.76
193.44
204.94
213.97
217.59
214.31
203.95
187.78
168.11
148.86
132.88
121.37
113.70
108.82
105.72
103.36
100.92
97.86
94.80
91.97
88.95
84.74
78.76
70.97
61.69
51.68
41.95
34.26
29.94
29.55
32.76
38.86
46.88
55.67
64.14
71.36
77.07
81.21
83.87
85.21
85.59
85.36
84.87
84.33
83.80
83.36
82.94
82.36
81.32
79.66
77.24
73.98
69.83
64.69
58.52
51.27
43.02
33.93
24.29
14.35
4.34
-5.71
-15.96
-26.69
-38.13
-50.25
-62.68
-74.94
-86.07
-95.57
-103.46
-110.32
-117.11
-124.80
-133.86
-144.02
-154.60
-164.17
-171.83
-177.48
-181.91
-186.54
-192.84
-201.61
-212.65
-225.51
-238.36
-250.36
-261.59
-273.06
-286.48
-304.01
-328.02
-360.67
-404.43
-456.54
-512.55
-565.02
-605.37
-626.76
-626.72
-608.13
-577.90
-546.78
-517.58
-492.83
-472.02
-453.23
-434.88
-416.35
-397.54
-377.98
-360.86
-339.35
-312.08
-278.90
-241.09
-201.11
-161.67
-124.90
-91.94
-68.81
-48.70
-31.52
-17.74
-8.44
-5.09
-8.89
-20.28
-1.64
1.17
-2.12
-9.02
-17.54
-26.52
-35.54
-44.68
-54.04
-63.37
-77.61
-88.77
-95.11
-95.06
-87.60
-72.49
-50.25
-21.70
12.41
47.28
88.06
134.97
187.71
244.88
303.82
360.84
412.23
455.09
485.25
506.01
518.60
524.66
526.05
525.00
523.84
524.64
528.04
531.17
532.14
527.04
512.85
488.24
453.73
411.14
363.63
315.53
271.76
238.73
221.51
222.89
242.32
275.56
315.20
352.21
377.79
385.66
373.53
343.74
302.27
256.24
211.00
167.89
124.49
76.51
21.20
-39.93
-100.24
-149.78
-178.94
-182.72
-164.09
-134.06
-108.52
-102.09
-122.04
-165.27
-219.41
-267.93
-296.71
-298.21
-272.47
-224.87
-163.06
-94.60
-26.15
37.13
91.84
136.66
171.57
197.18
213.81
221.81
221.83
214.85
202.47
186.28
167.13
144.16
115.05
77.34
30.75
-21.33
-73.28
-118.76
-153.39
-176.11
-189.66
-199.47
-211.03
-226.96
-239.47
-238.17
-215.18
-171.19
-114.92
-57.63
-7.76
31.08
59.62
80.52
95.43
104.82
108.01
105.21
97.93
88.56
78.83
69.02
57.64
41.07
18.03
-11.49
-44.94
-77.78
-105.41
-124.99
-136.50
-142.72
-148.88
-160.94
-184.01
-220.09
-266.70
-316.72
-359.52
-383.56
-380.27
-348.14
-294.53
-234.65
-186.07
-161.75
-164.87
-187.74
-215.29
-231.84
-227.15
-198.77
-150.82
-90.40
-25.21
37.14
88.82
122.25
132.42
120.30
94.15
67.65
55.06
65.91
101.88
156.88
220.00
279.08
323.78
347.12
346.39
323.33
283.43
234.20
182.61
132.39
82.93
30.65
-28.05
-93.73
-162.31
-226.10
-276.66
-308.49
-320.89
-317.63
-304.63
-286.94
-266.52
-242.65
-214.08
-181.56
-149.01
-122.00
-104.69
-96.90
-93.36
-86.03
-68.12
-37.75
1.02
40.07
71.27
90.54
99.68
105.31
115.56
136.44
169.99
214.26
264.60
315.32
360.65
395.13
414.07
414.65
397.69
368.35
335.08
306.47
287.25
276.00
266.47
252.20
231.37
208.96
194.10
193.91
208.14
228.00
239.86
232.24
201.84
155.72
107.97
73.12
59.41
65.53
82.26
97.10
100.39
89.29
67.97
44.19
24.51
10.46
-2.10
-19.70
-47.12
-84.25
-126.89
-169.91
-210.39
-248.73
-286.81
-324.99
-360.44
-388.00
-402.55
-401.62
-386.39
-360.30
-327.24
-290.05
-250.18
-208.80
-168.14
-132.10
-104.71
-87.68
-77.62
-66.97
-48.05
-17.19
22.08
59.71
83.36
85.35
67.62
42.66
26.12
26.72
41.46
57.61
61.15
45.30
14.75
-17.05
-34.63
-29.39
-4.97
27.24
55.94
77.27
95.64
120.51
155.25
196.96
245.87
295.40
332.47
341.32
316.48
265.73
206.94
157.97
128.13
116.17
113.35
112.04
108.73
104.96
103.54
105.14
107.01
104.73
94.18
73.69
44.94
12.16
-21.12
-53.02
-83.34
-112.88
-142.21
-171.56
-201.36
-231.43
-260.06
-286.30
-307.42
-318.96
-316.80
-300.34
-274.19
-246.54
-225.17
-213.77
-214.99
-228.10
-250.36
-279.17
-314.13
-356.41
-405.83
-458.25
-480.24
-447.58
-358.33
-235.82
-112.22
-11.36
57.87
98.94
121.65
136.14
144.76
145.57
136.85
120.16
99.88
81.26
68.40
63.19
65.26
69.53
70.70
66.08
58.47
52.68
53.26
63.46
85.02
117.90
157.57
194.98
221.02
228.88
215.70
183.81
140.23
94.24
54.15
24.12
5.19
-2.07
3.61
23.19
55.36
94.99
133.89
163.55
180.33
182.67
173.67
158.64
141.93
125.45
108.73
90.37
69.62
45.15
19.68
-4.14
-24.62
-41.19
-54.32
-64.89
-73.72
-81.18
-87.04
-90.67
-91.49
-89.46
-85.45
-80.93
-77.48
-76.00
-76.40
-77.37
-76.82
-73.01
-64.35
-50.09
-30.05
-4.68
24.35
53.59
78.01
91.42
90.55
76.30
53.68
30.04
11.93
2.51
1.00
4.11
8.55
12.74
16.84
21.42
26.33
30.37
32.04
30.74
27.37
24.17
23.36
26.19
31.72
37.41
40.30
38.25
30.54
18.20
3.36
-11.70
-25.61
-38.61
-51.83
-66.61
-84.04
-103.68
-124.80
-144.69
-159.75
-164.28
-154.16
-128.50
-90.69
-47.80
-7.98
22.49
41.50
50.99
55.26
58.13
61.73
66.85
73.56
81.72
90.72
99.12
104.52
104.62
98.35
86.81
72.62
58.70
46.60
36.54
28.03
21.23
16.76
15.48
17.49
21.37
24.54
23.83
17.96
8.24
-1.96
-9.30
-12.40
-12.65
-13.76
-19.77
-33.57
-54.82
-80.88
-108.95
-137.86
-168.16
-200.68
-234.78
-260.74
-269.82
-255.70
-217.80
-162.48
-100.48
-42.60
4.48
39.51
65.98
88.16
109.99
134.14
162.16
194.81
231.63
269.91
304.30
328.13
335.31
323.83
296.84
261.11
224.54
193.33
170.35
155.27
145.93
139.41
133.42
126.41
116.58
103.07
86.34
67.98
49.93
33.56
19.10
5.55
-9.24
-29.96
-60.94
-104.61
-160.25
-223.85
-288.37
-345.02
-385.57
-404.84
-404.25
-387.56
-358.12
-318.09
-270.00
-218.49
-170.32
-133.15
-113.32
-116.79
-143.38
-185.80
-232.57
-272.40
-297.14
-302.60
-288.61
-239.92
-158.01
-61.87
22.96
81.11
112.62
126.20
131.08
132.52
131.72
124.84
110.20
90.77
72.22
59.29
53.50
53.24
55.08
55.75
51.35
40.48
27.54
18.96
20.05
32.94
56.87
89.44
127.72
165.74
197.38
217.73
223.01
211.69
185.49
149.71
111.94
79.19
54.57
37.83
27.17
20.74
17.87
18.89
23.73
31.06
38.10
41.08
37.07
25.73
8.08
-12.82
-32.37
-45.90
-50.01
-44.09
-30.79
-16.10
-6.52
-6.20
-15.18
-29.85
-45.28
-57.86
-66.77
-73.51
-80.34
-88.36
-96.83
-103.73
-107.22
-106.71
-102.96
-97.80
-92.21
-86.31
-79.14
-69.01
-54.24
-34.04
-8.93
19.21
46.88
71.36
90.56
103.63
111.04
114.29
115.28
115.63
116.19
116.90
117.16
115.93
112.71
107.64
101.66
96.05
91.89
89.71
89.73
92.19
96.82
102.39
106.10
103.97
92.23
69.44
37.95
3.56
-26.55
-46.91
-55.83
-55.51
-50.14
-43.57
-37.60
-32.05
-25.94
-18.83
-11.45
-5.09
-0.51
2.58
5.41
9.44
15.62
23.67
32.26
39.40
43.26
42.83
38.12
30.02
19.80
8.67
-2.65
-13.58
-24.24
-34.64
-44.51
-53.32
-60.34
-64.98
-66.92
-66.66
-64.49
-61.33
-58.08
-55.48
-53.92
-53.39
-53.53
-53.79
-53.66
-52.70
-51.10
-49.29
-47.98
-47.86
-49.25
-51.95
-55.29
-58.33
-60.23
-60.85
-60.68
-60.86
-62.66
-66.85
-73.24
-80.71
-87.60
-92.04
-93.33
-90.95
-85.54
-78.58
-71.93
-67.29
-65.47
-65.50
-64.16
-56.92
-39.58
-10.43
28.60
72.29
113.61
145.82
164.10
166.54
153.90
129.31
97.30
63.08
31.79
7.52
-7.62
-13.93
-13.31
-9.07
-3.99
0.04
1.59
-0.54
-7.18
-18.25
-31.89
-44.16
-49.94
-44.68
-27.05
-0.21
28.94
52.33
63.76
61.51
48.07
28.23
6.65
-14.21
-34.28
-54.37
-74.68
-93.96
-109.52
-118.99
-121.52
-117.79
-109.72
-99.75
-89.64
-80.39
-72.47
-65.53
-59.64
-55.65
-54.71
-57.96
-65.99
-78.42
-94.10
-111.47
-128.13
-142.39
-153.36
-160.78
-164.76
-165.35
-162.05
-153.54
-143.34
-132.84
-123.32
-116.02
-111.94
-111.68
-115.29
-122.12
-131.22
-141.44
-150.82
-157.91
-161.63
-161.41
-157.07
-148.92
-137.51
-123.82
-109.03
-93.75
-78.69
-64.41
-51.32
-39.61
-29.27
-20.20
-12.25
-5.37
0.88
6.68
12.18
17.94
24.32
31.23
38.23
44.82
50.75
56.26
61.58
67.02
73.16
80.24
87.83
94.95
100.48
103.49
103.51
100.38
94.37
87.18
80.25
74.09
68.35
62.55
56.59
50.92
46.19
43.07
45.62
56.29
74.54
97.19
120.67
142.80
163.25
182.72
202.15
229.61
269.69
320.80
375.75
426.59
468.57
501.02
525.89
546.15
576.47
626.21
694.70
772.19
847.35
913.18
968.20
1014.14
1053.22
1102.28
1170.72
1255.07
1340.94
1412.92
1462.44
1489.01
1497.05
1393.42
1138.64
759.84
338.00
-46.88
-354.74
-584.53
-755.05
-887.96
-999.02
-1079.20
-1118.14
-1114.45
-1079.12
-1029.01
-978.76
-936.82
-905.32
-882.67
-853.49
-807.41
-744.78
-675.67
-611.95
-560.74
-524.84
-499.67
-480.24
-455.47
-419.10
-372.27
-321.93
-275.76
-238.69
-211.29
-191.41
-176.78
-162.05
-144.26
-123.85
-103.82
-87.10
-75.55
-68.68
-64.91
-62.98
-60.96
-58.03
-54.74
-52.36
-45.84
-32.62
-11.57
15.82
45.84
73.90
96.03
109.96
115.57
114.49
108.36
99.62
89.46
77.87
63.52
44.01
16.38
-21.54
-70.36
-129.13
-189.97
-243.30
-279.70
-292.90
-281.92
-251.55
-210.68
-169.26
-135.94
-114.78
-105.08
-102.30
-100.52
-94.53
-81.65
-61.62
-35.88
-7.18
22.16
50.71
77.66
101.88
122.36
138.05
148.96
156.47
161.99
162.58
155.30
139.00
114.80
86.35
57.28
30.93
12.35
3.28
5.35
20.06
47.08
82.94
122.38
155.76
170.92
160.21
122.71
65.21
-0.73
-61.25
-110.97
-146.34
-164.73
-163.27
-140.11
-98.45
-46.08
6.77
50.61
79.30
93.05
97.29
102.27
117.87
148.35
190.61
235.11
269.96
285.66
279.85
248.91
199.24
143.73
94.81
58.46
33.12
14.56
0.11
-9.81
-14.40
-12.78
-6.98
-1.33
0.15
-5.66
-18.35
-34.59
-49.86
-61.21
-66.83
-67.55
-66.18
-65.71
-69.31
-77.81
-90.15
-101.66
-109.97
-114.39
-116.64
-120.04
-127.54
-142.43
-165.10
-192.97
-221.63
-247.28
-267.41
-281.57
-291.24
-287.42
-265.80
-227.73
-180.45
-132.46
-89.85
-55.23
-29.28
-14.24
-9.73
-17.98
-40.29
-74.84
-115.96
-155.50
-185.15
-195.68
-182.95
-148.62
-101.33
-51.75
-8.35
25.34
50.40
70.52
89.23
107.67
125.59
141.39
155.21
169.62
188.80
216.53
255.06
304.92
364.71
431.94
501.96
568.26
622.80
657.47
666.31
647.61
604.50
543.46
472.29
397.56
323.78
253.48
188.16
128.79
76.28
30.54
-10.13
-48.32
-86.36
-125.31
-165.09
-204.75
-243.54
-280.85
-317.69
-357.28
-404.13
-461.79
-530.35
-605.32
-676.82
-732.29
-758.52
-747.36
-698.91
-621.00
-525.21
-421.90
-318.29
-216.49
-116.26
-15.35
86.41
185.61
276.67
354.83
418.36
466.82
502.60
514.61
496.17
450.83
391.94
333.68
284.40
251.18
228.19
211.41
199.73
196.95
207.50
231.13
263.11
294.50
314.46
309.40
271.63
201.78
110.85
14.13
-75.48
-151.47
-213.73
-265.71
-316.25
-371.47
-433.81
-500.97
-569.17
-635.38
-696.66
-748.57
-759.06
-707.47
-594.28
-444.84
-293.06
-164.09
-67.98
-2.78
39.31
66.76
81.41
83.99
76.08
62.37
48.98
40.56
38.85
43.40
52.77
61.89
68.40
72.31
76.31
83.83
97.05
116.21
140.34
168.10
193.27
212.48
224.37
229.42
228.92
224.10
215.79
205.02
193.22
180.68
168.44
157.71
150.08
146.60
146.07
144.10
134.11
110.42
71.95
25.13
-18.71
-48.58
-59.56
-54.84
-43.11
-33.46
-30.80
-35.04
-42.28
-48.37
-50.46
-47.50
-39.19
-25.45
-7.55
11.87
28.70
39.93
44.57
44.67
43.73
44.88
49.46
55.60
62.06
64.79
60.35
45.68
22.84
-3.87
-28.79
-47.21
-57.03
-59.04
-56.21
-51.20
-45.30
-38.26
-29.98
-21.22
-13.62
-8.92
-7.64
-8.94
-10.66
-10.58
-7.11
-0.55
7.50
14.99
20.27
22.89
23.38
23.11
23.48
25.39
28.60
32.06
34.39
34.36
31.56
26.22
19.11
11.19
3.21
-4.49
-11.92
-18.79
-25.35
-31.43
-36.71
-40.85
-43.60
-44.96
-45.15
-44.53
-43.71
-42.70
-41.50
-40.16
-38.80
-37.64
-36.93
-36.91
-37.57
-38.65
-39.71
-40.30
-40.24
-39.74
-39.37
-39.81
-41.54
-44.59
-48.42
-52.13
-54.80
-56.06
-56.15
-55.91
-56.35
-58.10
-61.01
-64.09
-66.17
-65.75
-62.22
-56.08
-48.60
-41.32
-35.64
-32.61
-32.93
-36.56
-42.21
-46.95
-46.43
-36.46
-15.14
15.64
50.27
81.47
103.24
112.99
111.99
103.88
92.49
79.92
66.45
51.51
34.68
17.38
1.50
-11.49
-21.21
-28.34
-34.01
-39.22
-43.96
-47.35
-48.10
-45.12
-38.09
-27.76
-15.63
-3.60
6.80
14.80
20.42
24.22
26.80
28.62
29.64
29.67
28.40
25.70
21.84
17.42
13.15
9.52
6.82
4.93
3.56
2.07
-0.23
-3.81
-8.81
-15.21
-22.92
-31.33
-40.03
-48.57
-56.94
-65.25
-73.36
-80.80
-87.08
-91.95
-94.12
-93.10
-88.77
-82.14
-74.60
-66.92
-59.12
-50.63
-40.66
-25.94
-8.12
11.77
31.86
50.42
66.96
82.26
97.71
114.37
135.41
162.57
196.24
235.01
276.98
321.24
367.80
416.86
449.46
452.59
423.46
371.27
309.30
246.39
185.11
124.12
61.90
-1.19
-59.73
-108.37
-144.31
-168.60
-185.04
-197.14
-206.87
-214.45
-218.85
-216.32
-203.99
-181.71
-152.65
-122.59
-96.57
-76.83
-61.85
-47.52
-29.02
-5.63
17.95
35.47
40.28
31.91
16.20
1.89
-4.22
-0.11
10.56
20.20
23.72
19.24
9.57
-0.28
-6.10
-6.46
-2.71
2.23
5.63
6.62
5.63
4.47
5.06
8.22
13.63
20.43
27.96
35.95
43.90
49.78
50.09
40.93
20.04
-11.22
-47.66
-82.02
-107.98
-122.71
-127.69
-127.05
-125.11
-124.27
-124.53
-124.48
-123.01
-120.14
-117.75
-116.66
-117.06
-118.06
-117.88
-114.39
-106.19
-93.32
-77.07
-59.18
-42.53
-28.97
-19.21
-13.25
-10.92
-11.89
-15.05
-17.78
-16.05
-5.83
14.96
44.64
77.92
107.73
128.30
137.42
137.10
132.13
127.04
124.25
122.91
120.12
113.28
102.13
89.20
78.23
71.97
70.65
72.43
74.54
75.21
73.73
70.02
63.28
51.57
33.06
7.55
-21.80
-49.24
-68.61
-76.10
-71.55
-58.25
-41.31
-25.65
-15.02
-11.16
-14.09
-22.17
-32.08
-40.12
-42.91
-38.61
-27.25
-11.31
4.79
15.79
16.68
4.88
-18.39
-47.33
-73.14
-87.48
-86.23
-70.92
-47.44
-23.06
-3.22
9.21
13.88
11.54
3.83
-6.21
-13.87
-14.40
-5.84
9.30
24.27
31.79
28.10
15.11
-0.52
-11.21
-12.52
-4.91
7.19
18.01
22.91
20.04
10.58
-1.52
-11.00
-13.11
-6.09
7.44
21.70
30.91
33.06
31.22
31.33
36.73
45.20
49.14
38.85
9.94
-32.60
-75.16
-101.82
-102.44
-78.18
-40.43
-4.55
17.80
23.72
18.23
9.86
5.17
5.93
9.61
12.23
10.77
3.82
-8.49
-25.38
-44.89
-64.08
-79.07
-85.73
-80.91
-64.00
-37.97
-8.62
16.40
31.00
31.56
18.06
-5.70
-32.65
-54.45
-64.32
-59.42
-41.60
-14.89
15.45
44.78
70.18
90.63
105.98
116.30
121.92
117.70
103.24
83.55
65.67
53.97
48.22
45.28
41.67
35.16
25.20
13.67
2.96
-4.85
-8.21
-6.57
-0.65
7.07
13.13
14.38
10.07
1.58
-8.24
-15.99
-19.08
-16.31
-8.33
2.67
13.15
19.09
15.73
-1.19
-32.91
-75.68
-120.46
-155.95
-172.23
-164.23
-133.71
-88.70
-39.83
4.14
39.19
65.72
86.60
104.27
117.36
123.58
120.83
106.61
82.19
52.71
24.40
2.17
-12.38
-20.39
-23.97
-23.59
-17.33
-1.83
24.39
58.35
92.32
116.44
122.76
107.94
74.45
29.23
-18.24
-58.56
-84.93
-95.00
-91.36
-77.92
-61.27
-48.08
-42.07
-41.86
-41.64
-34.26
-15.93
11.06
38.97
57.79
59.66
42.19
9.00
-31.92
-69.14
-92.78
-99.77
-94.47
-84.38
-74.74
-66.53
-57.95
-47.00
-33.42
-19.39
-8.26
-2.49
-2.58
-6.89
-12.65
-17.06
-18.08
-15.01
-9.00
-2.35
2.57
4.32
2.76
-1.36
-7.04
-13.76
-20.22
-25.34
-27.59
-24.84
-14.99
2.73
27.09
54.93
81.90
103.43
116.04
118.38
111.74
99.33
84.08
67.37
49.82
32.13
16.25
5.38
1.85
5.43
12.11
14.26
4.37
-20.50
-55.27
-89.58
-110.95
-110.39
-85.32
-40.47
13.22
62.53
96.60
110.01
102.78
79.31
45.34
6.74
-26.68
-47.71
-57.48
-63.12
-69.11
-76.34
-75.51
-58.06
-20.29
34.04
93.84
145.81
176.32
178.68
155.25
116.08
72.84
34.32
2.61
-26.96
-60.93
-101.59
-143.45
-176.32
-190.67
-183.27
-157.32
-121.10
-84.45
-55.08
-36.59
-28.23
-27.97
-34.86
-49.50
-72.26
-97.15
-114.64
-117.38
-106.48
-89.27
-72.86
-59.88
-51.24
-40.08
-21.10
6.79
40.03
71.80
95.41
106.34
102.83
88.22
70.65
58.19
54.74
57.82
60.86
57.91
47.67
34.41
25.62
27.95
42.87
66.45
91.63
112.42
125.85
132.14
132.49
127.09
115.07
95.80
71.32
46.68
28.15
19.36
19.67
24.63
28.58
28.28
24.57
21.45
22.49
28.27
35.01
39.13
40.90
43.89
52.04
65.91
80.94
88.71
81.96
56.90
17.81
-24.53
-59.12
-80.22
-88.98
-91.50
-96.02
-108.10
-131.46
-163.99
-197.22
-220.48
-225.17
-206.88
-165.74
-106.87
-24.05
70.07
148.99
191.41
192.40
160.65
110.91
59.06
13.71
-19.65
-41.42
-56.16
-68.20
-81.58
-99.80
-126.51
-157.03
-191.16
-229.26
-259.38
-272.86
-265.09
-238.34
-200.02
-159.54
-124.89
-101.29
-87.11
-76.04
-61.00
-36.37
-2.04
36.05
69.22
91.21
100.20
100.01
96.03
90.78
84.50
76.05
64.89
52.08
40.26
31.64
27.40
26.77
26.86
24.76
19.11
10.70
1.77
-4.28
-5.07
0.45
11.64
25.99
40.74
53.91
65.02
73.58
81.43
89.87
99.18
108.41
115.65
119.03
117.48
112.86
105.81
98.43
92.54
88.94
87.13
85.72
83.31
78.92
72.58
65.14
58.48
54.07
53.12
56.39
64.04
74.95
85.80
91.36
85.97
66.25
32.37
-10.88
-55.70
-93.92
-118.34
-125.98
-119.81
-105.84
-89.52
-74.37
-61.45
-50.76
-42.20
-35.70
-31.08
-27.90
-25.18
-22.12
-19.80
-19.80
-24.34
-35.09
-51.70
-71.14
-88.30
-97.29
-92.10
-73.17
-45.61
-17.98
0.79
4.71
-6.85
-28.94
-52.63
-68.80
-71.78
-60.71
-39.68
-15.42
4.94
18.09
23.42
23.22
21.13
20.79
25.30
35.81
50.72
65.84
75.25
73.29
57.49
29.99
-2.71
-31.86
-50.12
-54.32
-46.29
-30.92
-13.32
3.24
17.69
29.82
38.91
43.36
41.68
34.02
22.09
9.86
1.00
-2.08
1.56
12.24
30.25
55.35
85.95
118.49
147.61
167.12
172.94
165.06
147.44
126.31
107.03
93.41
87.52
89.50
96.48
103.80
106.67
101.70
88.28
67.40
42.01
18.24
4.82
7.06
23.15
45.64
62.77
72.88
78.44
84.28
95.57
118.56
153.24
193.45
228.61
247.71
244.34
217.89
174.42
123.70
74.91
32.70
-2.34
-31.49
-56.01
-76.23
-93.71
-111.28
-131.94
-156.88
-183.82
-205.79
-212.49
-194.02
-145.28
-69.82
20.72
110.05
182.11
225.57
236.94
220.55
185.96
144.22
104.18
70.84
45.70
27.85
15.43
6.67
0.22
-5.31
-11.33
-19.19
-29.61
-42.11
-55.37
-67.78
-78.13
-86.24
-92.84
-99.22
-106.42
-114.86
-124.11
-133.29
-141.67
-149.36
-157.48
-167.63
-180.91
-197.01
-213.96
-228.56
-237.14
-236.48
-224.41
-200.65
-167.24
-128.75
-91.69
-63.16
-48.64
-50.35
-66.72
-93.34
-124.85
-156.57
-185.25
-209.03
-227.04
-238.97
-245.51
-248.44
-250.33
-253.73
-259.68
-266.72
-271.30
-269.12
-257.12
-234.91
-205.45
-173.69
-144.95
-122.90
-108.69
-101.19
-98.53
-99.94
-106.34
-119.64
-140.51
-167.45
-196.22
-221.01
-236.20
-238.16
-226.32
-203.09
-173.06
-141.87
-115.11
-96.83
-88.90
-89.91
-95.88
-101.99
-104.16
-99.89
-88.56
-71.08
-49.15
-24.30
2.83
31.76
61.03
88.37
111.79
130.51
145.15
156.99
167.03
177.29
187.94
195.73
195.57
184.19
162.93
137.70
116.39
105.59
111.58
135.20
170.81
209.07
242.12
267.08
285.54
301.06
317.23
341.73
380.57
434.86
499.98
568.30
631.32
680.82
709.75
684.88
590.64
441.97
278.71
137.91
35.31
-31.89
-74.34
-102.28
-122.08
-131.82
-129.09
-115.81
-98.63
-84.82
-77.99
-77.79
-81.63
-86.38
-86.31
-77.96
-62.48
-44.92
-30.88
-23.10
-21.36
-23.76
-28.25
-30.97
-29.57
-24.54
-18.84
-15.96
-17.51
-23.18
-31.62
-41.37
-50.29
-57.09
-61.97
-63.72
-64.73
-66.44
-68.90
-71.42
-73.16
-73.03
-70.28
-64.73
-59.12
-53.27
-46.94
-39.66
-31.02
-20.76
-9.00
3.92
17.40
30.70
42.22
50.61
55.03
54.89
49.79
39.57
24.30
4.21
-14.41
-30.03
-42.54
-52.06
-58.77
-62.93
-64.85
-64.83
-63.18
-60.17
-56.59
-53.16
-50.15
-47.58
-45.59
-44.26
-43.54
-43.23
-42.91
-42.54
-42.31
-42.12
-41.86
-41.61
-41.49
-41.27
-40.44
-40.17
-38.63
-35.31
-30.09
-23.54
-16.97
-11.81
-8.83
-7.86
-7.87
-7.32
-5.43
-1.45
4.72
12.19
19.98
27.86
36.53
47.13
62.26
80.34
99.05
115.11
125.74
128.32
121.03
102.97
74.37
37.20
-4.99
-46.21
-75.58
-86.23
-77.33
-54.17
-25.87
-1.52
13.52
18.63
17.35
14.23
11.65
9.64
7.11
3.31
-1.14
-4.59
-5.65
-3.87
-0.08
3.58
5.01
3.38
-0.68
-5.55
-9.44
-11.27
-10.87
-9.06
-7.46
-7.49
-9.65
-13.51
-18.01
-22.00
-24.78
-26.30
-27.05
-28.03
-30.02
-33.31
-37.62
-42.38
-46.97
-51.04
-54.54
-57.62
-60.64
-63.68
-66.43
-68.23
-68.34
-66.11
-61.26
-54.32
-45.38
-34.94
-23.72
-12.35
-1.40
8.63
17.23
23.87
28.09
29.63
28.60
25.85
22.85
21.32
22.80
28.10
37.03
48.50
60.88
72.54
82.54
90.77
97.83
104.34
110.30
114.77
116.11
112.56
102.90
87.27
67.17
45.01
23.44
5.18
-7.35
-12.25
-9.35
-0.87
8.65
13.60
9.54
-4.42
-24.84
-45.70
-59.18
-60.47
-49.82
-31.62
-11.65
5.82
19.33
29.56
37.75
44.38
48.68
49.67
47.36
43.01
38.60
36.22
36.80
40.03
44.62
48.81
51.30
51.81
51.11
50.46
51.13
53.63
57.63
62.11
65.71
67.35
66.69
64.01
59.90
55.51
51.14
46.90
42.65
38.20
33.34
28.02
22.32
16.10
9.34
1.74
-7.09
-17.55
-29.81
-43.90
-59.53
-74.86
-89.57
-103.10
-114.94
-124.71
-132.28
-137.52
-140.80
-142.57
-143.29
-143.66
-144.06
-144.87
-146.24
-148.32
-150.76
-153.51
-156.37
-159.08
-161.41
-162.90
-162.97
-160.88
-157.31
-150.38
-139.06
-122.81
-101.64
-76.16
-47.44
-16.82
14.62
44.57
71.67
94.76
113.23
126.85
135.62
139.74
139.67
136.10
129.80
122.12
114.09
106.55
99.92
94.38
89.19
83.67
77.29
70.00
62.47
55.58
50.12
46.40
44.04
42.02
39.20
34.82
28.86
22.27
16.43
12.40
10.69
10.86
11.71
12.02
10.69
6.87
0.03
-9.84
-21.57
-32.41
-38.30
-35.49
-22.32
-1.02
23.01
43.09
54.13
54.61
46.75
34.96
23.14
13.38
5.53
-1.42
-8.18
-14.39
-19.11
-21.74
-22.61
-22.99
-24.26
-27.45
-32.34
-37.75
-42.07
-43.93
-42.71
-38.84
-33.46
-28.06
-23.81
-21.15
-19.96
-19.76
-20.12
-20.97
-22.65
-25.69
-30.59
-37.50
-45.97
-55.08
-63.88
-71.58
-77.80
-82.57
-86.30
-89.70
-93.54
-98.03
-103.35
-109.61
-116.85
-125.00
-134.00
-143.74
-154.02
-164.66
-174.90
-184.18
-191.97
-197.83
-201.33
-201.89
-198.69
-190.35
-179.36
-166.55
-152.62
-138.18
-123.80
-109.98
-97.18
-85.79
-75.88
-67.48
-60.02
-53.14
-46.40
-39.34
-31.43
-22.20
-11.35
1.38
15.90
32.14
49.58
67.48
85.07
101.65
116.72
129.94
141.75
152.55
162.79
172.48
181.53
189.92
197.61
204.68
210.99
217.83
225.77
234.40
242.25
247.66
249.57
247.84
243.05
236.02
230.91
230.53
235.30
243.19
251.36
257.70
261.50
263.05
263.20
268.13
282.23
306.28
337.18
370.38
402.28
431.02
456.00
477.09
500.97
531.84
569.22
607.96
641.44
664.80
676.17
675.67
622.48
498.62
313.03
98.67
-107.17
-280.51
-413.77
-509.81
-576.22
-621.26
-645.19
-648.57
-634.66
-609.79
-581.08
-553.81
-530.39
-511.83
-498.11
-483.05
-461.20
-429.94
-390.09
-344.59
-296.67
-248.60
-203.18
-162.91
-125.80
-89.11
-50.92
-11.08
28.57
61.52
85.25
98.80
103.41
103.54
102.72
100.80
94.04
78.00
51.75
20.34
-8.28
-27.74
-36.91
-41.09
-47.91
-61.18
-77.17
-86.17
-78.24
-50.79
-10.44
30.51
61.01
76.88
82.06
84.78
91.78
104.30
116.80
120.64
108.78
79.98
39.81
-1.81
-35.10
-54.41
-60.00
-57.19
-52.72
-51.10
-52.92
-55.55
-55.77
-52.27
-46.47
-41.50
-40.17
-43.18
-48.79
-53.73
-54.48
-49.32
-38.75
-25.12
-11.52
-0.35
7.08
11.19
13.34
14.96
16.55
17.47
16.35
11.84
3.30
-8.83
-22.55
-35.29
-44.77
-49.64
-49.96
-46.86
-41.97
-36.93
-32.90
-30.03
-28.01
-26.40
-25.28
-25.25
-27.09
-31.30
-37.73
-45.83
-54.66
-64.00
-74.16
-84.90
-94.55
-99.36
-94.57
-75.51
-43.23
-1.92
42.19
83.71
120.81
152.91
179.68
199.10
207.27
200.76
179.64
148.31
113.76
84.70
65.04
53.30
44.39
32.69
15.75
-4.98
-26.21
-44.53
-58.23
-67.98
-75.58
-81.31
-86.96
-92.59
-96.60
-97.51
-94.22
-86.64
-76.17
-65.05
-55.93
-50.49
-49.84
-51.66
-53.67
-54.05
-51.88
-47.99
-44.40
-43.84
-48.22
-58.14
-72.84
-90.72
-108.79
-122.68
-127.84
-118.61
-95.79
-63.37
-27.66
4.79
29.87
47.56
61.47
76.10
94.13
115.57
138.81
161.46
181.09
195.26
200.92
195.80
178.44
148.77
109.10
63.95
18.24
-24.06
-60.07
-87.19
-100.62
-95.21
-69.27
-26.13
25.12
71.70
101.76
109.07
94.92
67.87
38.03
10.00
-17.33
-49.30
-91.54
-146.10
-204.73
-262.70
-311.08
-332.62
-322.33
-285.30
-233.72
-180.92
-136.22
-102.27
-76.14
-51.54
-23.28
7.21
35.52
55.86
65.16
64.74
59.34
55.48
59.55
76.61
106.79
146.88
191.52
235.43
275.40
304.44
319.23
311.23
279.76
230.91
175.14
121.17
73.00
30.92
-6.56
-39.26
-66.49
-87.44
-104.27
-121.34
-144.80
-178.53
-222.79
-274.97
-328.33
-374.66
-405.64
-416.62
-408.25
-385.95
-357.36
-325.30
-294.26
-265.99
-240.08
-214.56
-188.41
-162.30
-138.21
-117.55
-100.31
-85.67
-71.51
-56.17
-38.94
-20.45
-2.30
14.01
27.95
40.01
51.00
62.33
75.00
89.28
104.54
119.57
133.18
144.80
154.71
163.51
172.65
183.46
196.78
212.62
230.46
249.65
270.27
293.43
320.61
352.96
390.17
430.49
471.46
510.84
546.89
577.87
601.08
612.60
608.45
586.37
547.55
496.78
440.81
385.95
336.10
292.30
253.77
219.54
189.36
163.67
142.70
125.65
111.10
97.32
83.10
68.04
52.44
36.66
20.59
3.32
-16.59
-40.48
-68.95
-101.71
-137.75
-176.05
-216.12
-257.98
-301.57
-346.47
-391.56
-435.55
-477.62
-517.37
-553.85
-584.38
-604.60
-609.64
-596.76
-566.55
-523.22
-473.48
-424.54
-381.79
-347.39
-320.80
-299.58
-281.38
-263.59
-243.65
-219.92
-192.98
-165.08
-138.75
-115.84
-96.04
-77.81
-57.68
-30.62
8.14
61.16
127.99
205.11
285.46
360.40
412.70
424.45
388.98
317.78
233.60
156.23
97.37
50.08
4.46
-47.01
-105.51
-165.91
-218.43
-253.83
-267.14
-258.03
-230.26
-188.13
-136.32
-78.70
-19.32
33.73
69.58
77.64
53.70
3.49
-56.88
-107.52
-131.94
-121.92
-82.93
-27.73
28.57
74.87
106.74
126.56
139.97
153.14
172.74
200.02
236.58
282.20
334.37
387.40
433.62
465.33
477.47
471.88
450.09
419.11
385.44
352.73
320.09
283.45
238.47
169.69
100.21
35.37
-14.28
-40.77
-42.70
-27.41
-8.01
2.47
-2.80
-20.42
-45.41
-68.25
-83.79
-89.02
-85.93
-80.18
-77.92
-79.28
-79.39
-78.04
-74.79
-72.32
-74.72
-86.05
-108.64
-142.28
-185.26
-235.13
-292.31
-355.15
-419.53
-478.53
-524.45
-551.01
-555.39
-538.98
-506.66
-465.94
-422.66
-379.15
-335.88
-293.54
-253.74
-218.18
-187.33
-160.05
-134.57
-108.97
-80.19
-47.45
-13.10
18.43
43.65
62.16
76.47
90.60
108.10
134.47
171.73
217.18
264.57
307.84
344.23
374.59
402.17
431.04
470.08
525.41
596.98
677.62
755.94
820.55
863.06
879.88
841.60
738.29
585.32
417.68
268.26
152.27
68.91
10.78
-29.19
-55.75
-66.35
-61.80
-46.88
-29.61
-17.52
-14.39
-19.85
-31.49
-47.19
-62.81
-73.86
-80.54
-86.45
-95.29
-108.16
-123.30
-137.57
-148.15
-151.13
-145.04
-131.93
-116.31
-102.83
-94.28
-91.15
-92.59
-97.61
-104.64
-113.22
-124.83
-141.83
-166.42
-199.79
-242.04
-292.10
-347.39
-403.25
-454.19
-495.59
-524.97
-542.33
-549.09
-546.30
-533.46
-508.68
-470.19
-418.60
-358.10
-295.37
-237.32
-188.13
-147.89
-113.17
-79.13
-41.33
3.04
54.97
113.55
175.35
234.56
283.74
315.54
325.25
312.82
282.80
242.32
198.06
153.69
109.45
62.77
10.33
-49.55
-115.26
-181.56
-240.79
-285.18
-309.35
-311.22
-292.96
-260.15
-219.72
-177.91
-138.70
-104.06
-74.50
-50.11
-29.19
-9.00
13.89
42.80
79.91
125.38
176.22
226.33
267.75
295.01
306.67
306.04
299.82
295.24
297.53
307.46
321.46
325.46
308.58
268.61
214.03
157.82
109.05
70.43
39.50
12.28
-13.94
-38.15
-57.51
-69.71
-74.46
-74.39
-72.61
-72.47
-76.15
-83.86
-92.67
-98.30
-97.19
-87.54
-70.67
-48.96
-25.95
-4.81
12.96
28.66
45.11
65.52
92.14
121.82
153.11
182.71
205.35
214.12
202.82
168.27
113.23
49.77
-11.45
-58.34
-82.85
-83.21
-64.43
-35.76
-7.15
13.73
23.44
23.54
21.45
21.71
26.89
35.92
47.61
57.79
62.52
59.01
46.45
26.59
1.48
-27.13
-59.39
-96.67
-139.92
-184.86
-223.29
-245.59
-244.28
-217.57
-169.45
-109.03
-47.59
4.20
39.18
54.12
49.84
29.85
-2.39
-39.19
-71.08
-91.42
-100.44
-103.79
-109.77
-122.56
-142.84
-168.32
-194.06
-214.67
-223.62
-216.98
-194.25
-158.97
-116.89
-74.27
-35.28
-0.92
29.70
57.62
82.58
103.76
120.58
133.90
145.74
158.74
175.31
197.06
225.03
259.70
301.12
347.90
396.28
439.80
471.09
484.27
477.62
454.36
421.06
384.82
350.56
320.09
292.85
267.76
243.47
219.99
198.31
179.16
162.03
145.25
127.17
107.20
86.20
63.83
40.51
17.54
-3.74
-23.41
-43.44
-66.76
-95.96
-132.21
-178.40
-234.08
-294.49
-351.92
-399.86
-435.86
-461.70
-481.85
-501.44
-529.44
-571.10
-625.36
-685.13
-740.83
-783.64
-806.99
-807.80
-756.71
-645.34
-490.99
-328.58
-188.74
-84.27
-12.87
34.06
64.65
84.33
91.76
86.74
72.47
56.23
44.09
38.17
37.47
39.21
40.98
37.93
28.02
13.26
-1.25
-10.41
-13.75
-12.22
-7.71
-1.87
1.95
1.82
-1.95
-7.19
-11.59
-13.73
-12.73
-8.23
0.02
10.86
23.09
36.04
49.78
64.70
81.33
100.55
123.13
149.41
178.17
207.01
232.99
254.08
270.25
283.85
298.95
318.99
345.88
377.79
409.68
434.96
447.85
444.59
423.43
384.22
328.40
262.35
195.75
139.67
102.35
85.26
82.01
81.23
72.72
52.96
29.97
16.28
21.64
47.34
86.24
127.14
160.74
183.41
197.17
210.90
232.12
263.45
302.16
342.71
380.25
412.53
440.00
439.67
398.15
314.17
200.20
75.00
-45.85
-153.41
-243.62
-314.50
-365.38
-393.36
-398.60
-385.68
-361.54
-334.50
-309.88
-288.69
-268.72
-246.60
-216.56
-174.97
-121.44
-62.74
-7.16
36.44
60.17
59.03
32.86
-10.92
-60.81
-105.20
-136.44
-152.39
-155.85
-151.94
-145.22
-137.95
-129.44
-118.58
-105.56
-92.34
-81.26
-73.79
-69.69
-67.33
-64.57
-59.64
-52.17
-43.24
-34.75
-28.21
-24.19
-22.15
-20.82
-18.84
-15.52
-11.02
-6.18
-1.99
1.00
2.84
4.11
5.53
7.66
10.44
13.40
15.90
17.40
17.79
17.30
16.34
14.88
13.08
10.63
7.23
2.73
-2.86
-9.45
-16.82
-24.43
-31.29
-35.78
-36.57
-33.34
-27.40
-21.28
-17.54
-17.50
-20.57
-24.72
-27.36
-26.97
-23.76
-19.38
-15.86
-14.43
-15.27
-17.76
-21.23
-24.82
-27.95
-30.12
-30.79
-29.81
-26.93
-22.25
-14.95
-6.40
2.68
11.97
21.52
31.27
40.58
48.63
54.56
57.55
57.32
54.75
51.20
47.84
45.21
42.59
38.66
32.20
21.87
6.73
-13.11
-36.69
-61.37
-80.88
-89.24
-82.93
-59.71
-23.45
17.02
51.72
73.48
81.02
78.25
71.14
64.38
59.13
53.41
45.32
36.79
31.05
32.06
41.47
56.63
73.77
88.02
95.09
93.17
82.81
65.68
44.77
23.74
7.24
0.20
5.96
23.90
48.97
72.79
86.23
85.28
67.82
36.59
-2.23
-41.96
-78.20
-110.02
-138.97
-167.95
-199.20
-233.81
-270.73
-306.69
-335.99
-351.73
-348.67
-324.81
-282.42
-225.95
-160.23
-89.07
-15.90
55.37
118.90
167.01
193.52
196.88
181.28
158.74
142.87
140.20
148.77
161.86
170.98
172.87
166.35
152.14
130.82
101.95
63.43
15.40
-36.04
-83.43
-118.87
-136.79
-134.20
-112.78
-79.19
-43.86
-16.83
-3.76
-4.22
-12.58
-22.35
-29.26
-34.30
-40.75
-51.02
-63.80
-74.85
-80.03
-77.81
-73.34
-68.21
-64.66
-62.58
-59.57
-52.59
-39.74
-21.37
0.34
22.40
44.99
64.61
79.87
90.94
98.66
102.88
103.25
98.51
87.21
68.48
40.95
4.75
-38.29
-81.14
-116.54
-137.64
-140.64
-126.48
-100.46
-70.93
-44.72
-25.99
-16.64
-18.22
-32.33
-60.50
-101.60
-150.75
-200.10
-240.53
-265.42
-273.48
-269.35
-260.38
-253.83
-254.74
-265.55
-286.90
-317.00
-351.83
-385.24
-410.27
-420.80
-413.92
-390.42
-353.09
-309.68
-268.25
-234.34
-209.76
-193.29
-182.34
-174.35
-167.48
-160.42
-152.07
-140.82
-125.19
-104.53
-79.51
-51.82
-23.74
2.79
26.48
46.61
63.38
77.26
88.57
97.22
102.75
105.55
105.99
104.21
100.22
94.62
88.49
83.00
79.03
77.13
78.40
83.56
92.62
105.08
120.60
139.05
160.22
183.54
207.95
234.17
261.92
289.21
313.09
331.32
343.11
348.71
348.85
344.31
341.42
343.76
349.62
353.71
351.41
341.05
323.19
299.44
271.65
253.29
252.58
267.52
288.96
309.12
325.76
340.52
356.05
374.24
414.43
486.87
585.07
691.27
790.29
876.25
949.88
1013.89
1070.21
1143.44
1246.52
1370.76
1492.94
1593.22
1663.70
1704.99
1720.30
1560.83
1172.80
625.70
61.05
-413.41
-762.51
-997.66
-1145.86
-1233.72
-1282.27
-1282.75
-1232.77
-1150.24
-1066.84
-1008.42
-983.18
-983.29
-992.15
-992.94
-958.73
-877.48
-761.88
-639.63
-534.45
-455.75
-400.85
-361.37
-329.09
-291.14
-239.62
-180.51
-129.00
-98.62
-94.63
-114.14
-148.92
-189.22
-221.17
-235.38
-230.77
-211.23
-180.41
-140.26
-93.34
-44.26
-0.30
33.83
56.45
68.24
72.02
71.53
70.81
69.11
64.75
55.88
42.29
26.12
10.66
-1.21
-8.32
-11.62
-14.26
-18.10
-23.98
-30.49
-34.71
-33.69
-26.34
-13.85
0.88
13.81
21.40
19.77
6.49
-18.22
-50.05
-81.09
-102.60
-108.09
-96.40
-71.71
-41.87
-14.22
5.78
17.81
24.44
28.14
29.73
28.21
22.54
13.15
3.44
-2.23
0.63
13.37
32.47
50.16
56.52
44.07
12.18
-31.18
-72.31
-97.49
-99.66
-81.58
-53.03
-26.14
-9.63
-5.38
-9.37
-14.88
-15.76
-8.82
5.40
25.09
47.76
70.28
89.25
101.49
104.98
99.71
87.70
69.61
49.84
33.60
24.60
23.43
26.96
29.15
22.92
2.47
-34.72
-83.94
-134.87
-175.33
-195.70
-192.37
-168.28
-131.21
-86.21
-42.25
-6.64
18.31
35.36
48.75
60.98
72.67
83.40
93.29
100.35
103.59
102.26
95.48
82.79
65.22
45.65
27.43
11.71
-2.79
-18.43
-36.88
-57.21
-74.93
-83.31
-77.03
-53.29
-18.78
11.51
24.03
15.86
-4.71
-25.36
-37.72
-40.97
-39.61
-38.81
-39.80
-39.14
-31.69
-15.60
5.63
24.87
35.00
32.00
16.00
-9.03
-37.22
-62.74
-80.98
-89.10
-86.06
-72.57
-50.79
-24.42
2.36
26.11
44.82
56.78
62.16
62.65
59.97
55.03
48.09
39.48
30.38
22.60
17.81
16.91
19.29
23.04
25.86
26.09
23.30
18.65
14.18
11.92
13.50
19.86
31.01
45.81
61.78
74.55
79.21
71.96
52.10
23.04
-8.61
-35.50
-51.70
-56.09
-51.86
-44.06
-36.96
-32.39
-29.79
-27.52
-24.42
-20.44
-16.58
-13.97
-13.20
-14.23
-16.38
-18.59
-19.77
-19.14
-16.48
-12.62
-8.91
-6.75
-7.09
-9.95
-14.54
-19.90
-25.66
-31.85
-38.05
-42.46
-41.87
-33.48
-17.54
1.28
15.43
18.40
8.77
-8.40
-23.96
-29.64
-22.60
-6.41
11.53
24.62
30.42
31.20
31.29
33.68
37.67
39.83
36.95
28.26
16.69
6.85
2.73
5.21
11.94
18.68
21.32
18.07
9.86
-0.37
-10.10
-17.94
-24.13
-29.69
-35.08
-39.45
-40.73
-36.76
-26.34
-10.29
9.47
29.54
47.10
60.39
67.76
68.11
60.73
47.13
29.16
11.67
1.26
2.88
17.91
42.70
69.94
91.15
99.12
89.70
64.26
29.01
-7.04
-35.01
-49.15
-48.67
-37.34
-19.81
-5.08
0.04
-5.57
-18.20
-32.54
-44.42
-53.27
-57.23
-54.10
-42.93
-25.54
-6.56
7.40
10.44
-0.15
-22.12
-48.51
-71.14
-83.95
-85.35
-77.45
-64.15
-49.36
-35.74
-24.40
-15.01
-7.47
-2.80
-3.66
-12.43
-29.39
-52.18
-75.75
-93.48
-98.81
-88.39
-59.65
-18.72
21.49
49.50
61.38
60.96
55.50
51.74
53.25
60.16
69.77
79.41
89.01
97.54
102.85
101.22
89.44
67.39
39.16
11.55
-8.06
-15.00
-8.90
3.79
11.84
6.76
-11.38
-35.34
-56.15
-68.57
-72.88
-75.06
-79.63
-88.69
-101.07
-112.46
-117.96
-114.22
-101.73
-84.32
-66.62
-51.69
-38.78
-25.62
-7.90
18.03
52.99
92.51
129.36
158.72
179.73
193.84
202.71
206.81
204.85
195.93
179.26
156.34
132.61
113.90
102.17
94.49
85.30
64.95
30.74
-12.24
-63.80
-122.06
-180.96
-232.61
-269.25
-285.06
-278.39
-242.71
-183.94
-119.63
-66.75
-31.29
-8.22
11.69
35.03
62.09
87.34
101.81
96.88
70.96
30.32
-13.47
-47.43
-61.29
-51.27
-21.08
18.41
55.07
77.79
80.47
63.64
34.22
2.80
-21.05
-32.77
-34.98
-34.76
-38.56
-48.14
-59.75
-66.30
-60.35
-39.13
-7.90
21.46
38.10
39.27
30.90
22.02
19.06
23.09
30.50
35.95
36.03
30.33
21.25
12.63
7.67
7.81
12.69
20.54
29.46
39.00
50.20
63.45
77.81
90.08
95.39
89.35
70.31
39.12
3.27
-28.89
-51.78
-64.12
-68.22
-67.47
-64.09
-58.59
-50.79
-41.01
-31.56
-25.57
-25.46
-31.87
-43.39
-57.06
-68.78
-74.95
-72.11
-58.98
-36.85
-9.65
17.26
38.86
51.98
57.10
57.94
59.18
62.63
66.15
64.23
51.05
23.79
-15.48
-60.15
-101.77
-131.80
-144.08
-135.71
-108.05
-65.69
-14.92
37.99
87.87
130.70
163.07
179.48
177.14
155.27
116.71
68.68
21.56
-14.83
-35.01
-39.73
-34.86
-27.60
-23.32
-23.65
-26.64
-29.07
-28.65
-25.13
-19.99
-15.40
-12.90
-13.23
-15.77
-18.98
-21.03
-20.54
-17.14
-11.74
-6.10
-2.14
-1.35
-3.91
-8.55
-12.88
-14.65
-12.52
-7.04
-0.31
4.70
5.16
-0.53
-12.42
-28.52
-45.08
-57.30
-60.47
-51.17
-28.88
3.18
38.48
68.81
86.96
89.10
76.08
52.75
25.92
1.41
-17.61
-31.29
-41.91
-51.66
-60.82
-66.56
-65.11
-51.92
-25.61
10.08
46.77
74.24
84.69
75.98
52.46
22.70
-5.05
-26.91
-44.01
-59.60
-75.05
-86.82
-88.04
-72.87
-40.89
1.80
44.79
78.19
96.50
99.51
90.94
74.79
53.54
28.04
-0.74
-30.77
-59.20
-83.38
-102.03
-114.08
-118.46
-113.53
-98.02
-72.12
-38.83
-3.49
28.84
51.07
61.13
62.15
59.60
57.70
57.41
56.87
53.56
46.58
37.19
28.80
24.73
26.91
35.48
48.54
63.12
74.59
78.12
69.70
48.28
16.19
-21.41
-57.97
-87.77
-107.64
-117.10
-117.52
-110.94
-98.58
-80.98
-58.77
-33.50
-7.12
15.41
30.15
35.80
33.76
27.40
20.40
15.25
12.56
11.34
9.84
7.08
3.11
-1.19
-4.73
-6.82
-7.41
-7.05
-6.62
-6.94
-8.23
-10.24
-12.54
-14.75
-16.64
-18.09
-18.96
-19.23
-18.96
-18.01
-16.30
-13.87
-10.79
-7.02
-1.98
4.86
13.84
25.00
37.98
51.91
65.59
77.93
88.23
95.12
99.54
102.48
104.89
107.64
111.37
116.13
120.82
123.03
119.35
107.03
85.03
55.19
21.90
-9.57
-35.13
-53.26
-65.09
-72.72
-77.67
-80.66
-81.52
-80.06
-76.61
-72.12
-67.67
-63.25
-59.14
-54.90
-50.15
-44.81
-39.24
-33.98
-29.44
-25.89
-23.25
-21.34
-19.70
-17.90
-15.63
-12.82
-9.67
-6.61
-4.10
-2.44
-1.63
-1.30
-0.98
-0.27
0.98
2.65
4.47
6.11
7.39
8.22
8.74
9.20
9.84
10.75
11.91
13.22
14.54
15.79
16.88
17.86
18.83
19.85
21.01
22.32
23.76
25.31
26.95
28.58
30.17
31.65
32.92
33.79
34.10
33.71
32.54
30.56
27.65
23.91
19.40
14.17
8.31
1.99
-4.53
-10.89
-16.26
-20.69
-24.01
-26.22
-27.51
-28.12
-28.29
-28.16
-27.92
-27.25
-26.04
-24.27
-22.14
-20.08
-18.56
-17.92
-18.11
-18.72
-19.02
-18.47
-16.78
-14.30
-11.87
-10.52
-10.93
-13.05
-16.00
-18.35
-18.90
-17.11
-13.64
-10.05
-8.23
-9.40
-13.53
-19.17
-24.04
-26.28
-25.07
-21.20
-16.66
-13.63
-13.70
-17.61
-25.16
-35.27
-45.79
-52.97
-51.94
-38.37
-11.19
25.39
61.99
87.17
92.32
75.59
42.96
5.36
-26.31
-45.65
-52.33
-50.40
-45.33
-40.04
-34.91
-28.79
-20.82
-11.53
-2.79
3.22
5.24
3.47
-1.00
-6.71
-13.14
-21.19
-32.42
-47.45
-64.45
-78.80
-83.68
-75.55
-54.72
-26.14
2.40
23.51
33.27
32.22
24.23
13.89
4.27
-3.58
-10.02
-15.59
-20.19
-23.19
-23.97
-22.41
-19.14
-14.83
-9.89
-4.25
2.69
11.35
21.62
32.60
42.91
50.88
55.24
55.68
52.84
48.00
42.56
37.76
34.54
33.53
35.23
39.95
48.01
59.62
74.65
92.64
112.61
132.11
149.35
161.88
166.93
162.24
146.85
121.69
89.76
55.54
23.83
-1.41
-18.45
-27.90
-32.39
-35.48
-40.46
-49.05
-61.20
-75.09
-88.33
-99.32
-107.98
-114.90
-119.85
-121.36
-116.87
-105.22
-88.41
-71.01
-57.31
-47.76
-37.55
-19.80
9.53
47.59
84.62
108.67
112.39
97.42
72.79
51.64
42.45
45.41
54.31
61.78
63.86
61.37
58.00
57.00
59.10
62.33
63.71
61.44
55.84
48.61
42.31
38.67
37.83
38.43
38.23
35.46
29.71
22.30
14.89
9.29
6.41
5.88
6.54
7.13
7.10
7.03
8.31
11.59
16.83
22.88
27.50
28.43
23.91
13.56
-2.42
-18.92
-33.42
-45.29
-56.01
-69.04
-88.03
-115.02
-148.97
-185.64
-217.92
-238.91
-242.79
-226.63
-192.99
-148.87
-104.80
-72.76
-62.25
-75.87
-108.25
-146.29
-173.70
-178.59
-155.94
-109.05
-47.79
14.73
66.27
96.12
97.27
67.86
9.88
-67.20
-147.84
-215.32
-257.66
-270.77
-260.49
-237.98
-203.83
-163.07
-120.76
-80.79
-45.08
-18.74
0.83
15.62
27.37
37.73
47.54
58.87
74.83
98.57
132.04
177.13
234.75
305.01
385.77
461.11
511.13
519.60
482.50
409.58
320.05
233.53
163.68
115.38
84.72
65.23
51.46
40.30
30.66
19.29
2.44
-22.42
-54.78
-90.89
-123.07
-143.25
-143.34
-124.56
-96.12
-69.92
-54.80
-53.43
-62.93
-76.94
-89.40
-97.03
-100.20
-100.97
-100.94
-100.62
-99.90
-98.82
-97.59
-96.66
-96.59
-97.90
-100.71
-104.22
-107.18
-108.56
-107.76
-104.70
-99.55
-93.00
-84.78
-74.45
-61.35
-45.03
-25.72
-4.36
17.29
37.07
52.93
63.33
67.41
65.16
57.19
44.35
27.77
8.47
-12.65
-34.69
-56.72
-78.04
-97.98
-116.13
-132.37
-146.64
-159.13
-170.18
-180.09
-188.98
-196.88
-203.48
-208.16
-211.81
-214.44
-215.71
-215.18
-212.29
-206.50
-197.41
-184.84
-168.92
-150.08
-128.72
-105.53
-81.37
-57.30
-34.49
-14.22
2.25
13.75
19.38
18.96
12.82
1.88
-12.19
-27.47
-42.20
-55.01
-65.05
-71.87
-75.28
-75.08
-71.12
-63.13
-51.23
-36.00
-18.55
-0.40
16.87
32.09
44.94
55.96
66.69
78.41
91.46
104.87
116.66
124.64
127.21
124.73
119.29
115.42
117.24
127.02
144.06
165.11
186.06
203.12
215.69
225.65
239.12
261.43
295.26
339.58
390.22
441.58
486.51
520.99
542.91
557.18
570.33
589.03
618.18
659.01
708.76
758.51
800.06
824.82
832.65
827.24
815.79
806.92
807.23
819.62
839.97
865.25
850.92
767.62
606.02
383.05
133.06
-110.32
-303.93
-449.98
-556.91
-630.29
-665.50
-657.69
-611.12
-535.00
-445.60
-367.80
-325.24
-327.15
-368.81
-429.75
-486.43
-521.75
-530.02
-517.16
-494.39
-473.19
-456.46
-442.24
-424.45
-399.46
-367.73
-332.66
-299.21
-271.06
-250.29
-234.41
-220.08
-203.78
-184.30
-162.75
-141.27
-122.27
-107.10
-95.96
-87.01
-78.26
-68.17
-56.62
-44.59
-33.34
-23.94
-16.73
-11.39
-6.81
-1.95
3.63
9.77
15.90
21.53
26.33
30.20
33.31
35.90
38.05
39.55
40.03
39.04
36.06
30.83
23.26
13.66
2.66
-8.85
-19.76
-28.98
-35.48
-38.65
-38.20
-34.63
-28.79
-21.60
-13.90
-6.43
0.21
5.49
8.91
10.13
8.18
2.58
-6.13
-16.24
-25.37
-31.07
-31.54
-25.97
-14.72
-0.71
12.77
23.39
30.38
34.44
36.64
37.83
38.20
37.20
31.60
18.83
-1.35
-26.35
-51.66
-73.20
-88.81
-99.40
-103.42
-105.50
-111.23
-124.77
-147.79
-179.95
-219.98
-265.45
-311.85
-340.56
-337.64
-299.28
-235.21
-162.73
-97.29
-47.52
-14.42
6.39
20.40
28.17
27.98
18.80
2.22
-15.63
-27.67
-27.83
-11.90
20.40
62.07
101.84
128.12
133.56
118.19
89.28
60.11
43.26
49.36
79.37
124.86
172.46
210.43
233.38
242.30
233.24
206.80
167.14
118.42
63.62
4.78
-54.75
-106.88
-148.05
-174.96
-184.39
-175.06
-149.16
-111.17
-67.99
-26.91
4.40
18.58
12.12
-11.83
-43.11
-69.39
-80.56
-72.07
-45.52
-7.08
35.43
76.23
113.06
147.57
180.42
209.75
232.31
246.28
253.02
256.69
263.26
278.11
306.46
348.26
397.42
443.55
475.97
487.40
476.07
445.92
389.63
311.13
222.45
138.26
68.39
15.38
-22.27
-46.27
-57.05
-57.70
-50.25
-38.99
-29.70
-27.19
-33.33
-46.71
-62.77
-78.13
-91.97
-104.12
-117.44
-137.09
-168.11
-212.45
-266.27
-319.63
-359.04
-371.90
-350.55
-297.90
-227.73
-159.63
-111.20
-91.70
-99.89
-126.62
-159.42
-185.63
-195.83
-185.06
-153.09
-104.43
-48.21
3.55
39.14
50.82
37.85
6.03
-35.73
-79.24
-119.33
-154.37
-185.23
-214.45
-245.72
-281.89
-323.29
-366.53
-404.47
-427.84
-428.69
-403.63
-355.58
-293.58
-228.14
-167.69
-116.67
-75.07
-40.50
-10.34
16.81
46.16
76.68
103.79
122.46
129.90
127.68
119.36
108.69
98.47
90.75
87.06
90.02
101.79
122.19
148.02
172.36
187.45
188.87
178.90
165.63
159.98
169.72
195.69
234.52
280.34
328.34
376.28
423.51
467.92
504.61
526.11
511.42
450.51
350.85
236.02
132.92
58.07
12.76
-12.23
-28.04
-44.84
-65.02
-86.17
-105.18
-121.58
-137.67
-156.86
-179.93
-206.01
-233.64
-260.75
-285.51
-306.21
-320.74
-325.69
-316.94
-291.97
-252.40
-198.02
-136.72
-80.70
-39.64
-15.61
-3.35
6.40
20.07
40.27
66.52
95.80
124.05
146.94
157.74
151.42
128.60
96.96
67.47
47.85
38.43
34.66
31.36
26.40
21.77
21.55
28.61
42.01
56.93
65.59
61.72
42.55
9.47
-31.78
-73.06
-105.16
-120.26
-114.22
-88.39
-49.46
-8.08
24.30
39.77
33.59
9.21
-22.57
-47.63
-54.71
-40.68
-12.30
16.63
31.98
24.45
-5.93
-51.84
-103.21
-151.75
-192.67
-223.41
-241.55
-243.13
-225.14
-186.55
-131.03
-66.68
-2.94
53.41
100.17
135.50
162.40
178.33
179.08
162.04
129.84
91.00
56.24
33.13
22.06
17.59
12.21
3.43
-4.27
-2.81
13.41
42.66
75.77
100.99
110.95
105.49
91.45
77.32
67.63
61.06
52.99
40.79
27.52
21.71
32.16
61.93
104.32
144.12
163.86
151.81
107.44
41.86
-27.18
-82.82
-114.43
-119.37
-100.82
-64.43
-16.39
36.63
87.20
127.06
148.48
147.06
123.16
81.67
30.20
-24.06
-76.21
-124.20
-167.92
-207.56
-242.22
-269.09
-283.99
-283.44
-266.96
-238.53
-205.92
-178.09
-161.05
-154.71
-152.90
-146.46
-128.33
-97.11
-57.48
-17.71
14.56
35.64
46.71
51.87
55.64
60.22
65.09
69.06
72.39
77.54
87.53
102.85
119.70
131.72
132.98
122.02
104.35
90.39
90.81
111.22
149.59
198.22
248.85
294.54
330.41
354.45
366.93
370.34
368.44
363.99
357.77
349.68
337.43
318.06
291.72
261.77
233.17
208.82
186.13
158.18
120.02
70.53
13.70
-41.10
-83.69
-108.69
-112.48
-99.94
-95.78
-118.03
-168.27
-241.50
-326.51
-409.60
-477.24
-518.53
-528.53
-508.33
-463.73
-406.93
-355.62
-325.35
-323.96
-347.92
-384.20
-417.13
-432.70
-421.54
-381.28
-317.20
-238.08
-154.32
-76.03
-11.44
33.12
56.41
63.44
63.09
62.23
64.42
68.37
69.99
70.32
69.62
71.28
73.82
81.16
95.78
121.20
155.31
192.45
226.37
247.22
249.37
235.20
214.30
195.55
183.36
176.94
173.46
170.17
165.67
159.66
151.34
139.70
122.82
99.39
69.13
32.92
-6.12
-45.90
-84.94
-123.02
-161.07
-201.49
-246.35
-295.63
-345.19
-388.36
-417.49
-426.60
-413.84
-382.28
-338.96
-292.09
-248.35
-210.41
-179.34
-153.79
-131.51
-110.11
-87.11
-60.33
-27.94
11.18
58.30
109.96
161.03
203.43
228.28
229.50
207.24
169.08
127.56
96.84
82.35
83.53
93.88
106.03
116.98
129.83
150.83
172.59
205.33
236.94
253.69
243.95
202.92
135.57
54.70
-23.62
-85.46
-121.04
-130.36
-117.96
-92.03
-61.64
-31.77
-3.25
25.82
58.07
97.29
145.29
203.35
270.06
339.63
405.52
460.11
496.13
508.78
498.92
472.72
439.02
404.93
372.05
341.31
312.81
286.57
262.70
228.70
180.54
123.02
77.12
45.53
26.23
13.81
5.12
-2.87
-12.89
-24.96
-38.47
-52.67
-68.50
-84.03
-96.94
-107.59
-118.23
-131.42
-146.86
-163.10
-178.72
-194.08
-208.36
-221.23
-236.17
-257.47
-288.47
-329.22
-378.02
-432.25
-488.81
-540.87
-578.89
-596.52
-590.44
-562.54
-519.69
-473.13
-435.29
-415.51
-415.29
-405.49
-362.09
-275.16
-156.11
-28.90
85.50
177.38
247.04
300.23
342.41
373.03
389.37
389.82
376.27
353.35
326.76
301.32
279.65
261.18
241.14
215.18
181.78
141.74
98.47
55.90
15.98
-16.03
-38.63
-53.49
-62.63
-67.07
-68.77
-69.23
-70.19
-74.33
-84.25
-102.97
-133.18
-176.66
-221.10
-255.81
-273.39
-271.54
-250.95
-212.67
-159.91
-98.60
-37.23
16.40
56.76
82.64
100.82
117.31
135.86
153.02
164.27
165.58
156.53
138.57
118.85
105.61
103.27
110.97
123.13
133.91
139.76
140.89
138.45
134.10
127.67
118.30
106.12
92.62
80.64
74.57
77.21
88.48
106.49
126.26
143.59
156.73
165.90
172.40
175.96
175.10
167.95
153.33
127.79
90.31
42.89
-11.99
-68.96
-124.88
-178.24
-228.55
-276.26
-326.58
-381.91
-439.29
-491.03
-527.65
-541.90
-530.76
-496.71
-422.11
-312.65
-191.88
-86.11
-8.51
42.54
74.65
94.63
106.36
111.73
108.43
97.45
83.44
71.85
65.66
64.14
64.57
64.35
62.08
54.78
42.52
28.22
15.62
6.74
1.04
-3.16
-7.55
-13.14
-21.78
-33.29
-45.55
-55.78
-62.10
-64.03
-62.31
-56.82
-47.52
-35.16
-19.98
-1.72
19.76
43.85
68.10
90.53
109.65
124.39
134.01
138.52
138.64
135.43
129.89
122.86
115.09
107.20
99.44
92.02
85.02
78.44
72.26
66.40
60.77
55.47
50.58
46.05
41.88
38.05
34.52
31.28
28.27
25.45
22.90
20.65
18.65
16.97
15.62
14.60
13.85
13.31
12.89
12.58
12.72
13.02
13.52
14.27
15.33
16.68
18.34
20.24
22.36
24.62
26.90
29.43
31.74
33.32
33.59
31.98
28.01
21.40
12.28
1.07
-11.94
-25.24
-37.88
-49.23
-58.90
-66.67
-72.31
-75.50
-75.75
-72.67
-66.13
-56.61
-45.19
-33.30
-22.31
-13.12
-5.84
0.18
6.04
12.62
20.07
27.68
34.13
38.22
39.39
38.07
35.56
33.45
32.95
34.77
39.16
46.03
54.77
63.60
69.47
68.58
58.03
37.52
10.16
-18.67
-43.30
-60.21
-69.34
-73.01
-73.71
-71.97
-66.35
-54.76
-36.84
-14.83
7.01
24.34
34.55
37.78
36.44
34.25
35.06
41.40
54.09
71.88
91.63
109.18
120.91
125.29
123.42
118.55
113.39
109.60
107.50
106.73
106.83
108.03
110.16
111.30
108.12
95.16
69.15
31.68
-10.76
-49.50
-77.50
-91.43
-93.48
-88.54
-84.50
-86.18
-93.17
-101.19
-105.40
-103.73
-96.89
-89.54
-86.69
-95.56
-119.62
-156.80
-200.71
-243.80
-280.69
-307.71
-325.37
-311.60
-255.59
-163.76
-56.54
45.59
131.80
192.94
237.01
268.93
290.64
298.60
289.62
266.12
232.82
195.72
159.40
127.33
98.75
71.76
41.61
5.11
-38.17
-85.89
-134.18
-179.14
-216.13
-241.69
-252.33
-247.68
-230.14
-205.86
-182.39
-165.87
-158.92
-159.43
-163.07
-164.82
-162.24
-155.97
-150.42
-149.72
-154.52
-161.33
-163.85
-156.18
-135.09
-102.09
-63.32
-29.62
-10.21
-8.33
-20.48
-39.32
-58.23
-74.16
-88.10
-88.52
-70.22
-36.01
5.81
48.58
89.41
126.66
157.94
180.81
194.31
197.39
191.63
180.79
169.59
161.18
156.29
153.70
151.84
149.66
145.29
138.33
129.90
122.16
116.78
114.07
113.28
113.44
113.86
113.07
110.23
105.32
98.87
91.30
82.49
72.04
59.71
45.55
29.49
12.79
-3.85
-19.34
-32.71
-43.37
-51.16
-56.16
-58.65
-59.19
-58.38
-56.81
-54.81
-52.57
-50.24
-47.93
-45.70
-43.56
-41.53
-39.55
-37.70
-36.03
-34.54
-33.24
-32.13
-31.22
-30.45
-29.83
-29.36
-29.06
-28.96
-29.05
-29.35
-29.85
-30.54
-31.38
-32.38
-33.56
-34.90
-36.43
-38.12
-39.87
-41.58
-43.46
-44.90
-45.55
-45.47
-43.92
-40.56
-35.21
-27.81
-18.55
-7.81
3.83
15.57
26.60
36.20
43.68
48.62
50.82
50.27
47.20
42.11
35.56
28.24
20.95
14.35
9.00
5.30
3.29
2.85
3.61
5.04
6.73
8.44
9.99
11.47
13.01
14.65
16.30
17.74
18.71
19.05
18.90
18.40
17.91
17.83
18.22
18.82
19.05
18.36
16.52
13.77
10.50
7.45
5.35
4.50
4.71
5.36
5.61
4.56
1.42
-4.58
-13.01
-22.22
-29.57
-32.22
-28.22
-17.48
-1.82
17.93
38.59
57.24
72.15
83.06
90.54
95.20
97.18
96.34
92.57
85.97
77.39
67.78
57.93
48.29
39.16
30.47
21.97
13.11
2.96
-8.91
-22.64
-37.33
-51.25
-62.48
-69.88
-73.68
-75.24
-76.54
-78.90
-83.32
-89.64
-96.70
-102.75
-106.19
-105.97
-101.50
-92.67
-79.55
-63.51
-46.16
-29.19
-14.20
-2.75
3.89
5.36
2.32
1.47
6.84
17.76
29.29
36.27
36.58
31.28
23.39
16.04
11.29
8.77
7.28
5.87
4.50
3.69
3.89
5.17
7.14
9.26
10.37
9.79
7.64
4.74
2.12
0.37
-0.41
-0.57
-0.57
-1.26
-3.12
-6.12
-9.69
-13.12
-16.09
-18.52
-20.60
-22.66
-25.19
-28.46
-32.45
-36.86
-41.30
-45.67
-49.87
-54.01
-58.23
-62.76
-67.70
-73.07
-78.68
-84.29
-89.78
-94.81
-99.07
-102.25
-103.93
-103.59
-100.75
-95.45
-86.89
-74.83
-58.97
-39.43
-16.67
8.65
35.64
63.29
90.61
116.71
139.51
158.64
173.88
185.11
192.37
195.80
195.61
192.09
187.01
179.69
170.30
159.11
146.56
133.08
119.10
105.13
91.68
79.20
67.79
57.90
49.56
42.68
37.01
32.04
27.18
21.85
15.56
7.70
-1.83
-13.06
-26.23
-40.64
-55.63
-70.67
-85.14
-98.51
-110.49
-120.66
-128.79
-134.67
-138.27
-139.66
-139.03
-136.46
-132.00
-125.75
-117.77
-108.61
-98.16
-86.51
-74.07
-61.30
-48.70
-36.76
-25.91
-16.50
-8.74
-2.65
1.77
4.56
5.86
5.85
4.79
2.89
0.35
-2.70
-6.12
-9.87
-13.96
-18.43
-23.29
-28.40
-33.65
-38.97
-44.27
-49.45
-54.48
-59.38
-64.19
-68.99
-73.63
-78.10
-82.44
-86.74
-91.08
-95.56
-100.28
-105.34
-110.87
-116.62
-122.46
-128.21
-133.63
-138.32
-141.69
-142.87
-140.77
-136.66
-131.02
-124.21
-116.61
-108.50
-100.08
-91.43
-82.52
-73.40
-64.31
-55.37
-46.93
-39.40
-33.04
-27.71
-22.95
-17.82
-11.47
-3.56
5.92
16.29
26.58
36.01
44.38
52.18
60.94
72.03
85.94
102.11
118.89
134.34
147.05
156.95
165.28
175.40
190.27
211.23
237.37
265.95
293.65
318.00
338.50
356.40
376.19
402.20
437.59
483.50
538.68
599.32
658.84
708.61
739.52
747.82
734.62
706.31
672.08
640.26
614.97
594.94
575.47
534.01
457.75
345.09
206.73
60.68
-75.64
-191.59
-284.38
-355.52
-407.65
-439.93
-451.78
-444.20
-421.43
-390.02
-356.77
-328.56
-309.58
-300.50
-297.06
-294.30
-289.08
-282.64
-279.39
-284.52
-300.37
-324.22
-348.90
-364.64
-364.94
-346.05
-311.66
-268.53
-222.94
-178.94
-138.81
-105.50
-82.69
-74.69
-82.72
-102.65
-124.37
-136.32
-131.60
-111.39
-84.19
-60.40
-48.59
-48.25
-53.45
-54.14
-42.02
-15.27
21.06
55.99
84.48
104.93
118.91
128.14
133.34
132.95
123.41
101.66
66.74
21.83
-28.81
-80.14
-128.31
-171.45
-210.01
-245.80
-280.05
-312.38
-332.40
-331.50
-305.16
-255.63
-190.77
-120.76
-54.55
2.60
48.83
85.34
113.18
133.51
147.20
155.01
157.87
156.73
152.89
147.77
143.25
140.25
139.14
139.99
142.37
145.44
147.87
148.78
146.34
139.60
127.79
111.07
90.26
66.43
40.54
13.20
-15.67
-47.32
-82.36
-119.62
-154.58
-179.96
-188.36
-175.40
-142.13
-95.41
-45.55
-2.81
24.80
32.72
20.04
-10.03
-50.15
-89.34
-115.97
-121.55
-104.40
-70.57
-31.39
1.44
20.83
25.97
20.70
10.01
-2.62
-15.94
-29.67
-42.78
-53.20
-58.43
-57.18
-49.58
-37.93
-25.18
-13.92
-5.25
1.40
7.38
13.95
21.40
28.92
34.74
37.17
35.24
29.43
21.46
13.55
7.79
5.15
5.43
7.42
9.36
9.67
7.41
2.51
-4.68
-13.39
-22.85
-32.60
-42.32
-51.93
-61.30
-70.31
-78.57
-85.79
-91.57
-95.80
-98.63
-100.30
-101.39
-102.28
-103.37
-104.95
-107.19
-109.71
-112.11
-114.08
-115.32
-115.73
-115.08
-113.05
-109.04
-104.33
-99.00
-92.74
-85.24
-76.33
-66.17
-55.27
-44.32
-34.02
-24.62
-15.68
-6.45
3.78
15.48
28.71
43.14
58.16
73.10
87.68
102.08
116.72
132.19
149.22
168.52
190.29
213.75
236.62
255.20
265.29
263.31
247.99
221.14
187.64
153.81
125.55
106.55
97.60
97.08
101.86
108.73
115.02
119.02
119.79
117.36
112.56
107.40
104.53
106.20
112.65
120.95
125.16
118.19
94.93
54.96
3.62
-49.15
-92.00
-115.80
-116.23
-94.62
-57.02
-12.29
30.06
61.83
78.02
77.69
64.19
44.01
24.11
9.53
1.53
-2.27
-6.78
-16.98
-35.88
-62.90
-93.76
-122.11
-141.67
-148.05
-139.44
-116.18
-79.80
-32.46
23.01
83.63
145.18
202.60
251.13
287.72
311.83
324.72
328.19
323.68
313.63
300.98
289.17
280.69
275.65
270.99
261.14
240.58
199.12
135.39
57.20
-20.85
-84.33
-126.16
-149.64
-164.74
-181.22
-203.21
-226.90
-245.10
-252.43
-248.74
-238.92
-229.65
-225.30
-225.76
-227.19
-223.70
-211.64
-191.60
-168.13
-147.48
-134.66
-130.93
-133.58
-137.25
-136.00
-125.98
-107.14
-83.29
-60.33
-43.92
-37.27
-40.70
-52.13
-67.38
-81.03
-87.50
-82.66
-64.85
-35.78
-0.62
32.66
55.53
61.62
47.62
17.69
-19.63
-54.91
-81.42
-96.60
-102.12
-101.28
-96.18
-86.04
-67.44
-37.46
3.70
50.92
96.88
133.92
157.57
167.74
167.80
162.37
154.14
143.18
127.86
107.40
83.02
58.83
40.20
31.60
34.47
45.53
57.65
61.83
50.64
21.20
-22.98
-72.67
-116.13
-142.53
-148.07
-136.37
-115.62
-94.01
-76.07
-61.59
-47.13
-29.73
-8.91
12.36
30.06
40.95
43.43
37.68
25.18
7.92
-11.52
-29.02
-39.51
-37.71
-20.83
8.86
44.07
75.19
94.70
100.45
96.26
89.28
86.44
91.17
102.00
114.00
121.10
118.56
103.69
75.87
35.96
-13.64
-67.18
-117.50
-158.03
-185.12
-198.94
-203.58
-205.85
-212.24
-225.45
-242.69
-256.88
-259.59
-244.67
-210.60
-161.88
-107.42
-56.56
-15.23
15.83
39.25
58.51
76.23
94.23
113.10
132.64
152.50
171.93
188.92
199.28
197.46
175.46
132.93
79.72
31.06
-1.04
-13.68
-11.71
-2.49
8.90
22.17
41.60
69.43
101.21
127.73
139.29
130.25
101.69
57.83
11.60
-20.91
-29.07
-14.88
11.31
38.40
58.77
74.09
87.46
100.39
111.10
114.75
102.67
68.09
9.93
-65.89
-149.47
-231.47
-304.38
-363.47
-392.37
-381.68
-332.58
-257.05
-170.47
-84.28
-4.98
64.80
122.60
170.81
206.62
226.90
231.13
221.86
203.01
177.38
144.18
105.88
66.83
29.06
-5.94
-36.79
-61.76
-79.27
-88.82
-90.92
-86.27
-76.67
-65.89
-57.00
-51.34
-48.59
-47.55
-47.09
-46.40
-44.43
-41.21
-38.21
-36.85
-37.88
-41.60
-47.63
-55.37
-66.39
-77.89
-87.50
-93.38
-93.84
-87.32
-73.74
-53.35
-27.46
1.83
32.25
60.49
82.66
95.27
96.30
85.52
66.23
44.01
24.50
11.36
4.55
1.14
-2.16
-1.46
5.34
21.36
49.12
88.57
135.89
184.20
225.60
255.29
270.14
268.39
251.39
222.46
186.19
145.83
101.65
50.35
-13.25
-91.44
-184.15
-287.44
-394.25
-494.00
-575.46
-628.17
-645.56
-626.06
-575.31
-506.57
-437.11
-383.73
-354.66
-349.24
-345.49
-319.74
-255.32
-153.49
-33.19
80.77
169.23
227.40
265.42
292.99
314.03
328.18
333.98
332.23
328.44
313.38
290.93
266.36
244.34
226.07
209.32
190.56
167.86
142.15
116.08
102.77
102.36
111.19
123.92
134.31
137.47
131.35
116.74
96.36
77.34
64.70
54.30
46.19
41.39
42.09
51.16
70.95
91.59
106.84
112.35
108.65
99.84
89.19
78.71
69.58
62.30
56.84
54.36
53.35
50.06
40.12
19.14
-14.11
-56.24
-99.96
-136.49
-157.42
-159.83
-146.73
-125.06
-103.01
-86.14
-75.39
-68.30
-61.50
-52.62
-42.28
-33.32
-28.60
-29.35
-34.05
-39.08
-41.32
-39.18
-33.28
-25.80
-19.05
-14.17
-10.91
-8.16
-4.87
-0.82
3.39
6.96
9.34
10.84
12.51
15.83
21.57
29.40
37.68
44.28
46.95
44.80
38.81
30.96
23.18
16.53
10.83
5.16
-1.30
-8.67
-16.10
-22.23
-26.66
-29.75
-32.15
-34.39
-36.17
-36.68
-35.02
-31.20
-26.01
-20.85
-17.07
-14.88
-14.10
-13.96
-13.92
-13.35
-12.29
-10.55
-7.69
-3.10
3.71
12.14
20.42
25.91
25.79
18.48
4.47
-13.46
-31.13
-44.46
-51.14
-50.87
-44.77
-34.94
-23.14
-10.65
1.82
12.97
21.64
26.41
26.72
22.42
15.20
7.98
3.23
1.80
2.52
3.61
3.46
1.83
-0.41
-2.08
-2.58
-2.31
-2.14
-2.33
-2.26
-0.96
1.63
4.24
4.56
0.87
-6.55
-15.25
-21.24
-21.57
-16.00
-7.03
1.59
6.43
6.37
2.60
-2.39
-5.98
-6.69
-4.55
-0.59
3.57
6.43
7.15
5.72
2.60
-1.27
-4.95
-7.64
-8.58
-7.70
-5.22
-1.82
1.83
4.74
6.15
5.54
2.91
-0.83
-4.28
-5.57
-3.67
1.10
6.91
11.40
12.48
9.44
3.35
-3.59
-8.90
-10.81
-8.85
-3.66
3.16
9.87
14.62
16.14
13.88
8.32
1.04
-5.80
-9.74
-9.72
-6.15
-1.11
3.02
4.28
2.25
-1.93
-6.45
-9.32
-9.48
-6.60
-1.46
4.44
9.35
11.82
11.10
7.32
1.68
-4.22
-8.61
-10.19
-8.73
-4.65
0.77
6.32
10.51
12.35
11.22
7.23
1.46
-4.50
-8.57
-9.65
-7.81
-4.45
-1.33
-0.09
-1.21
-4.03
-7.26
-9.35
-9.36
-6.86
-1.98
4.49
11.34
16.91
19.35
17.15
10.02
-0.80
-12.60
-21.74
-25.54
-22.93
-15.30
-5.64
2.16
5.06
1.87
-6.36
-16.55
-24.97
-27.80
-22.95
-10.54
6.90
25.22
39.67
46.57
44.64
35.42
23.33
14.02
12.35
20.41
35.97
53.15
64.25
62.95
46.74
18.19
-16.32
-49.26
-74.57
-90.08
-96.99
-98.28
-96.23
-91.72
-83.99
-72.46
-57.71
-41.49
-26.20
-13.04
-2.03
7.39
15.23
20.44
20.96
15.04
2.68
-14.07
-31.33
-44.75
-51.50
-50.80
-44.25
-34.91
-26.62
-22.46
-24.15
-31.34
-41.04
-48.59
-48.55
-37.52
-15.88
11.56
37.46
54.32
58.19
50.36
36.49
24.22
19.66
25.07
38.57
55.69
71.22
81.25
83.86
78.74
66.89
50.47
32.39
16.58
6.50
3.91
8.04
16.03
23.94
28.65
28.83
24.62
17.66
9.53
1.51
-5.96
-12.67
-18.39
-22.48
-24.81
-25.99
-26.96
-28.36
-30.13
-30.99
-29.22
-23.48
-13.25
0.51
15.40
28.72
37.97
41.52
39.28
32.44
23.31
14.60
8.66
6.43
7.44
9.53
10.16
7.64
1.66
-6.11
-12.95
-15.87
-13.12
-4.91
6.68
18.28
26.63
29.15
24.91
14.97
2.18
-9.71
-17.05
-17.67
-11.52
-0.74
10.56
18.17
19.13
13.01
2.04
-9.23
-15.36
-12.05
1.77
22.58
43.52
56.34
54.86
38.03
10.82
-16.89
-33.69
-30.91
-6.35
34.80
81.48
120.28
140.19
135.85
109.04
67.70
23.05
-14.41
-37.86
-45.54
-40.29
-27.28
-12.08
0.89
8.89
10.75
6.49
-2.58
-14.32
-26.05
-35.08
-39.63
-39.00
-34.07
-26.96
-20.36
-16.71
-17.14
-20.79
-24.82
-25.96
-22.00
-13.18
-2.52
5.63
7.35
1.11
-11.09
-24.63
-34.32
-37.03
-32.87
-24.94
-17.66
-14.77
-17.31
-23.36
-29.13
-30.82
-26.36
-16.20
-2.91
10.01
19.29
23.01
20.52
12.34
0.02
-14.35
-28.21
-38.97
-44.73
-44.47
-38.64
-28.90
-18.18
-9.47
-5.18
-6.05
-10.61
-15.79
-17.75
-14.18
-5.45
5.34
13.87
16.14
10.72
-0.76
-14.66
-26.52
-32.76
-31.68
-23.38
-9.93
5.52
19.34
28.34
30.36
25.47
15.96
5.71
-0.76
-0.74
6.04
16.87
27.63
33.99
33.51
26.22
14.32
1.49
-8.84
-14.21
-14.21
-10.26
-4.87
-0.43
1.48
0.51
-2.17
-5.09
-6.58
-5.90
-3.20
0.61
4.20
6.57
7.07
5.83
2.95
-1.32
-7.02
-14.13
-22.22
-30.49
-37.41
-41.39
-40.80
-35.05
-24.60
-11.04
3.12
15.53
24.30
28.86
29.49
27.42
24.16
21.24
19.76
19.71
20.32
20.19
18.40
14.50
9.46
4.77
1.88
1.74
4.10
8.20
12.74
16.51
18.53
18.36
15.82
11.15
5.01
-1.75
-8.11
-13.04
-15.88
-16.11
-13.72
-9.07
-3.60
0.86
2.34
-0.32
-6.55
-14.26
-20.33
-22.65
-21.12
-17.76
-15.37
-16.29
-20.75
-27.13
-32.86
-35.57
-34.00
-27.83
-17.41
-3.69
11.74
26.23
36.34
39.05
33.28
20.91
6.57
-3.85
-6.26
0.03
11.76
23.55
29.99
28.07
18.15
3.48
-11.10
-20.89
-22.26
-14.03
2.39
23.32
43.94
59.39
66.44
64.15
54.40
41.21
29.45
23.14
24.55
33.27
46.84
61.32
72.71
78.24
77.01
70.21
60.70
52.34
48.16
49.32
54.25
59.14
58.45
46.52
19.10
-24.98
-82.74
-147.55
-210.18
-261.48
-294.63
-307.17
-301.64
-284.17
-261.86
-240.03
-221.01
-204.24
-187.37
-167.33
-141.86
-110.61
-74.86
-36.60
2.47
40.84
77.23
111.12
144.74
181.74
223.48
266.94
304.99
328.57
329.13
302.38
250.83
186.24
124.76
78.76
52.14
41.28
38.31
34.65
24.09
4.60
-18.22
-35.06
-38.64
-26.00
3.90
51.36
115.19
191.68
252.92
270.73
239.96
180.92
115.98
56.86
6.31
-36.43
-72.78
-103.48
-125.33
-134.81
-132.24
-123.12
-113.49
-106.99
-104.14
-103.58
-103.04
-98.40
-86.80
-69.48
-51.78
-39.06
-34.18
-37.20
-46.28
-58.80
-70.66
-77.94
-78.83
-74.25
-65.30
-53.11
-38.98
-24.22
-10.69
0.59
8.80
13.10
12.65
7.77
0.23
-7.41
-12.38
-13.57
-11.34
-7.52
-4.42
-4.19
-7.28
-12.56
-17.95
-21.20
-20.91
-16.78
-9.55
-0.87
7.00
11.97
12.33
7.54
-1.43
-12.55
-23.07
-30.28
-32.84
-30.51
-24.33
-15.66
-6.28
2.43
9.29
13.81
16.38
17.99
20.40
24.69
30.69
36.62
39.97
38.46
31.41
20.29
8.01
-2.10
-7.70
-8.09
-4.00
2.73
10.02
15.83
18.46
16.84
11.00
2.26
-7.00
-13.69
-15.96
-13.53
-8.10
-2.14
1.77
2.40
-0.04
-4.25
-8.36
-10.75
-10.20
-6.54
-0.64
5.77
10.93
13.61
13.50
11.43
8.67
6.75
6.73
8.89
12.86
17.56
21.67
23.45
21.58
15.35
5.42
-6.30
-17.15
-24.10
-25.40
-20.78
-12.00
-1.88
6.08
9.63
8.44
4.09
-0.42
-1.99
1.45
9.98
21.63
33.42
43.09
49.50
52.08
50.54
45.08
36.77
27.77
20.84
18.71
23.85
36.83
54.59
71.81
83.37
86.71
82.45
73.30
62.14
51.79
42.73
31.67
13.49
-15.76
-56.72
-107.09
-162.84
-219.36
-268.95
-302.27
-311.25
-290.91
-239.90
-161.54
-64.28
41.76
131.15
181.32
189.72
170.70
140.72
110.40
83.91
61.57
42.45
25.55
12.72
6.39
6.66
10.93
16.04
19.87
21.41
20.48
17.07
13.22
11.34
12.24
14.89
17.89
20.13
20.68
18.73
13.28
4.94
-4.82
-14.69
-23.83
-31.43
-36.30
-37.02
-32.16
-20.97
-3.68
17.26
36.51
47.19
44.80
29.53
6.33
-17.13
-34.02
-40.86
-38.44
-30.66
-21.70
-13.80
-7.08
-0.86
4.95
9.23
10.24
6.87
-0.65
-10.53
-20.22
-27.33
-30.79
-30.78
-28.39
-25.02
-21.54
-18.17
-14.46
-9.70
-3.41
4.31
12.94
21.68
29.81
37.19
44.08
51.00
58.25
65.80
72.98
78.67
81.58
80.57
75.17
65.51
52.35
36.95
20.80
5.15
-8.98
-20.97
-30.47
-37.46
-42.18
-45.02
-46.56
-46.98
-46.57
-45.56
-44.23
-42.84
-41.65
-41.05
-41.25
-42.07
-43.27
-44.44
-45.15
-45.38
-45.31
-45.54
-46.92
-50.04
-54.91
-61.10
-67.71
-73.74
-78.67
-82.71
-86.01
-89.22
-92.65
-95.97
-98.17
-97.93
-94.60
-88.22
-79.72
-70.70
-62.90
-57.41
-54.86
-55.40
-58.48
-61.87
-62.62
-56.09
-38.28
-8.12
31.71
74.61
112.68
140.00
154.63
158.89
157.56
155.43
153.10
149.62
142.76
131.01
114.62
95.35
75.41
56.65
39.87
25.13
12.42
1.93
-5.58
-9.01
-7.44
-1.16
9.31
22.14
35.22
47.17
57.41
65.76
71.38
72.24
65.86
51.01
29.09
4.64
-16.18
-28.52
-31.04
-26.36
-19.53
-15.00
-14.40
-16.32
-18.19
-17.61
-14.14
-9.18
-4.66
-1.58
0.57
3.04
6.61
10.86
14.46
16.22
16.53
17.49
22.25
32.71
48.01
63.47
72.26
68.46
50.27
21.01
-12.29
-41.96
-62.68
-72.85
-74.01
-68.39
-57.48
-42.12
-23.76
-5.93
5.84
6.51
-5.40
-26.51
-49.18
-65.29
-70.16
-64.05
-51.29
-37.17
-25.65
-17.91
-12.99
-9.68
-8.05
-8.82
-11.89
-16.02
-18.59
-17.37
-11.16
-0.73
11.89
23.63
31.67
34.57
31.29
22.10
8.45
-6.45
-18.09
-22.40
-17.72
-6.11
7.20
15.08
12.94
0.57
-16.92
-31.34
-35.43
-26.11
-6.29
17.41
36.80
46.54
45.28
35.64
21.97
7.51
-6.34
-20.12
-33.24
-43.23
-44.76
-33.12
-7.46
27.56
61.61
82.87
78.54
43.66
-16.88
-88.80
-153.17
-192.38
-195.50
-161.65
-99.13
-23.20
49.71
105.64
136.48
141.36
126.26
101.99
79.80
68.19
70.35
84.49
104.61
123.23
133.68
131.99
117.72
93.44
63.96
34.68
10.07
-7.09
-15.91
-16.42
-9.06
5.35
24.89
45.56
61.66
67.57
60.12
40.43
13.37
-15.08
-40.42
-61.45
-79.60
-96.98
-114.26
-129.94
-141.58
-148.02
-150.92
-154.76
-165.53
-187.57
-220.81
-259.18
-291.58
-304.90
-288.97
-240.72
-166.67
-81.57
-4.20
49.39
71.67
65.68
43.71
21.38
11.58
19.97
43.92
75.23
104.53
124.87
133.62
131.60
121.11
104.63
84.41
63.03
43.27
27.42
16.52
9.81
4.96
-0.82
-9.40
-20.68
-32.56
-42.73
-50.37
-55.80
-60.17
-63.91
-66.32
-65.21
-58.00
-42.65
-19.99
6.89
35.90
66.46
98.30
129.78
157.38
176.86
186.86
187.76
182.42
176.47
175.71
182.71
196.25
212.78
228.85
243.62
254.15
255.22
242.04
211.83
164.04
100.81
26.94
-60.81
-146.13
-207.45
-236.17
-237.50
-220.55
-192.65
-158.77
-123.64
-92.68
-69.69
-58.34
-60.45
-72.63
-86.56
-94.12
-91.39
-80.27
-66.50
-54.77
-49.04
-50.45
-57.18
-63.92
-65.55
-59.95
-48.37
-34.09
-19.76
-7.91
-0.14
4.18
7.27
11.20
16.93
23.90
31.33
38.74
45.01
48.86
49.40
46.81
41.84
35.47
28.67
22.35
17.08
12.41
7.37
1.12
-6.24
-13.39
-18.31
-18.74
-12.75
0.33
19.25
40.85
60.62
73.97
77.59
70.67
54.74
32.80
7.94
-17.77
-43.18
-67.72
-90.24
-108.69
-120.78
-124.72
-120.15
-108.11
-90.42
-69.31
-47.04
-26.07
-8.95
1.65
4.12
-1.00
-11.01
-21.53
-28.53
-29.29
-22.49
-7.82
13.46
38.64
63.88
85.10
99.06
104.69
103.80
100.30
97.78
97.56
97.84
95.39
88.16
76.00
60.74
44.55
29.26
15.37
2.43
-10.59
-24.35
-38.85
-55.12
-75.36
-103.01
-140.11
-180.92
-211.70
-221.01
-208.49
-180.80
-144.70
-104.07
-63.60
-21.76
20.13
58.24
87.49
104.82
111.99
106.82
92.88
75.00
58.09
45.12
36.96
32.16
28.34
23.67
17.19
10.33
4.54
1.53
1.73
4.50
7.59
8.53
5.99
1.26
-0.73
3.74
15.74
32.81
50.14
62.59
67.50
65.05
59.08
57.39
64.39
79.94
100.55
120.98
135.96
142.08
136.37
118.53
93.55
64.76
34.38
5.81
-17.49
-33.75
-44.54
-57.04
-78.70
-109.31
-146.71
-186.22
-220.47
-243.65
-254.02
-238.82
-198.59
-164.20
-140.29
-117.33
-90.84
-58.80
-22.28
15.88
52.31
81.53
100.46
112.50
119.32
120.87
118.22
112.61
105.81
99.79
94.24
89.24
87.82
89.73
91.69
90.76
84.67
73.82
60.99
48.42
38.56
34.91
37.96
44.60
51.00
52.66
47.12
33.63
10.71
-22.07
-62.38
-106.36
-149.89
-187.73
-215.36
-228.37
-223.72
-203.50
-172.13
-133.90
-92.10
-50.15
-5.03
36.69
65.79
79.73
81.13
75.55
67.88
63.03
57.19
44.97
21.37
-14.35
-58.54
-109.32
-161.64
-208.75
-233.05
-222.82
-180.98
-123.64
-73.19
-28.57
13.19
54.79
95.51
132.17
159.53
174.01
175.21
167.27
156.47
145.41
134.90
125.09
116.85
109.88
103.43
96.08
85.93
71.58
50.75
24.48
-2.37
-22.60
-30.81
-24.93
-6.62
20.14
50.58
78.71
99.66
110.41
110.15
99.79
82.61
63.24
46.38
34.91
28.01
21.74
10.70
-9.48
-40.28
-78.85
-118.62
-151.50
-170.89
-174.67
-165.59
-149.39
-131.73
-115.60
-101.26
-87.29
-72.74
-58.02
-44.23
-31.42
-17.69
0.54
26.25
59.35
95.75
128.44
150.15
155.69
143.72
116.02
76.40
29.34
-20.63
-68.89
-109.91
-136.67
-142.46
-124.26
-85.92
-38.49
3.17
25.94
23.75
-0.93
-37.90
-74.18
-99.73
-110.05
-105.12
-87.00
-58.83
-25.19
6.03
26.46
29.92
15.01
-14.06
-48.27
-77.14
-93.11
-94.07
-84.50
-70.88
-58.50
-50.03
-45.45
-41.72
-33.78
-16.69
17.84
64.76
107.87
133.77
140.31
132.72
117.95
101.35
85.19
69.47
53.05
37.17
25.19
19.27
17.59
15.30
7.29
-9.13
-32.04
-56.41
-72.82
-75.07
-63.39
-43.62
-23.04
-6.57
4.16
9.68
10.74
7.43
-0.24
-11.32
-23.83
-35.41
-43.75
-47.66
-46.67
-40.94
-30.53
-15.94
1.73
20.21
35.27
43.04
41.49
31.82
18.13
5.95
-0.51
0.27
5.90
11.40
11.34
2.74
-13.71
-33.73
-51.33
-61.11
-58.70
-42.43
-13.93
21.53
56.31
82.52
94.94
92.85
80.58
66.97
60.42
64.73
77.20
90.87
98.93
98.07
89.58
76.82
64.30
54.21
46.08
38.50
32.44
32.56
44.83
73.07
106.07
129.42
133.03
116.43
85.51
48.70
14.84
-9.32
-20.91
-23.52
-22.87
-26.87
-41.60
-70.11
-110.78
-157.43
-201.92
-229.47
-232.75
-212.99
-178.39
-139.51
-104.95
-79.08
-61.37
-48.67
-37.37
-26.09
-13.96
-0.69
12.70
24.38
32.69
37.38
39.70
41.90
44.77
48.32
51.87
53.97
52.91
47.85
39.49
29.54
19.85
11.44
4.00
-0.94
0.27
8.90
22.27
35.76
45.65
50.33
50.23
46.68
41.29
34.95
27.64
19.57
11.89
6.51
4.98
7.10
11.27
15.13
16.43
13.87
8.08
1.45
-3.58
-6.06
-6.76
-7.47
-9.49
-13.02
-17.64
-23.25
-30.59
-40.96
-55.25
-72.51
-88.43
-98.63
-100.20
-93.42
-81.35
-67.97
-55.83
-45.63
-36.45
-27.34
-18.55
-11.61
-8.05
-8.60
-11.93
-14.71
-13.05
-3.90
13.39
36.48
60.72
80.95
93.26
94.87
87.94
75.93
62.20
48.90
36.81
25.95
16.39
8.47
2.77
-0.18
-0.68
0.36
1.83
2.70
2.62
1.84
0.97
0.55
0.99
2.00
3.03
3.62
3.69
3.59
3.88
4.98
6.82
8.98
10.66
11.26
10.82
10.02
9.88
11.25
14.28
18.27
21.91
23.93
23.48
20.61
16.19
11.33
7.01
4.20
3.69
5.95
10.33
14.60
15.27
8.89
-6.02
-27.48
-50.19
-67.60
-74.93
-71.21
-59.38
-44.33
-30.38
-19.66
-11.71
-5.20
0.64
5.50
8.47
8.93
7.35
5.13
3.87
4.76
7.88
12.26
16.52
19.51
20.77
20.86
20.97
22.44
26.09
31.98
39.42
47.24
54.22
59.39
62.30
62.91
61.31
57.59
51.71
43.56
33.21
21.17
8.05
-5.17
-17.43
-27.84
-35.85
-41.35
-44.58
-46.24
-46.63
-46.28
-45.53
-44.57
-43.51
-42.47
-41.51
-40.70
-40.11
-39.80
-39.96
-40.75
-42.21
-44.36
-47.12
-50.17
-53.34
-55.67
-56.33
-54.52
-49.54
-40.93
-28.68
-13.21
4.60
23.52
42.05
58.54
71.46
79.63
82.38
79.44
71.03
57.93
41.22
22.83
4.13
-13.42
-29.32
-42.07
-50.87
-55.27
-55.26
-51.15
-43.46
-33.06
-20.87
-7.95
4.77
16.30
25.85
32.83
37.16
39.09
39.02
37.64
35.58
33.48
31.76
30.79
30.58
31.21
32.80
35.33
38.76
42.85
47.25
51.55
55.40
58.26
60.10
61.25
62.13
63.19
64.51
65.99
67.37
68.52
68.97
68.80
68.38
68.18
68.45
68.85
68.28
64.63
59.50
52.56
43.60
32.96
21.55
10.47
0.54
-8.12
-15.90
-23.52
-31.72
-40.01
-46.85
-50.59
-50.35
-46.76
-42.07
-39.32
-41.67
-52.17
-72.64
-103.12
-141.08
-181.23
-216.39
-239.85
-248.49
-244.62
-235.27
-228.25
-228.45
-235.67
-245.82
-253.24
-253.21
-243.77
-226.16
-204.18
-182.82
-167.06
-160.21
-162.59
-170.25
-174.88
-167.44
-142.71
-101.57
-50.25
2.48
48.78
83.39
103.86
111.14
107.40
95.66
80.05
66.12
59.88
65.71
84.78
114.73
152.73
194.74
236.25
273.00
302.37
323.98
339.12
349.63
345.51
320.75
277.32
224.55
171.69
123.54
81.03
43.67
10.78
-17.92
-40.76
-56.51
-65.59
-70.28
-73.29
-76.52
-80.85
-86.42
-92.96
-98.68
-102.23
-103.40
-103.62
-104.68
-107.64
-112.80
-119.77
-127.64
-134.26
-138.18
-137.59
-131.85
-120.97
-105.12
-84.64
-60.15
-32.58
-3.36
25.75
53.09
76.93
95.89
109.35
117.32
120.41
119.48
115.65
110.11
103.89
97.54
91.29
85.24
79.46
73.98
68.77
63.77
59.04
54.69
50.71
47.06
43.65
40.45
37.46
34.71
32.20
29.96
28.10
26.55
25.28
24.27
23.57
23.36
23.89
25.36
27.98
31.76
36.44
42.22
47.87
52.46
55.27
55.84
53.91
49.36
42.21
32.47
19.46
4.19
-12.45
-29.39
-45.28
-58.74
-68.86
-75.29
-78.32
-78.78
-77.50
-75.14
-71.64
-66.45
-58.68
-47.92
-34.48
-19.51
-4.69
8.40
18.60
25.69
30.17
32.99
35.24
38.20
43.16
50.81
60.25
68.33
70.21
61.27
39.88
9.10
-23.66
-49.67
-62.93
-62.87
-53.99
-43.05
-35.70
-34.22
-37.71
-43.46
-48.34
-49.75
-45.62
-33.52
-11.57
19.68
56.26
91.05
115.79
124.38
114.99
89.90
55.47
19.50
-11.48
-33.68
-46.42
-51.37
-51.18
-48.80
-47.80
-50.39
-57.45
-68.67
-82.76
-97.93
-112.41
-124.95
-128.00
-120.39
-104.07
-82.45
-58.79
-35.49
-14.25
4.20
19.97
33.61
44.79
53.72
60.59
65.75
69.61
72.52
75.07
78.14
82.43
87.43
92.80
98.00
102.63
106.43
108.94
109.98
109.68
108.40
106.05
102.85
99.18
95.59
92.77
90.55
89.02
88.30
88.45
89.33
90.85
93.06
96.16
100.57
105.73
111.45
117.54
123.67
129.29
133.54
135.09
131.73
126.83
120.69
113.45
105.13
95.85
85.94
75.88
66.29
57.94
51.60
46.94
43.71
41.41
39.43
37.19
34.23
30.37
25.74
20.73
15.10
8.81
1.80
-6.07
-14.73
-24.08
-33.75
-43.22
-51.91
-59.85
-67.17
-74.22
-81.50
-89.40
-98.15
-107.66
-117.74
-128.12
-138.88
-150.21
-162.47
-176.27
-192.50
-212.36
-236.96
-266.55
-299.65
-332.62
-360.24
-377.00
-379.08
-365.51
-338.25
-301.07
-257.94
-212.01
-165.29
-119.58
-76.69
-38.31
-5.05
24.15
51.72
79.92
109.03
136.81
159.35
173.58
179.05
178.19
174.81
171.81
169.82
167.42
162.65
154.24
142.15
126.79
108.06
85.33
58.09
27.18
-5.11
-35.53
-61.52
-82.42
-99.64
-115.78
-132.63
-150.40
-167.32
-180.46
-186.89
-184.91
-174.51
-157.17
-135.18
-110.50
-84.22
-56.50
-27.10
3.67
34.44
62.70
85.34
99.29
102.60
95.15
78.90
57.76
36.34
18.61
6.93
1.64
1.19
3.28
5.70
6.73
5.37
1.03
-6.33
-15.98
-26.29
-34.67
-38.14
-34.41
-22.87
-4.78
17.26
40.30
61.99
80.95
96.78
109.53
119.54
126.74
130.68
130.39
124.72
113.07
95.82
74.53
51.12
26.93
2.21
-23.38
-49.92
-76.07
-98.99
-115.51
-123.80
-124.63
-121.09
-116.89
-114.73
-115.39
-118.68
-125.14
-137.35
-158.94
-192.30
-235.69
-281.89
-319.86
-338.23
-329.71
-293.35
-234.52
-162.57
-87.70
-18.79
37.77
77.83
99.72
104.01
93.96
74.98
53.64
35.72
24.47
20.15
20.31
21.54
20.62
16.05
8.11
-1.61
-10.96
-17.90
-20.97
-19.57
-13.92
-4.92
5.91
16.58
24.79
28.69
27.29
21.00
11.25
-0.22
-12.18
-24.36
-36.84
-49.44
-60.35
-66.31
-63.34
-48.49
-21.51
14.41
52.84
86.04
107.39
113.80
106.29
89.64
70.28
54.00
44.19
41.32
43.63
48.42
53.48
57.68
61.11
64.41
68.02
71.93
75.69
78.78
80.59
80.35
76.85
68.69
55.13
36.61
15.51
-4.45
-19.79
-28.73
-32.41
-34.39
-39.28
-50.53
-68.89
-91.67
-113.67
-129.06
-133.07
-123.73
-102.25
-72.57
-39.82
-8.71
17.65
38.40
54.40
67.57
79.63
91.44
102.63
112.10
118.24
120.07
117.65
112.28
106.23
101.56
99.07
97.94
96.01
91.09
82.03
69.34
54.78
40.53
28.30
18.82
12.22
8.06
5.87
5.00
4.55
2.73
-2.51
-12.90
-28.92
-48.73
-68.31
-82.19
-85.32
-74.83
-51.43
-19.27
15.14
45.14
65.76
74.80
72.94
63.05
49.10
35.12
24.29
18.35
17.30
19.84
23.87
27.48
29.76
30.99
32.12
33.78
35.59
36.24
34.54
30.11
23.94
17.91
13.64
11.68
11.32
11.26
10.30
8.21
5.64
3.39
1.43
-1.70
-8.47
-21.09
-39.81
-61.78
-81.29
-91.37
-86.76
-66.16
-33.50
3.75
37.25
60.83
72.06
72.10
63.99
50.64
34.20
16.23
-1.20
-15.22
-22.80
-22.22
-14.23
-2.05
9.95
18.25
21.43
20.18
16.37
11.73
6.98
1.72
-5.08
-14.52
-27.30
-43.44
-62.38
-82.42
-100.99
-114.99
-122.35
-122.88
-118.80
-113.81
-111.13
-111.97
-114.74
-116.21
-113.24
-104.46
-90.56
-73.50
-55.25
-36.91
-18.92
-1.89
12.84
23.29
27.88
26.19
19.73
11.11
3.33
-1.29
-1.72
1.76
8.04
15.58
22.46
26.89
27.59
24.54
18.87
12.73
8.35
6.93
8.21
10.57
12.05
11.21
7.94
3.10
-2.05
-6.56
-9.99
-12.02
-11.91
-8.32
0.23
14.47
33.61
55.01
75.26
91.12
100.64
103.59
101.22
95.37
87.92
80.36
73.38
66.94
60.55
53.77
46.50
39.20
32.66
27.54
23.83
20.83
17.37
12.49
5.93
-1.67
-9.19
-15.67
-20.55
-23.89
-26.20
-28.00
-29.74
-32.07
-35.67
-41.37
-49.81
-60.88
-73.06
-83.53
-88.69
-85.51
-72.98
-52.84
-29.45
-8.48
5.18
9.11
4.23
-5.66
-15.56
-21.14
-20.30
-13.39
-2.74
8.99
19.82
29.11
36.87
43.10
47.32
49.02
48.48
47.18
47.79
52.68
62.96
77.94
95.77
114.15
131.49
146.89
159.75
169.28
174.09
172.39
162.35
142.54
112.62
73.94
29.95
-13.86
-50.98
-75.73
-85.12
-79.76
-63.84
-43.24
-23.70
-9.12
-1.21
0.28
-3.51
-11.20
-21.57
-33.46
-45.22
-54.93
-60.70
-61.30
-56.68
-48.27
-38.49
-29.99
-24.70
-23.16
-24.62
-27.55
-30.24
-31.62
-31.47
-30.70
-31.17
-35.58
-46.45
-64.97
-89.94
-117.48
-142.37
-159.71
-166.89
-163.94
-152.90
-136.02
-114.49
-88.26
-57.14
-22.61
11.47
39.53
56.35
59.48
50.30
33.25
13.71
-4.31
-19.53
-32.75
-45.24
-57.08
-66.40
-70.73
-68.58
-61.09
-51.64
-44.47
-42.42
-45.50
-51.22
-56.10
-58.03
-57.20
-55.62
-55.80
-59.16
-65.32
-72.79
-80.01
-86.07
-90.77
-93.80
-94.16
-90.48
-81.62
-67.77
-50.83
-33.74
-19.16
-8.33
-0.58
5.99
13.15
21.79
31.62
41.80
51.60
61.08
70.91
81.83
94.08
107.20
120.37
132.35
141.77
147.38
148.02
143.05
132.49
117.24
98.82
79.09
59.47
40.54
21.99
3.09
-16.28
-34.93
-49.96
-57.41
-53.35
-35.49
-4.13
37.58
83.99
128.36
164.36
187.44
195.28
188.31
169.51
143.78
116.93
93.80
76.64
64.05
51.57
33.80
7.08
-28.50
-69.52
-110.99
-149.06
-182.66
-213.35
-243.55
-274.31
-303.89
-327.82
-340.82
-338.83
-320.79
-288.97
-248.08
-203.56
-159.84
-119.57
-83.55
-51.45
-22.83
2.18
22.81
38.73
50.67
61.13
73.37
90.60
114.72
145.58
181.14
218.04
252.79
282.41
305.09
320.36
328.96
332.56
333.13
332.23
330.39
326.91
319.98
307.44
287.66
260.01
225.35
185.78
144.33
104.34
68.85
40.01
18.53
3.74
-6.47
-14.73
-23.44
-33.89
-46.39
-60.55
-76.07
-93.07
-111.56
-130.55
-147.34
-157.96
-158.71
-147.75
-126.08
-97.25
-65.44
-33.65
-2.69
28.50
61.15
95.16
127.71
154.74
172.60
179.87
178.22
171.73
165.03
161.34
161.78
164.81
167.71
167.63
162.77
153.14
140.57
127.76
117.07
110.03
104.54
97.31
84.06
61.26
27.61
-14.64
-60.56
-104.06
-137.42
-158.58
-166.36
-162.96
-153.35
-143.74
-138.00
-138.23
-144.00
-148.24
-149.53
-141.60
-119.83
-83.11
-34.72
20.62
73.79
113.38
136.09
131.57
102.69
56.96
4.49
-43.65
-73.05
-74.56
-46.54
14.11
90.23
171.77
248.44
312.28
359.74
397.22
430.04
409.30
395.07
372.41
336.85
285.70
219.67
111.39
-31.43
-174.52
-283.20
-338.03
-356.96
-355.62
-346.33
-335.09
-323.08
-304.67
-279.12
-251.91
-224.31
-206.67
-197.90
-194.16
-191.27
-186.36
-174.50
-155.70
-134.69
-113.47
-99.13
-90.82
-85.68
-80.55
-73.28
-60.55
-42.64
-23.18
-5.16
6.18
10.34
7.87
0.04
-11.10
-22.09
-30.97
-37.61
-42.21
-45.78
-47.71
-47.01
-43.07
-34.71
-20.70
-1.55
19.82
38.89
51.58
55.16
48.49
32.20
10.01
-12.77
-31.69
-44.64
-51.85
-54.06
-52.17
-48.11
-44.42
-42.18
-40.96
-40.91
-38.12
-30.65
-15.86
8.20
45.11
86.17
117.00
129.80
129.83
125.18
120.06
114.18
106.11
88.31
54.24
3.18
-58.57
-120.59
-172.53
-207.18
-221.21
-215.60
-195.94
-168.15
-135.72
-99.78
-62.35
-28.80
-7.27
-5.51
-18.56
-39.77
-60.49
-72.62
-69.98
-50.85
-18.44
20.58
58.65
89.00
104.37
99.92
74.95
34.51
-11.48
-50.52
-71.77
-69.26
-44.12
-5.29
35.21
66.67
83.01
82.77
68.41
45.02
18.65
-4.18
-18.45
-20.65
-10.07
10.43
34.09
51.87
55.29
39.49
6.07
-37.82
-80.88
-111.56
-122.00
-110.50
-81.51
-43.48
-5.98
23.66
41.83
49.11
48.51
43.74
37.55
31.29
25.43
20.23
16.42
14.71
15.20
17.11
18.88
19.06
16.88
12.66
7.73
3.64
1.35
1.07
1.99
2.81
2.40
0.18
-3.55
-7.91
-11.72
-14.25
-15.37
-15.61
-15.81
-16.80
-19.19
-23.29
-29.01
-35.88
-43.49
-51.48
-59.50
-66.83
-72.56
-75.35
-73.89
-66.97
-53.78
-34.26
-9.39
18.94
48.36
76.26
99.91
116.98
125.90
126.11
117.84
102.12
80.63
54.82
27.85
2.30
-19.67
-36.93
-48.39
-53.72
-52.95
-46.77
-36.50
-23.71
-10.33
1.69
10.77
15.99
16.81
13.65
7.30
-1.06
-10.08
-18.51
-25.22
-29.40
-30.29
-27.66
-21.58
-12.77
-2.44
8.05
17.17
23.67
26.65
26.07
22.53
17.13
10.90
4.44
-1.87
-8.37
-15.45
-23.19
-31.11
-38.13
-43.02
-44.78
-42.97
-37.82
-30.45
-22.08
-13.35
-3.91
7.92
24.85
48.42
80.09
120.10
165.94
212.29
251.89
277.28
282.96
266.97
231.44
181.73
124.65
66.54
12.00
-36.46
-78.29
-114.97
-149.46
-184.75
-221.45
-256.67
-284.45
-298.72
-296.49
-279.78
-254.93
-228.99
-205.25
-181.25
-151.07
-109.41
-55.92
4.54
64.72
118.84
165.10
204.97
239.95
268.19
284.54
284.02
266.49
238.49
209.54
187.00
171.78
158.17
137.27
102.37
52.75
-8.61
-70.10
-118.02
-144.06
-149.05
-139.69
-122.91
-102.97
-82.16
-61.76
-42.68
-26.61
-14.96
-8.08
-4.60
-2.09
1.48
6.61
12.79
19.66
26.69
34.08
42.51
52.92
66.07
81.88
97.41
108.89
112.87
106.69
89.27
61.94
28.77
-2.94
-23.66
-27.60
-15.64
4.33
19.69
18.44
-5.62
-49.65
-102.46
-149.84
-180.80
-190.55
-180.03
-153.80
-116.92
-69.46
-16.75
37.47
88.31
132.14
164.55
183.15
188.77
184.87
175.92
165.23
155.16
145.86
134.13
116.48
91.54
60.60
26.55
-7.90
-41.85
-75.99
-107.10
-136.37
-165.12
-192.69
-216.22
-232.17
-237.96
-233.36
-219.65
-199.60
-180.00
-167.07
-164.09
-170.73
-184.48
-202.11
-220.66
-237.09
-232.15
-194.61
-125.07
-35.81
57.96
145.42
221.38
284.37
334.85
374.18
402.19
418.59
423.99
420.97
412.83
402.00
389.93
377.24
364.31
348.51
327.64
301.35
270.85
237.70
201.84
162.59
119.40
72.72
22.39
-30.83
-84.75
-135.59
-178.90
-213.16
-237.37
-250.19
-249.85
-236.07
-210.29
-174.97
-132.94
-87.02
-45.20
-14.03
3.94
10.41
8.61
1.17
-9.82
-22.44
-34.87
-53.93
-85.18
-129.14
-181.25
-235.82
-289.36
-340.40
-388.58
-433.86
-487.03
-556.45
-642.89
-739.35
-836.75
-929.11
-1014.42
-1093.36
-1099.73
-997.34
-794.77
-539.38
-281.36
-50.24
142.58
294.27
405.72
480.97
517.15
516.65
489.41
450.16
411.50
380.00
357.29
343.28
337.80
332.22
319.47
297.68
270.41
242.58
217.84
197.90
183.57
175.39
167.96
156.64
139.91
119.70
98.94
79.77
63.00
49.02
38.08
27.46
14.79
-0.62
-17.51
-33.90
-47.92
-58.30
-64.78
-66.07
-62.66
-55.47
-45.48
-33.44
-20.12
-6.51
6.22
17.18
25.88
31.76
34.80
35.10
33.01
29.02
23.63
17.31
10.58
4.00
-2.51
-8.80
-14.94
-21.02
-27.16
-33.53
-40.32
-47.44
-54.76
-62.44
-70.40
-78.68
-87.34
-96.30
-105.53
-114.97
-124.16
-132.72
-140.39
-146.86
-151.74
-154.75
-155.16
-152.15
-147.37
-141.40
-134.61
-127.28
-119.69
-112.13
-104.94
-98.18
-92.18
-87.09
-82.59
-78.43
-74.32
-70.08
-65.57
-60.83
-55.90
-51.06
-46.65
-42.64
-39.19
-36.31
-34.02
-32.23
-30.84
-29.71
-28.78
-28.08
-27.33
-26.59
-25.76
-24.91
-24.03
-23.15
-22.25
-21.38
-20.59
-19.82
-19.24
-18.79
-18.64
-18.87
-19.54
-20.67
-22.21
-24.12
-26.22
-28.16
-29.58
-30.35
-30.58
-30.53
-30.62
-31.26
-32.78
-35.48
-39.23
-43.96
-49.58
-56.17
-63.54
-71.30
-78.47
-83.56
-84.56
-78.43
-62.27
-33.78
8.06
62.81
128.44
201.70
278.14
352.66
422.10
483.66
535.13
574.87
602.01
616.75
620.46
615.41
603.72
591.31
582.80
580.63
584.38
591.20
597.27
599.28
595.46
585.00
575.59
575.07
589.21
618.99
660.43
706.43
749.71
785.17
808.83
827.36
846.28
867.41
887.82
901.98
905.69
898.42
883.32
819.35
684.14
473.06
205.42
-81.18
-347.51
-566.85
-730.22
-831.07
-889.25
-916.15
-919.42
-904.57
-876.93
-842.13
-804.55
-769.03
-736.92
-710.72
-684.69
-653.55
-613.66
-563.97
-506.59
-446.01
-387.85
-336.74
-296.93
-265.22
-237.16
-209.89
-183.47
-160.41
-143.27
-132.63
-126.81
-124.55
-123.39
-122.83
-123.80
-126.44
-129.65
-131.39
-130.61
-128.23
-127.30
-129.26
-132.97
-135.20
-132.55
-123.92
-111.51
-99.52
-91.52
-88.55
-88.44
-87.50
-82.85
-73.75
-61.31
-47.82
-35.05
-24.04
-14.95
-7.54
-1.38
3.75
7.57
9.27
7.14
-0.59
-14.95
-35.14
-58.31
-79.53
-92.92
-93.24
-77.60
-46.16
-1.98
49.54
101.93
149.12
186.60
211.90
224.42
224.62
214.24
195.89
172.05
143.80
110.81
71.44
24.41
-30.12
-90.50
-152.66
-210.88
-259.83
-296.37
-319.64
-331.02
-333.09
-329.24
-324.04
-320.69
-319.09
-315.63
-304.30
-279.10
-237.05
-180.19
-109.62
-36.33
24.71
62.22
74.17
66.87
50.30
31.61
14.38
0.19
-10.14
-14.76
-11.01
2.97
26.66
56.84
88.73
118.40
144.42
166.96
187.62
207.19
223.53
231.07
222.93
194.56
146.57
84.78
17.21
-48.46
-106.51
-153.30
-185.85
-200.96
-195.22
-166.88
-117.80
-54.48
13.97
79.27
136.75
186.35
230.66
271.69
308.58
337.55
354.21
356.99
348.88
336.31
325.55
319.17
314.70
306.05
287.48
256.51
214.81
166.54
115.67
63.99
11.00
-44.29
-101.24
-156.30
-203.99
-238.60
-255.78
-254.21
-236.23
-208.07
-178.25
-155.59
-146.78
-154.54
-176.72
-206.14
-232.07
-243.65
-234.49
-204.80
-162.01
-118.50
-87.73
-78.84
-92.32
-119.14
-144.49
-154.64
-141.71
-106.01
-54.73
1.38
52.35
89.18
107.38
112.10
108.64
99.21
82.99
61.71
39.98
24.47
21.80
36.25
68.03
112.43
161.59
206.75
240.03
255.47
250.54
227.19
191.37
150.81
111.86
78.48
52.12
32.89
20.01
12.90
11.36
14.51
19.74
21.93
15.13
-5.37
-41.22
-90.74
-149.30
-207.67
-254.26
-278.42
-275.11
-246.77
-201.40
-148.17
-93.85
-41.85
6.94
52.08
92.48
126.01
150.54
165.18
170.73
170.29
166.30
161.01
155.60
150.56
145.70
141.06
137.39
135.91
137.94
144.20
154.64
168.01
182.20
194.52
202.72
206.08
204.49
198.48
188.88
176.69
162.66
147.29
130.74
113.35
95.99
79.56
65.35
54.53
48.12
46.80
50.67
59.13
70.85
84.11
96.48
105.50
108.62
103.70
89.41
65.49
32.87
-6.29
-48.72
-90.61
-127.74
-156.27
-173.24
-176.81
-166.50
-143.25
-109.27
-67.69
-22.33
22.95
64.44
98.82
123.79
137.96
141.28
134.79
120.52
100.95
78.61
55.59
33.20
12.26
-7.18
-25.21
-41.97
-57.57
-72.09
-85.85
-99.49
-113.99
-130.36
-149.52
-171.81
-196.87
-223.91
-251.81
-279.44
-305.79
-329.96
-351.14
-368.91
-383.77
-397.36
-412.28
-430.14
-450.15
-467.70
-475.16
-464.54
-430.75
-373.79
-298.54
-212.64
-123.58
-37.80
39.22
102.06
145.12
164.25
158.94
133.52
95.80
53.71
11.88
-28.92
-69.54
-109.04
-142.25
-160.90
-157.09
-127.40
-74.71
-7.22
64.45
130.45
182.88
216.78
229.36
220.15
191.22
147.12
94.10
38.34
-15.79
-67.12
-116.81
-166.96
-218.34
-268.83
-313.44
-345.97
-361.43
-357.78
-336.40
-300.70
-254.26
-199.71
-139.29
-76.99
-19.80
22.62
40.72
28.55
-13.20
-76.79
-149.49
-216.80
-266.73
-291.88
-290.74
-266.93
-227.68
-181.52
-136.17
-97.27
-67.68
-48.20
-38.07
-35.71
-38.85
-44.67
-50.10
-52.37
-49.95
-42.80
-32.14
-19.45
-5.77
8.72
24.42
41.44
59.35
76.86
92.52
105.33
115.55
124.94
136.92
156.39
188.15
235.20
296.29
364.34
426.92
469.69
481.75
460.78
415.32
361.98
319.37
301.13
311.71
346.57
395.73
448.13
494.68
528.91
546.22
543.40
519.08
474.68
415.01
347.26
279.28
217.44
165.48
124.38
92.87
67.91
45.27
20.50
-10.44
-50.07
-98.81
-154.93
-214.71
-272.44
-321.15
-353.85
-365.66
-356.49
-332.56
-305.37
-288.22
-290.70
-314.31
-351.49
-388.49
-411.26
-411.02
-387.09
-345.26
-294.03
-239.84
-184.92
-128.39
-68.90
-7.74
50.28
98.32
130.28
142.87
136.09
112.32
74.75
27.45
-24.29
-73.54
-112.01
-131.67
-127.00
-96.65
-44.44
20.86
87.04
140.50
169.27
166.17
131.12
71.48
-0.14
-70.01
-127.66
-168.01
-191.05
-199.02
-194.07
-177.41
-150.06
-114.34
-74.28
-34.19
2.71
35.93
66.44
94.82
119.10
135.24
139.04
128.59
105.73
72.68
31.63
-16.97
-72.87
-133.65
-192.44
-239.00
-263.72
-260.80
-234.29
-192.51
-145.25
-99.63
-58.91
-23.37
7.46
34.00
58.59
79.56
97.19
110.71
118.09
116.98
107.19
92.17
78.70
76.76
87.67
110.70
140.90
172.30
201.16
227.73
255.18
269.06
289.95
310.11
321.70
316.80
290.68
243.44
179.49
105.20
26.01
-51.81
-128.47
-199.95
-259.52
-298.76
-310.72
-293.46
-251.79
-196.11
-136.29
-83.85
-42.65
-10.73
17.63
48.69
85.75
127.54
168.44
202.68
223.77
231.41
230.69
229.89
236.77
255.36
285.60
324.56
369.19
415.25
458.66
493.66
513.20
510.85
483.87
435.22
373.08
307.67
246.83
194.18
148.99
108.09
68.47
28.94
-10.18
-48.16
-85.45
-123.37
-163.43
-205.92
-249.26
-289.98
-323.90
-347.30
-357.61
-353.87
-336.07
-305.76
-266.48
-224.26
-187.25
-163.96
-160.57
-178.61
-214.37
-260.04
-306.80
-347.58
-378.28
-397.44
-404.55
-398.94
-379.22
-344.70
-297.09
-241.40
-185.32
-136.81
-101.98
-82.89
-77.29
-79.49
-82.72
-81.11
-71.42
-53.55
-29.69
-3.30
22.33
44.67
61.88
72.69
76.13
71.75
60.10
43.27
24.67
8.42
-2.06
-5.69
-4.14
-1.37
-1.62
-7.55
-18.44
-30.28
-37.14
-33.33
-15.53
16.17
57.97
103.80
147.02
182.39
207.18
221.67
228.65
232.19
236.22
243.25
254.05
268.11
284.25
301.43
318.60
334.35
346.24
350.92
344.99
326.43
296.12
257.62
216.57
178.84
148.78
127.63
113.54
102.51
90.03
72.96
50.62
25.06
-0.30
-22.13
-38.66
-50.23
-58.90
-67.42
-78.23
-93.03
-112.74
-137.63
-167.27
-199.53
-230.22
-253.03
-261.75
-252.87
-228.15
-194.98
-163.88
-144.63
-142.10
-155.10
-177.26
-200.13
-216.29
-221.33
-213.90
-194.86
-166.09
-129.67
-87.94
-43.54
0.05
38.44
67.15
82.73
84.07
73.62
57.18
42.14
34.83
37.91
49.04
62.43
71.66
72.92
66.50
56.30
47.51
44.08
47.06
54.06
60.63
61.34
51.55
28.80
-6.37
-50.18
-95.88
-135.02
-159.33
-162.70
-143.23
-104.10
-52.89
0.05
44.63
73.77
84.95
80.33
65.32
46.20
27.81
12.69
0.66
-9.81
-20.13
-30.39
-39.53
-45.61
-46.93
-42.59
-32.45
-16.97
3.06
26.26
50.07
70.71
83.69
85.07
73.21
50.07
21.12
-5.95
-23.32
-25.48
-10.53
18.92
56.48
93.20
120.04
130.10
120.46
93.13
54.14
12.11
-24.53
-49.14
-58.21
-51.03
-29.58
2.22
39.07
74.90
103.90
121.31
124.32
112.50
87.44
52.54
12.21
-28.64
-65.44
-94.45
-113.39
-121.74
-120.40
-111.80
-98.89
-84.90
-72.55
-64.14
-61.00
-63.32
-70.07
-79.03
-87.76
-94.00
-96.78
-96.13
-92.56
-85.98
-75.36
-59.64
-39.39
-18.23
-2.33
1.65
-10.35
-37.45
-73.97
-111.27
-141.28
-158.61
-161.42
-150.18
-126.26
-90.86
-45.06
8.72
66.10
120.52
165.00
193.94
205.43
201.92
189.45
175.57
166.28
164.29
168.26
174.34
178.39
178.14
173.84
167.59
161.69
157.13
153.34
148.57
141.06
130.10
115.99
100.06
83.17
65.14
44.60
20.08
-8.63
-39.42
-67.86
-89.45
-101.33
-104.11
-101.39
-98.33
-98.87
-104.31
-112.82
-120.36
-122.70
-116.67
-101.12
-77.16
-47.68
-16.75
11.14
32.20
44.56
48.80
47.90
46.08
46.70
51.15
58.08
64.71
68.40
68.45
66.27
64.56
65.42
68.87
73.04
74.93
72.65
66.50
58.55
51.02
44.64
37.96
28.19
13.13
-7.35
-30.92
-53.50
-71.23
-81.65
-84.49
-81.41
-75.44
-70.01
-68.25
-72.00
-80.96
-92.78
-102.97
-106.50
-99.24
-79.78
-50.02
-14.85
19.27
46.61
63.75
70.66
69.79
64.55
57.70
50.46
42.85
34.59
26.17
18.95
14.56
13.63
14.98
16.06
13.77
6.23
-6.72
-23.32
-40.97
-57.35
-71.21
-82.66
-92.45
-101.78
-111.38
-121.28
-130.84
-139.63
-147.81
-156.40
-166.79
-179.24
-192.06
-201.19
-201.35
-188.21
-160.22
-119.43
-70.94
-21.30
23.28
58.36
81.90
94.26
97.48
94.88
89.97
85.75
83.76
84.35
87.17
91.87
98.52
107.20
117.60
128.30
136.97
141.26
139.95
133.29
122.75
110.13
96.60
82.36
67.03
50.28
32.49
14.50
-2.88
-19.64
-36.86
-56.30
-79.40
-106.15
-134.45
-159.99
-177.70
-182.96
-173.19
-148.86
-114.03
-75.31
-40.15
-14.52
-0.82
2.62
0.61
-1.47
-0.03
5.52
13.43
21.50
28.71
35.69
43.65
53.02
62.80
70.92
75.77
76.99
75.74
73.33
70.15
64.97
55.63
40.47
19.51
-4.95
-29.76
-52.08
-70.70
-86.17
-100.33
-114.76
-129.43
-142.10
-148.51
-144.10
-125.96
-94.83
-55.48
-15.35
18.09
39.98
49.56
49.94
46.04
42.40
41.63
43.97
48.57
54.30
60.56
66.96
73.28
79.18
84.41
88.98
92.95
96.31
98.22
97.23
92.02
82.36
69.32
54.95
41.17
28.78
17.47
5.95
-6.95
-21.83
-38.83
-57.59
-77.20
-95.89
-111.05
-119.56
-118.91
-108.15
