1700597493.00
64.000000
-0.00
-0.00
-0.00
-0.00
-0.00
-0.00
-0.00
-0.00
-0.00
-0.00
0.00
0.01
0.01
-0.00
-0.03
-0.05
-0.05
0.00
0.13
0.36
0.66
1.01
1.37
1.72
2.06
2.40
2.79
3.24
3.80
4.42
5.06
5.66
6.20
6.68
7.15
7.68
8.31
9.14
10.09
11.04
11.88
12.56
13.14
13.76
14.65
15.96
17.91
20.32
22.90
25.38
27.58
29.57
31.68
34.32
37.81
42.54
48.15
54.10
59.83
64.97
69.58
74.14
79.34
85.71
93.76
103.00
112.62
121.73
129.77
136.75
143.30
150.75
157.77
166.64
177.95
191.79
206.97
220.57
228.25
225.36
208.53
176.87
132.76
80.05
23.07
-34.94
-92.44
-149.16
-205.23
-260.37
-313.74
-363.87
-409.83
-450.91
-486.50
-515.74
-537.23
-549.22
-549.96
-538.37
-514.21
-478.67
-433.88
-382.45
-327.02
-269.84
-212.63
-156.66
-102.95
-52.37
-5.90
35.58
71.43
101.35
125.50
144.38
158.69
169.15
176.37
180.75
182.57
182.07
179.50
175.23
169.65
163.18
156.15
148.82
141.32
133.74
126.10
118.44
110.83
103.34
96.05
89.00
82.24
75.77
69.56
63.58
57.82
52.28
47.01
42.07
37.51
33.37
29.61
26.20
23.05
20.09
17.31
14.73
12.43
10.47
8.89
7.65
6.63
5.70
4.73
3.70
2.69
1.87
1.42
1.42
1.79
2.27
2.51
2.24
1.42
0.27
-0.73
-1.14
-0.69
0.47
1.79
2.58
2.27
0.75
-1.52
-3.67
-4.79
-4.39
-2.72
-0.69
0.46
-0.26
-3.14
-7.62
-12.49
-16.79
-20.04
-22.69
-25.86
-30.85
-38.73
-50.19
-65.46
-83.99
-103.97
-121.68
-131.97
-129.73
-112.25
-81.11
-42.25
-4.12
25.74
43.20
48.67
45.95
39.75
33.49
28.53
24.86
22.28
21.43
23.37
28.97
38.34
50.60
64.37
78.05
90.51
99.96
106.83
111.55
114.65
116.43
116.99
116.45
115.15
113.92
113.72
115.28
117.85
119.00
115.09
102.66
80.16
49.08
13.87
-19.58
-45.90
-62.38
-69.30
-69.12
-64.98
-59.31
-53.40
-47.63
-42.16
-37.15
-33.13
-30.32
-28.57
-27.34
-25.83
-23.76
-21.20
-18.84
-17.27
-16.88
-17.72
-19.32
-21.17
-22.93
-24.80
-27.24
-30.85
-35.78
-41.73
-48.13
-54.36
-60.24
-65.94
-72.12
-78.57
-85.73
-92.88
-98.58
-101.49
-100.69
-96.91
-90.37
-82.15
-73.42
-65.56
-59.64
-56.23
-54.72
-52.67
-46.21
-31.40
-6.60
26.26
61.32
91.28
110.22
115.90
110.18
97.47
82.35
66.89
52.42
38.57
25.13
12.86
3.07
-3.29
-6.50
-7.88
-9.21
-11.85
-16.20
-21.36
-25.79
-28.01
-27.28
-23.90
-18.90
-13.48
-8.31
-3.60
1.25
7.17
14.75
23.90
33.60
42.43
49.18
53.26
54.88
55.08
55.13
55.93
57.59
59.27
59.76
58.21
54.35
48.81
42.87
37.86
34.47
32.56
30.85
27.34
21.86
15.02
8.20
3.19
1.63
4.75
13.80
28.31
46.70
65.81
80.60
85.57
76.80
54.05
20.62
-15.06
-44.75
-63.35
-70.36
-69.12
-64.18
-58.84
-54.06
-49.19
-43.33
-36.93
-31.33
-27.83
-26.86
-27.54
-28.26
-27.33
-24.00
-18.57
-12.48
-7.32
-4.15
-3.07
-3.29
-3.55
-2.70
-0.24
3.63
7.97
11.71
14.14
15.10
14.96
14.36
13.82
13.61
13.61
13.38
12.41
10.39
7.44
3.91
0.26
-3.06
-5.76
-7.76
-9.14
-10.05
-10.60
-10.82
-10.72
-10.28
-9.51
-8.43
-7.10
-5.62
-4.02
-2.34
-0.56
1.26
3.09
4.93
6.77
8.63
10.49
12.40
14.40
16.58
18.84
21.17
23.57
26.06
28.66
31.41
34.39
37.69
41.44
45.43
49.54
53.72
57.98
62.35
66.94
71.86
77.28
83.37
89.78
96.30
102.85
109.41
116.08
122.94
130.13
137.75
145.94
154.07
161.66
168.34
173.80
177.71
179.61
178.63
173.11
165.88
157.39
147.75
137.04
125.52
113.63
101.97
91.05
81.20
72.45
63.84
54.54
44.14
32.76
21.06
9.97
0.26
-7.83
-14.72
-21.91
-30.69
-41.79
-54.95
-69.10
-82.77
-94.90
-105.33
-114.78
-124.86
-136.88
-151.42
-168.31
-187.15
-207.40
-228.19
-247.74
-262.98
-270.52
-268.05
-256.11
-238.48
-220.47
-205.96
-195.09
-184.16
-167.99
-143.60
-112.19
-79.01
-50.51
-31.00
-20.83
-16.93
-15.04
-12.24
-8.03
-3.71
-0.74
0.75
2.29
6.03
13.14
22.70
31.77
36.63
34.71
26.00
13.13
0.11
-9.60
-14.54
-15.51
-14.79
-14.74
-16.93
-22.12
-30.82
-43.80
-62.32
-87.43
-119.32
-156.56
-195.81
-232.33
-260.95
-277.47
-279.89
-268.78
-247.01
-218.83
-188.71
-160.39
-136.36
-117.76
-104.44
-95.29
-88.39
-81.49
-72.46
-59.87
-43.47
-24.38
-4.81
12.73
26.16
34.72
39.25
41.83
44.92
50.14
57.22
64.03
67.54
65.42
57.63
46.81
37.05
31.88
32.40
36.81
41.73
44.23
43.47
40.89
38.90
39.16
41.69
45.29
48.88
52.61
57.72
65.44
75.71
86.62
95.01
98.12
94.96
86.77
76.41
66.80
59.71
55.23
52.19
49.21
45.70
42.01
38.91
36.84
35.28
33.12
29.42
24.11
18.19
13.09
9.79
8.28
7.95
8.00
7.99
7.77
7.14
5.59
2.47
-2.52
-8.98
-15.78
-21.75
-26.07
-28.63
-29.76
-29.71
-28.55
-26.36
-23.52
-20.80
-19.02
-18.42
-18.30
-17.30
-14.06
-8.12
-0.34
7.59
14.01
18.25
20.83
23.04
25.87
29.39
32.73
34.61
34.32
32.07
28.92
26.00
23.85
22.29
20.81
19.23
17.94
17.68
18.70
20.41
21.49
20.68
17.58
12.99
8.40
5.07
3.29
2.30
1.08
-0.81
-2.93
-4.29
-4.30
-3.24
-2.21
-2.35
-4.16
-7.22
-10.49
-12.97
-14.13
-14.10
-13.27
-12.20
-11.39
-11.31
-12.21
-13.87
-15.40
-15.48
-12.96
-7.40
0.61
9.85
18.91
26.76
32.82
36.90
39.02
39.28
38.06
35.75
32.69
29.14
25.23
21.27
17.76
15.44
14.80
15.90
18.25
21.08
23.67
25.58
26.59
26.70
25.98
24.71
23.27
21.94
20.59
18.69
15.69
11.41
6.22
0.54
-5.11
-10.26
-14.81
-18.69
-21.88
-24.37
-26.35
-28.46
-32.16
-38.21
-45.92
-53.67
-59.96
-64.53
-68.70
-74.88
-85.58
-103.25
-127.94
-157.03
-186.24
-211.13
-228.22
-235.35
-231.68
-217.54
-195.27
-167.13
-134.67
-99.31
-62.98
-28.02
3.51
30.62
60.86
94.57
125.48
144.79
147.77
136.55
118.21
101.04
91.11
89.93
93.53
96.69
96.10
91.58
85.32
80.14
77.89
78.92
82.48
86.39
90.39
95.66
103.37
113.71
125.86
138.27
149.99
161.36
173.34
187.63
205.30
224.77
241.66
250.34
246.81
231.06
207.35
182.38
161.73
151.28
154.19
170.13
195.51
224.31
249.28
263.31
260.99
240.33
203.58
155.77
102.91
49.94
-0.43
-47.39
-90.98
-131.09
-167.24
-199.04
-227.38
-254.36
-282.64
-314.15
-348.79
-383.76
-413.64
-431.77
-432.21
-412.23
-373.61
-322.47
-267.31
-216.24
-174.48
-143.16
-120.00
-101.15
-83.45
-65.44
-47.56
-31.18
-17.41
-6.62
1.34
6.61
8.97
8.17
4.49
-0.82
-5.79
-8.41
-7.52
-3.22
3.35
10.59
17.12
22.15
25.33
26.64
26.32
25.06
24.12
25.12
29.16
36.04
43.92
49.89
51.33
47.40
39.38
30.23
23.16
19.99
20.55
23.01
25.09
25.28
23.44
20.52
17.66
15.20
12.39
7.87
0.79
-8.27
-16.94
-21.86
-20.22
-11.19
3.34
19.46
32.88
40.71
42.54
40.14
36.26
33.08
31.42
30.88
30.54
29.90
29.18
29.03
29.74
30.74
30.86
29.19
25.85
22.23
20.08
20.29
21.97
22.69
19.80
12.00
0.26
-12.67
-23.75
-31.14
-34.96
-36.69
-38.16
-40.43
-43.62
-47.22
-50.69
-53.65
-55.64
-55.83
-53.04
-46.10
-34.59
-19.46
-2.90
12.20
23.36
29.36
30.60
28.79
26.09
24.19
23.78
24.48
25.26
24.99
22.96
19.07
13.82
8.03
2.59
-1.77
-4.61
-5.73
-5.17
-3.30
-0.69
1.93
3.72
3.98
2.36
-1.01
-5.46
-9.89
-13.03
-13.81
-11.67
-6.76
0.07
7.47
14.03
18.60
20.67
20.31
18.04
14.57
10.72
7.38
5.47
5.81
8.75
13.89
20.03
25.47
28.55
28.28
24.68
18.74
12.14
6.63
3.60
3.62
6.40
10.80
15.23
18.00
17.84
14.20
7.35
-1.57
-10.82
-18.52
-23.13
-23.93
-21.24
-16.38
-11.23
-7.71
-7.12
-9.80
-15.14
-21.69
-27.63
-31.24
-31.37
-27.76
-21.14
-12.97
-4.89
1.77
6.38
8.98
10.03
10.10
9.65
8.89
7.86
6.46
4.63
2.43
0.05
-2.27
-4.26
-5.71
-6.37
-6.01
-4.44
-1.68
2.06
6.22
10.07
12.98
14.67
15.29
15.30
15.16
15.08
14.92
14.45
13.48
11.95
9.95
7.54
4.79
1.79
-1.33
-4.32
-6.94
-9.03
-10.67
-12.08
-13.58
-15.38
-17.49
-19.67
-21.56
-22.75
-22.90
-21.78
-19.29
-15.45
-10.48
-4.75
1.30
7.29
13.01
18.32
23.10
27.06
29.78
30.94
30.47
28.71
26.28
23.90
22.08
21.00
20.51
20.33
20.13
19.67
18.76
17.29
15.26
12.82
10.28
7.93
5.99
4.54
3.50
2.73
2.11
1.63
1.31
1.20
1.21
1.07
0.43
-0.99
-3.18
-5.79
-8.28
-10.17
-11.30
-11.83
-12.15
-12.64
-13.46
-14.58
-15.93
-17.46
-19.19
-21.03
-22.66
-23.52
-23.09
-21.08
-17.62
-13.19
-8.41
-3.75
0.55
4.53
8.27
11.75
14.78
17.01
18.15
18.10
17.04
15.37
13.61
12.13
11.07
10.36
9.82
9.30
8.74
8.21
7.81
7.60
7.53
7.51
7.48
7.40
7.27
7.04
6.59
5.79
4.54
2.90
1.08
-0.66
-2.10
-3.11
-3.72
-4.10
-4.41
-4.89
-5.79
-7.31
-9.52
-12.31
-15.40
-18.46
-21.20
-23.33
-24.64
-24.75
-23.31
-20.12
-15.34
-9.52
-3.49
1.96
6.38
9.75
12.39
14.68
16.81
18.68
20.00
20.58
20.34
19.48
18.33
17.21
16.33
15.69
15.15
14.57
13.88
13.16
12.52
12.01
11.56
11.02
10.24
9.12
7.64
5.85
3.90
2.04
0.52
-0.50
-1.06
-1.46
-2.15
-3.51
-5.55
-7.89
-9.88
-11.00
-11.04
-10.22
-9.10
-8.31
-8.34
-9.51
-11.76
-14.68
-17.47
-19.04
-18.31
-14.60
-7.97
0.83
10.52
19.81
27.70
33.64
37.46
39.28
39.38
38.25
36.50
34.72
33.28
32.15
30.94
29.16
26.55
23.28
19.87
16.98
15.00
14.01
13.72
13.72
13.61
13.12
12.05
10.29
7.81
4.65
1.03
-2.79
-6.53
-10.07
-13.42
-16.65
-19.89
-23.17
-26.43
-29.55
-32.39
-34.81
-36.73
-38.22
-39.56
-41.09
-43.11
-45.56
-47.99
-49.58
-49.51
-47.34
-43.18
-37.59
-31.30
-24.87
-18.64
-12.80
-7.54
-3.12
0.27
2.59
4.00
4.77
5.12
5.17
4.88
4.24
3.32
2.32
1.57
1.45
2.29
4.28
7.36
11.17
15.03
18.15
19.92
20.11
18.90
16.62
13.47
9.31
3.76
-3.33
-11.60
-20.12
-27.70
-33.24
-36.09
-35.93
-32.79
-26.94
-19.16
-10.81
-3.66
0.78
2.12
1.74
2.53
7.84
19.99
39.04
62.61
86.87
108.03
123.86
134.33
141.28
147.40
154.62
162.92
169.67
170.26
159.30
132.37
87.89
28.59
-38.04
-101.03
-148.57
-171.84
-168.29
-143.08
-107.48
-74.99
-56.47
-56.49
-72.47
-96.73
-120.14
-135.72
-140.21
-133.76
-118.42
-96.75
-71.27
-44.79
-20.53
-1.84
8.63
10.25
4.96
-3.07
-8.83
-8.15
0.96
17.73
38.82
59.26
73.80
78.23
70.66
52.04
25.92
-2.54
-28.02
-46.53
-56.40
-58.30
-54.64
-48.19
-41.54
-36.65
-34.67
-35.91
-40.01
-46.11
-52.71
-57.72
-58.02
-50.96
-35.31
-11.96
16.20
44.92
69.84
87.81
97.81
102.21
104.62
108.44
115.86
127.45
142.16
157.74
171.35
180.33
184.08
182.63
176.30
165.58
151.00
133.35
113.54
92.77
64.92
29.18
-11.12
-50.40
-83.91
-108.68
-122.18
-121.64
-105.39
-75.69
-38.77
-5.06
14.84
15.29
-1.82
-28.08
-53.10
-69.25
-74.56
-70.94
-63.01
-55.26
-49.95
-47.44
-47.48
-50.31
-56.24
-65.54
-76.23
-84.70
-86.98
-80.04
-63.79
-41.58
-19.06
-2.24
6.11
7.91
8.43
11.32
17.03
22.54
22.00
10.32
-12.16
-39.23
-60.64
-67.54
-56.79
-31.97
-1.60
25.16
43.58
54.82
62.96
70.86
76.96
75.79
61.29
30.08
-17.07
-73.94
-130.99
-179.35
-210.89
-221.23
-210.89
-184.67
-146.20
-105.94
-75.78
-62.12
-63.45
-73.30
-86.07
-99.42
-112.98
-126.85
-140.51
-151.76
-157.52
-156.48
-149.59
-139.92
-130.86
-124.19
-119.63
-115.76
-109.82
-98.68
-83.32
-65.29
-46.88
-29.87
-14.74
-0.74
13.10
27.89
44.25
61.83
79.99
97.87
115.17
132.39
150.68
171.29
195.42
223.62
254.91
286.69
314.56
333.54
339.90
332.56
313.62
287.63
259.69
233.45
210.23
189.07
167.98
145.22
120.04
92.48
62.83
31.03
-3.16
-39.56
-76.85
-112.30
-141.91
-161.32
-166.91
-156.91
-131.83
-94.39
-48.72
0.49
48.77
92.52
129.10
156.71
174.39
181.73
179.05
167.46
149.08
127.03
105.17
87.29
76.00
71.72
72.11
72.67
68.21
54.87
31.65
0.76
-33.27
-65.39
-91.55
-109.63
-119.34
-121.52
-117.53
-108.96
-97.72
-85.98
-75.98
-69.33
-66.59
-67.10
-69.34
-71.44
-71.67
-68.70
-61.57
-49.96
-34.44
-16.77
0.08
12.48
17.31
13.28
1.80
-13.07
-25.84
-31.44
-27.08
-13.12
7.22
28.97
47.16
58.13
60.29
54.07
41.44
25.26
8.46
-6.72
-19.18
-29.03
-37.11
-44.30
-51.03
-57.30
-63.00
-68.27
-73.41
-78.46
-82.72
-84.79
-83.28
-77.74
-69.24
-59.98
-52.26
-47.28
-44.63
-42.84
-40.48
-37.27
-34.16
-32.68
-33.81
-37.28
-41.55
-44.58
-44.76
-41.64
-36.01
-29.50
-23.95
-20.80
-20.58
-22.72
-25.77
-27.81
-27.29
-23.72
-17.96
-11.78
-7.09
-4.97
-5.29
-7.00
-8.82
-9.83
-9.68
-8.25
-5.36
-0.72
5.78
13.59
21.44
27.77
31.40
32.07
30.59
28.26
26.31
25.35
25.32
25.72
25.93
25.34
23.42
19.87
14.69
8.37
1.79
-4.02
-8.29
-10.74
-11.58
-11.22
-9.97
-7.90
-4.96
-1.20
3.04
7.28
11.19
14.67
17.87
20.84
23.30
24.77
24.81
23.47
21.28
19.03
17.18
15.59
13.60
10.57
6.45
1.93
-1.92
-4.40
-5.59
-6.44
-8.09
-11.25
-15.84
-21.23
-26.79
-32.32
-38.04
-44.17
-50.52
-56.25
-60.28
-61.80
-60.68
-57.35
-52.39
-46.09
-38.24
-28.57
-17.30
-5.38
5.58
13.99
19.02
21.10
21.93
23.97
29.57
40.06
55.12
72.54
88.84
100.41
105.09
103.06
96.86
90.05
85.54
84.14
84.27
83.03
77.73
67.29
52.57
35.77
19.31
4.80
-7.34
-17.80
-27.79
-38.40
-50.24
-63.22
-76.71
-89.92
-102.35
-114.03
-125.45
-137.09
-149.07
-161.12
-172.64
-183.07
-191.84
-198.19
-200.84
-197.92
-187.36
-167.61
-138.17
-99.79
-54.15
-3.00
52.34
111.13
172.53
234.81
294.76
347.94
389.76
416.96
428.75
427.06
415.64
398.37
377.82
354.47
327.11
294.10
254.81
210.56
164.56
120.96
83.41
53.91
32.28
16.55
3.93
-7.93
-20.26
-33.13
-45.80
-57.43
-67.54
-75.95
-82.67
-87.49
-89.90
-89.19
-84.81
-76.64
-65.23
-51.70
-37.54
-24.12
-12.32
-2.20
6.96
16.49
27.76
41.62
58.03
75.98
93.67
109.16
120.91
128.40
132.34
134.41
136.45
139.62
143.88
148.05
150.59
150.25
146.37
138.60
126.63
110.32
90.34
68.77
48.93
34.02
25.43
21.74
19.44
15.11
7.56
-1.48
-8.70
-11.80
-11.28
-10.39
-12.99
-20.79
-32.15
-42.72
-48.08
-46.23
-38.63
-29.31
-22.67
-21.49
-25.96
-34.30
-44.10
-53.56
-61.97
-69.50
-76.38
-82.40
-86.84
-89.00
-88.61
-86.04
-82.12
-77.48
-72.39
-66.66
-60.04
-52.74
-45.68
-40.23
-37.89
-39.73
-46.48
-58.30
-74.48
-92.58
-107.82
-113.63
-103.96
-76.24
-33.15
18.23
69.63
115.40
154.26
188.20
219.20
246.51
266.34
274.35
269.07
253.66
234.77
219.20
210.60
208.31
208.63
207.41
202.35
193.46
182.29
170.51
158.67
145.83
129.92
108.57
80.26
44.76
3.27
-42.14
-89.44
-137.56
-186.55
-237.32
-290.62
-346.40
-403.80
-461.78
-520.37
-580.77
-643.94
-708.11
-767.31
-812.72
-836.32
-835.28
-813.89
-781.60
-747.83
-717.09
-687.42
-652.92
-608.70
-554.28
-493.43
-430.87
-369.06
-307.89
-247.32
-190.57
-144.26
-115.15
-104.93
-107.59
-110.96
-102.10
-72.99
-23.34
40.30
108.30
172.11
226.94
272.42
311.60
349.00
387.75
427.47
463.22
486.82
490.12
469.17
426.18
368.70
305.89
244.20
185.36
126.93
65.04
-2.98
-77.43
-156.44
-236.51
-312.60
-378.62
-428.30
-456.87
-462.95
-449.07
-420.90
-385.06
-346.93
-309.51
-273.77
-239.70
-207.35
-176.78
-147.91
-119.94
-91.49
-61.31
-28.80
6.03
42.93
81.62
121.70
161.92
199.60
230.56
249.86
252.82
236.29
199.88
146.58
82.96
18.24
-37.60
-76.48
-94.41
-92.50
-76.09
-52.54
-28.54
-8.29
7.03
18.44
27.79
37.01
47.79
61.57
79.68
103.09
131.81
164.50
198.42
230.00
255.84
274.11
284.83
289.55
290.17
287.90
282.90
274.94
264.34
252.24
239.99
228.08
215.60
200.67
181.79
159.02
134.16
109.72
87.57
68.00
50.16
33.10
16.82
2.70
-7.16
-10.97
-8.19
0.31
12.51
26.18
39.56
51.88
63.10
73.51
83.06
91.22
97.36
101.20
103.11
103.99
104.79
105.89
106.81
106.39
103.22
96.15
84.60
68.83
50.02
30.19
12.10
-1.43
-8.25
-7.59
-0.36
10.91
22.90
32.46
37.34
36.67
30.87
21.29
9.64
-2.33
-13.08
-21.38
-26.39
-28.13
-27.59
-26.57
-27.03
-30.07
-35.12
-39.92
-41.57
-38.01
-29.24
-17.40
-5.71
3.09
8.10
10.33
11.84
14.34
18.23
22.58
26.03
27.83
28.40
29.03
31.05
35.04
40.58
46.71
52.52
57.71
62.45
66.99
71.17
74.26
75.36
73.98
70.28
65.03
59.06
52.76
45.64
36.71
25.01
10.38
-6.35
-23.64
-39.94
-54.40
-67.08
-78.72
-90.11
-101.64
-113.18
-124.19
-134.01
-141.85
-146.60
-146.71
-140.56
-127.09
-106.72
-81.54
-54.91
-30.28
-10.14
4.37
13.24
17.02
16.43
12.41
6.48
0.71
-2.86
-2.99
0.13
5.06
10.07
14.09
17.29
20.62
24.92
30.15
35.38
39.34
41.27
41.33
40.32
39.21
38.56
38.44
38.63
38.99
39.45
39.87
39.88
39.01
37.10
34.59
32.49
31.81
32.76
34.24
34.13
30.23
21.31
7.80
-8.41
-24.88
-39.53
-51.31
-60.15
-66.46
-70.76
-73.48
-75.14
-76.40
-77.77
-79.10
-79.43
-77.11
-70.63
-59.47
-44.61
-28.27
-12.96
-0.58
8.25
13.96
17.54
19.75
20.86
20.81
19.61
17.73
16.03
15.51
16.74
19.74
23.95
28.47
32.56
35.92
38.68
41.21
43.72
46.09
47.80
48.25
46.98
44.07
40.16
36.21
33.10
31.19
30.14
29.12
27.26
24.17
20.11
15.85
12.19
9.50
7.68
6.36
5.32
4.68
4.63
5.04
5.17
3.78
-0.16
-6.95
-15.80
-25.28
-34.03
-41.40
-47.44
-52.41
-56.25
-58.30
-57.71
-53.90
-47.08
-38.22
-28.62
-19.37
-10.99
-3.57
2.98
8.62
13.09
16.10
17.57
17.65
16.45
13.89
9.58
3.16
-5.25
-14.80
-23.93
-30.95
-34.66
-35.01
-33.11
-30.83
-30.05
-32.05
-37.14
-44.62
-53.02
-60.44
-64.96
-65.09
-60.19
-50.67
-37.93
-23.90
-10.50
0.86
9.55
15.68
19.85
22.87
25.46
28.18
31.26
34.69
38.18
41.18
43.11
43.40
41.74
38.10
32.85
26.55
19.84
13.33
7.40
2.17
-2.59
-7.27
-12.40
-18.37
-25.18
-32.40
-39.09
-44.30
-47.32
-48.02
-46.93
-44.93
-43.04
-41.97
-41.95
-42.56
-42.90
-41.93
-38.96
-34.17
-28.73
-24.46
-23.08
-25.50
-31.34
-39.14
-46.77
-52.14
-53.69
-50.49
-42.43
-30.15
-15.21
0.21
13.74
23.57
29.07
30.78
30.09
28.49
27.05
26.20
25.93
25.98
26.12
26.26
26.49
27.09
28.36
30.56
33.71
37.50
41.42
44.95
47.81
50.00
51.73
53.09
53.90
53.76
52.22
49.08
44.52
39.03
33.18
27.49
22.25
17.50
13.19
9.20
5.45
1.93
-1.32
-4.24
-6.79
-8.97
-10.95
-13.04
-15.60
-18.73
-22.02
-24.51
-24.97
-22.43
-16.68
-8.49
0.69
9.34
16.39
21.59
25.30
28.10
30.34
31.93
32.50
31.72
29.57
26.48
23.06
19.93
17.40
15.45
13.90
12.50
11.18
10.13
9.63
9.87
10.77
11.88
12.51
12.03
10.19
7.28
4.05
1.33
-0.29
-0.77
-0.64
-0.67
-1.40
-2.92
-4.80
-6.30
-6.81
-6.04
-4.11
-1.56
0.82
2.13
1.51
-1.55
-6.94
-13.85
-20.90
-26.49
-29.33
-28.69
-24.65
-17.80
-9.01
0.79
10.63
19.24
25.04
26.35
21.81
10.98
-5.48
-25.91
-48.17
-70.15
-90.13
-106.84
-119.43
-127.35
-130.41
-128.98
-124.00
-116.89
-109.06
-101.55
-94.75
-88.51
-82.63
-77.42
-73.88
-73.25
-76.06
-81.05
-85.05
-84.03
-75.00
-57.79
-35.27
-11.95
8.63
25.79
41.86
60.29
83.07
108.95
133.87
153.26
164.50
168.50
168.71
169.05
171.63
175.82
179.13
178.92
174.07
165.48
155.36
145.87
138.11
131.89
126.28
120.59
114.86
109.78
105.97
103.32
100.85
97.07
90.60
80.53
66.44
48.12
25.54
-0.69
-28.82
-55.84
-78.09
-92.60
-98.36
-96.78
-91.11
-85.08
-81.46
-81.36
-84.30
-88.98
-93.97
-98.17
-100.79
-101.34
-99.53
-95.24
-88.64
-80.03
-69.90
-58.74
-47.16
-35.86
-25.55
-16.78
-9.71
-3.99
1.11
6.34
12.12
18.35
24.38
29.40
32.83
34.57
35.09
35.15
35.42
36.14
37.02
37.43
36.86
35.15
32.71
30.27
28.54
27.92
28.30
29.31
30.53
31.73
32.91
34.16
35.58
37.20
39.02
41.04
43.26
45.54
47.46
48.34
47.30
43.43
35.91
24.20
8.18
-11.74
-34.55
-58.77
-82.65
-104.39
-122.23
-134.69
-140.70
-140.03
-133.49
-123.00
-111.13
-100.29
-91.90
-86.09
-82.00
-78.56
-75.23
-72.27
-70.36
-69.91
-70.69
-71.86
-72.41
-71.85
-70.41
-68.97
-68.43
-69.07
-70.36
-70.82
-68.62
-62.16
-50.53
-33.93
-13.59
8.45
29.93
48.90
64.18
75.45
83.08
87.82
90.39
91.38
91.18
90.05
88.26
86.13
83.90
81.64
79.22
76.31
72.57
67.69
61.51
54.04
45.58
36.82
28.90
23.35
21.52
24.03
30.17
37.91
44.56
47.86
47.09
43.32
38.84
35.89
35.49
37.01
38.64
38.49
35.52
29.99
23.14
16.47
11.08
7.38
5.19
4.03
3.52
3.35
3.37
3.44
3.38
2.98
2.04
0.48
-1.63
-4.05
-6.40
-8.36
-9.70
-10.37
-10.49
-10.36
-10.41
-11.21
-13.28
-16.88
-21.90
-27.67
-33.20
-37.37
-39.23
-38.27
-34.46
-28.28
-20.47
-11.94
-3.40
4.62
11.92
18.55
24.56
29.88
34.18
36.96
37.78
36.46
33.19
28.46
23.05
17.84
13.68
11.18
10.50
11.29
12.83
14.33
15.31
15.77
15.91
15.87
15.30
13.57
10.13
5.03
-0.90
-6.49
-10.83
-13.82
-16.09
-18.67
-22.41
-27.71
-34.51
-42.40
-50.86
-59.15
-66.41
-71.85
-74.98
-75.95
-75.38
-73.92
-71.67
-67.99
-61.68
-51.85
-38.62
-23.51
-9.03
2.32
9.04
11.14
10.05
7.85
6.43
6.77
8.89
11.97
15.00
17.18
18.21
18.33
18.11
18.18
19.01
20.84
23.51
26.64
29.68
32.10
33.58
34.12
34.02
33.75
33.83
34.62
36.12
37.96
39.40
39.50
37.39
32.66
25.55
16.93
8.01
-0.13
-6.88
-12.34
-17.19
-22.49
-29.25
-38.12
-49.05
-60.98
-72.00
-79.63
-81.75
-77.35
-67.10
-53.20
-38.46
-25.14
-14.11
-4.80
4.02
13.30
23.19
33.25
42.95
52.15
60.97
69.25
76.15
80.24
80.18
75.47
66.83
55.89
44.56
34.30
26.00
20.23
17.56
18.45
22.79
29.43
36.16
40.49
40.65
36.35
28.84
20.14
11.98
5.09
-0.87
-6.76
-13.25
-20.26
-27.10
-32.92
-37.25
-40.32
-42.91
-45.79
-49.34
-53.26
-56.80
-59.14
-59.75
-58.53
-55.54
-50.80
-44.02
-34.82
-23.01
-8.90
6.57
22.02
36.00
47.33
55.35
59.94
61.53
60.94
59.10
56.82
54.50
52.05
48.95
44.65
38.99
32.33
25.56
19.68
15.34
12.58
10.89
9.53
7.81
5.27
1.59
-3.59
-10.47
-18.97
-28.30
-37.02
-43.31
-45.68
-43.54
-37.48
-28.99
-19.98
-12.19
-6.85
-4.65
-5.72
-9.60
-15.44
-22.13
-28.79
-35.08
-41.20
-47.43
-53.50
-58.27
-60.02
-57.28
-49.66
-38.21
-24.92
-11.88
-0.46
8.84
16.13
21.50
24.65
25.07
22.53
17.54
11.42
5.90
2.40
1.58
3.21
6.43
10.16
13.53
16.08
17.69
18.48
18.63
18.31
17.63
16.62
15.29
13.63
11.67
9.38
6.76
3.81
0.53
-2.98
-6.59
-10.07
-13.25
-16.12
-18.80
-21.53
-24.45
-27.53
-30.56
-33.30
-35.62
-37.63
-39.67
-42.11
-45.16
-48.71
-52.22
-54.85
-55.57
-53.43
-47.86
-38.96
-27.56
-14.97
-2.55
8.73
18.58
27.16
34.72
41.20
46.25
49.43
50.73
50.62
49.95
49.55
49.82
50.72
51.86
52.90
53.67
54.16
54.35
54.09
53.12
51.16
48.19
44.35
39.96
35.21
30.10
24.35
17.60
9.64
0.63
-8.80
-17.72
-25.01
-29.80
-31.67
-30.80
-27.84
-23.74
-19.38
-15.26
-11.43
-7.47
-2.87
2.61
8.70
14.51
18.79
20.40
18.69
13.75
6.48
-1.55
-8.41
-12.24
-11.83
-7.05
0.94
10.13
18.43
24.68
29.24
33.73
40.16
49.81
62.60
77.09
91.21
103.19
111.90
116.77
117.35
113.05
103.23
87.77
67.44
43.65
17.93
-8.84
-36.54
-65.19
-94.11
-121.45
-144.72
-161.90
-172.46
-177.47
-178.70
-177.25
-172.66
-163.26
-147.52
-125.61
-100.11
-75.25
-55.26
-42.62
-37.36
-37.46
-40.10
-42.90
-44.48
-44.47
-42.97
-40.21
-36.37
-31.59
-26.12
-20.29
-14.50
-9.00
-3.91
0.86
5.61
10.83
17.06
24.77
34.10
44.53
55.05
64.31
71.22
75.32
76.91
76.84
76.10
75.45
75.28
75.64
76.39
77.38
78.67
80.36
82.37
84.24
85.23
84.65
82.24
78.53
74.79
72.66
73.41
76.98
81.99
86.28
87.83
85.71
80.45
73.70
67.76
64.57
64.50
66.47
68.38
67.98
63.63
54.38
39.69
19.30
-6.35
-36.19
-67.73
-97.04
-120.03
-134.26
-140.53
-142.59
-145.22
-146.69
-143.03
-129.80
-105.20
-71.83
-35.25
-1.05
27.37
49.62
67.34
81.87
92.86
98.93
98.41
90.47
75.30
54.24
28.89
0.58
-26.18
-49.13
-67.73
-82.49
-94.02
-102.43
-107.35
-108.21
-104.58
-96.91
-86.97
-76.86
-68.31
-62.21
-58.50
-56.28
-54.22
-51.00
-45.88
-39.51
-33.17
-28.32
-25.94
-26.16
-28.15
-30.36
-31.15
-29.46
-25.69
-21.32
-18.34
-18.29
-21.65
-27.45
-33.61
-38.08
-39.38
-37.69
-34.60
-32.32
-32.78
-37.06
-45.44
-57.06
-70.03
-80.87
-85.18
-78.58
-58.40
-25.40
15.10
53.74
80.33
87.08
72.11
39.90
-0.90
-41.97
-77.26
-104.76
-125.20
-137.83
-142.16
-135.59
-116.21
-85.49
-49.26
-15.65
8.65
21.33
25.93
29.02
36.80
52.16
73.78
97.78
120.17
138.41
151.57
159.64
162.17
158.18
146.55
126.55
98.89
65.59
30.68
-2.11
-30.12
-52.31
-68.89
-80.44
-87.28
-89.45
-85.70
-75.05
-57.54
-34.08
-6.55
22.45
49.27
69.37
78.21
73.19
55.31
29.47
3.10
-16.98
-27.53
-30.05
-29.45
-30.95
-37.17
-47.22
-57.85
-65.70
-69.31
-69.33
-67.42
-64.79
-61.34
-56.01
-47.96
-37.36
-25.43
-14.39
-6.31
-2.38
-2.64
-6.06
-11.17
-16.77
-22.41
-28.25
-35.02
-43.48
-54.02
-66.49
-80.26
-94.43
-108.21
-121.10
-132.68
-142.82
-151.47
-158.46
-163.40
-165.63
-164.19
-157.67
-146.36
-129.95
-108.45
-82.31
-52.51
-20.57
11.74
42.70
70.92
95.59
116.68
134.43
149.12
160.95
170.10
176.76
181.17
183.86
185.57
187.62
191.92
201.19
218.42
245.38
280.88
319.52
352.28
369.19
363.08
331.88
278.85
210.57
134.36
57.08
-15.19
-76.29
-119.97
-141.28
-138.67
-114.92
-76.06
-28.98
20.92
69.92
114.50
149.72
169.37
167.60
141.43
92.54
27.05
-45.89
-116.33
-175.01
-214.49
-230.07
-220.05
-186.00
-132.74
-68.05
-1.49
56.69
97.49
115.09
108.07
79.86
36.89
-13.77
-66.46
-117.01
-161.85
-196.37
-214.90
-212.84
-188.89
-146.20
-91.03
-29.95
32.40
93.11
149.34
196.55
228.30
238.85
225.88
191.79
142.29
83.53
19.70
-46.59
-112.21
-171.81
-217.45
-240.82
-236.47
-204.32
-150.16
-84.11
-18.04
36.85
71.70
81.33
64.37
23.14
-36.48
-105.89
-175.17
-234.39
-275.56
-294.32
-290.53
-268.15
-233.66
-194.11
-155.75
-123.23
-99.70
-87.32
-87.28
-98.92
-119.39
-143.47
-164.57
-176.56
-175.44
-160.39
-133.69
-99.91
-64.14
-30.62
-1.64
22.66
43.70
63.49
84.07
107.05
133.72
164.88
199.80
235.88
268.76
293.43
306.02
305.36
293.36
274.12
252.22
230.94
211.68
194.23
177.85
162.11
147.17
133.43
121.00
109.45
98.02
86.13
73.72
61.27
49.45
38.59
28.48
18.58
8.46
-1.77
-11.34
-19.24
-24.69
-27.57
-28.47
-28.34
-28.07
-28.16
-28.67
-29.33
-29.78
-29.68
-28.89
-27.46
-25.58
-23.59
-21.80
-20.46
-19.59
-19.07
-18.69
-18.24
-17.60
-16.70
-15.58
-14.27
-12.87
-11.47
-10.19
-9.04
-8.00
-6.94
-5.76
-4.40
-2.88
-1.25
0.43
2.14
3.89
5.63
7.24
8.55
9.33
9.43
8.76
7.31
5.16
2.40
-0.81
-4.27
-7.65
-10.52
-12.48
-13.18
-12.54
-10.69
-7.94
-4.67
-1.20
2.21
5.41
8.31
10.83
12.88
14.37
15.25
15.55
15.36
14.81
14.05
13.20
12.35
11.56
10.86
10.27
9.80
9.52
9.47
9.67
9.98
10.18
9.97
9.17
7.77
6.00
4.17
2.56
1.34
0.41
-0.41
-1.33
-2.47
-3.86
-5.45
-7.22
-9.15
-11.23
-13.43
-15.66
-17.83
-19.89
-21.80
-23.53
-24.92
-25.74
-25.73
-24.69
-22.61
-19.67
-16.25
-12.71
-9.41
-6.51
-4.12
-2.27
-0.99
-0.27
-0.07
-0.29
-0.77
-1.34
-1.91
-2.45
-2.98
-3.53
-4.10
-4.66
-5.14
-5.49
-5.68
-5.71
-5.57
-5.28
-4.87
-4.35
-3.71
-2.88
-1.75
-0.23
1.73
3.99
6.34
8.47
10.15
11.25
11.82
11.95
11.69
10.91
9.38
6.81
3.04
-1.87
-7.59
-13.63
-19.41
-24.37
-28.06
-30.22
-30.74
-29.72
-27.40
-24.09
-20.11
-15.78
-11.39
-7.18
-3.39
-0.14
2.48
4.48
5.94
6.98
7.73
8.29
8.79
9.30
9.87
10.49
11.09
11.59
11.88
11.92
11.71
11.34
10.95
10.65
10.52
10.54
10.56
10.38
9.81
8.79
7.38
5.72
4.00
2.33
0.74
-0.74
-2.07
-3.19
-4.08
-4.81
-5.56
-6.44
-7.42
-8.21
-8.33
-7.27
-4.75
-0.89
3.84
8.76
13.25
16.88
19.51
21.22
22.22
22.81
23.44
24.66
27.04
30.93
36.26
42.41
48.33
52.84
55.04
54.57
51.66
46.84
40.72
33.71
25.99
17.74
9.26
1.15
-5.75
-10.66
-13.11
-13.13
-11.25
-8.25
-4.88
-1.67
1.11
3.31
4.80
5.44
5.13
4.01
2.47
1.10
0.43
0.71
1.87
3.54
5.33
6.89
8.02
8.65
8.76
8.41
7.72
6.91
6.14
5.49
4.85
4.07
3.03
1.78
0.51
-0.53
-1.18
-1.47
-1.53
-1.50
-1.43
-1.26
-0.94
-0.47
-0.08
-0.07
-0.69
-1.98
-3.75
-5.66
-7.42
-8.93
-10.28
-11.64
-13.15
-14.74
-16.23
-17.38
-18.10
-18.49
-18.79
-19.25
-20.03
-21.09
-22.27
-23.37
-24.24
-24.73
-24.73
-24.10
-22.72
-20.52
-17.58
-14.08
-10.27
-6.44
-2.81
0.46
3.30
5.64
7.47
8.70
9.31
9.31
8.84
8.07
7.21
6.34
5.47
4.55
3.62
2.82
2.36
2.46
3.14
4.20
5.26
5.90
5.89
5.21
4.10
2.90
1.91
1.26
0.90
0.71
0.52
0.18
-0.39
-1.26
-2.41
-3.83
-5.39
-6.94
-8.33
-9.44
-10.23
-10.82
-11.38
-12.12
-13.10
-14.21
-15.16
-15.54
-15.01
-13.43
-10.93
-7.84
-4.58
-1.57
0.94
2.85
4.22
5.18
5.88
6.40
6.75
6.88
6.78
6.45
5.99
5.53
5.22
5.16
5.41
5.99
6.85
7.90
8.97
9.90
10.54
10.81
10.76
10.52
10.20
9.87
9.51
9.09
8.62
8.19
7.87
7.65
7.38
6.84
5.85
4.44
2.80
1.27
0.09
-0.66
-1.17
-1.70
-2.47
-3.50
-4.64
-5.69
-6.53
-7.18
-7.84
-8.75
-10.01
-11.60
-13.38
-15.19
-16.89
-18.37
-19.47
-19.96
-19.59
-18.18
-15.74
-12.54
-8.96
-5.41
-2.20
0.50
2.68
4.37
5.61
6.48
7.05
7.41
7.61
7.67
7.62
7.51
7.41
7.37
7.41
7.48
7.49
7.38
7.19
7.03
7.01
7.14
7.33
7.35
6.98
6.07
4.58
2.60
0.34
-2.00
-4.20
-6.10
-7.62
-8.78
-9.74
-10.65
-11.68
-12.90
-14.22
-15.45
-16.34
-16.71
-16.47
-15.69
-14.42
-12.72
-10.55
-7.91
-4.88
-1.69
1.31
3.74
5.32
5.99
5.88
5.32
4.65
4.13
3.82
3.62
3.31
2.72
1.82
0.80
-0.02
-0.25
0.22
1.19
2.08
2.32
1.60
0.14
-1.33
-2.02
-1.56
-0.42
0.28
-0.48
-2.71
-5.01
-5.02
-0.46
9.74
25.07
43.65
63.04
80.90
95.19
104.18
106.45
101.17
88.74
71.23
52.16
35.58
24.79
21.27
24.40
32.05
41.78
52.05
62.73
74.63
88.36
102.88
114.88
119.51
112.23
90.88
56.87
15.06
-27.73
-64.75
-91.08
-104.61
-105.97
-97.59
-82.52
-63.28
-41.51
-18.38
4.56
24.58
37.79
40.54
31.22
11.73
-12.69
-35.34
-50.85
-57.22
-55.88
-49.95
-41.96
-32.45
-20.49
-5.40
11.50
26.39
34.20
30.94
15.74
-8.41
-35.76
-60.07
-76.79
-83.98
-82.01
-72.32
-56.32
-35.15
-10.24
15.85
39.23
55.33
60.43
53.40
36.47
14.59
-6.28
-21.27
-27.81
-25.68
-16.11
-0.87
18.03
38.29
57.12
71.40
78.53
77.06
67.27
50.98
30.96
10.10
-9.39
-26.08
-39.33
-48.84
-54.29
-55.32
-51.76
-44.17
-34.15
-24.13
-16.72
-13.72
-15.52
-21.24
-29.49
-39.26
-50.14
-61.91
-73.77
-83.92
-89.89
-89.48
-81.96
-68.67
-52.90
-38.81
-29.74
-27.01
-29.49
-34.47
-39.43
-43.57
-48.25
-55.82
-67.53
-81.95
-94.90
-101.15
-96.75
-80.72
-55.22
-24.34
7.05
34.48
54.45
64.81
65.24
57.28
43.84
28.11
12.43
-2.18
-15.56
-27.30
-36.09
-39.82
-36.67
-26.13
-9.61
9.91
28.78
43.63
52.12
53.17
47.01
34.90
18.78
0.68
-17.59
-34.47
-48.52
-58.31
-62.40
-59.75
-50.21
-35.16
-17.50
-1.10
10.34
14.56
11.52
3.38
-6.54
-15.23
-21.19
-24.70
-27.03
-29.08
-30.43
-29.33
-23.57
-11.76
5.79
26.74
47.44
63.94
73.28
74.25
67.65
55.78
41.34
26.37
11.63
-3.01
-17.68
-31.58
-42.69
-48.35
-46.32
-35.84
-18.12
3.82
26.03
44.49
56.04
59.02
53.40
40.62
23.00
3.13
-16.61
-34.25
-48.25
-57.38
-60.82
-58.15
-49.48
-35.64
-18.22
0.38
17.16
28.94
33.08
28.23
14.76
-5.24
-28.55
-51.66
-71.53
-86.00
-93.84
-94.53
-87.87
-73.87
-52.89
-26.14
3.89
33.39
57.72
72.59
75.49
66.67
49.12
27.71
7.77
-6.23
-11.56
-7.27
6.19
27.30
53.70
82.25
109.15
130.41
142.55
143.23
131.85
109.78
80.26
48.06
18.57
-3.13
-13.47
-11.38
1.28
20.08
39.27
53.45
59.11
55.37
43.68
26.61
6.80
-13.81
-34.03
-53.06
-70.04
-83.92
-93.66
-98.58
-98.41
-93.18
-83.12
-68.57
-50.34
-30.11
-10.61
4.78
13.01
12.47
3.89
-9.73
-23.99
-34.58
-38.59
-35.16
-25.13
-10.37
7.03
25.06
41.79
55.21
63.40
64.88
59.12
46.89
30.10
11.33
-6.85
-22.35
-33.87
-40.82
-43.06
-40.57
-33.34
-21.61
-6.34
10.38
25.42
35.28
37.33
30.79
17.10
-0.63
-18.79
-34.32
-45.45
-51.56
-52.90
-49.93
-43.04
-32.52
-18.76
-2.80
13.50
27.47
36.34
38.24
33.09
22.75
10.42
-0.61
-8.09
-11.28
-10.81
-7.84
-3.51
1.47
6.86
12.81
19.80
28.60
39.74
52.91
66.51
77.75
83.24
80.14
67.09
44.82
16.03
-15.24
-44.54
-68.04
-83.16
-88.93
-85.78
-75.23
-59.54
-41.43
-23.82
-9.69
-1.63
-1.37
-9.12
-23.30
-40.86
-58.09
-71.71
-79.67
-81.32
-76.96
-67.33
-53.20
-35.58
-16.13
2.53
17.05
24.19
22.05
11.08
-5.68
-23.38
-36.97
-42.95
-40.47
-31.39
-19.27
-7.81
0.61
5.71
8.89
12.23
17.10
23.41
29.70
33.88
34.29
30.31
22.41
11.82
0.07
-11.15
-20.02
-24.58
-23.16
-14.99
-0.72
17.39
36.22
52.89
65.88
75.35
82.61
88.95
94.58
98.40
98.65
93.94
84.10
70.25
54.11
37.33
21.07
6.27
-5.90
-13.93
-16.46
-13.15
-5.30
4.40
12.90
18.08
19.57
18.79
18.23
20.43
27.00
37.91
51.29
63.82
71.70
71.85
63.03
46.16
23.84
-0.75
-24.91
-46.90
-65.77
-80.73
-90.75
-94.60
-91.29
-80.66
-63.78
-42.98
-21.56
-3.16
9.07
13.37
9.87
0.46
-11.99
-24.72
-35.93
-45.06
-52.25
-57.69
-60.99
-61.20
-57.22
-48.30
-34.43
-16.66
2.91
21.38
35.61
43.15
43.08
36.31
25.17
12.47
0.44
-9.81
-18.05
-24.36
-28.55
-29.95
-27.78
-21.54
-11.38
1.74
16.20
29.82
40.18
45.26
43.99
36.76
25.35
12.26
-0.19
-10.62
-18.64
-24.49
-28.37
-29.99
-28.58
-23.38
-14.24
-2.13
10.82
21.80
28.09
28.03
21.65
10.83
-1.40
-11.83
-18.22
-19.84
-17.28
-11.84
-4.66
3.68
13.27
24.49
37.56
52.20
67.44
81.66
93.04
100.02
102.00
99.42
93.61
86.21
78.53
71.23
64.35
57.70
51.17
44.72
38.18
30.82
21.34
8.11
-10.34
-34.66
-64.04
-95.78
-125.26
-146.88
-155.49
-148.20
-125.71
-92.53
-55.73
-22.85
0.36
11.31
10.62
0.99
-14.11
-31.53
-48.73
-63.78
-75.18
-81.95
-83.78
-81.20
-75.33
-67.35
-58.08
-47.71
-36.02
-22.99
-9.37
3.24
12.79
17.52
16.68
10.76
1.29
-9.70
-20.17
-28.52
-33.73
-35.25
-32.86
-26.58
-16.65
-3.48
12.40
30.44
50.06
70.64
91.39
110.97
127.33
137.64
138.80
128.27
105.00
70.16
27.22
-18.55
-61.09
-94.70
-115.10
-120.28
-110.89
-89.95
-61.89
-31.16
-1.17
26.03
49.24
67.18
77.88
78.75
67.68
44.13
10.01
-30.36
-71.10
-106.05
-130.21
-140.76
-137.53
-122.78
-100.31
-74.10
-47.22
-21.43
2.38
23.27
39.55
48.96
49.60
41.00
24.71
3.99
-17.18
-35.24
-47.73
-53.45
-52.28
-44.90
-32.59
-16.99
0.13
17.06
32.50
45.54
55.58
62.22
65.12
64.06
59.08
50.64
39.68
27.55
15.80
5.85
-1.26
-5.10
-5.94
-4.59
-2.13
0.46
2.56
4.02
5.04
6.09
7.68
10.23
13.94
18.58
23.38
27.00
27.85
24.50
16.28
3.54
-12.37
-29.49
-45.97
-60.67
-73.33
-84.49
-95.04
-105.78
-116.95
-128.07
-137.84
-144.28
-144.94
-137.51
-120.53
-94.26
-60.94
-24.43
10.81
41.07
64.47
81.18
92.84
101.60
109.09
116.03
122.21
126.96
129.59
129.64
127.01
121.89
114.68
105.81
95.57
84.08
71.30
57.29
42.43
27.47
13.43
1.29
-8.28
-14.99
-18.97
-20.63
-20.50
-19.08
-16.76
-13.65
-9.66
-4.66
1.22
7.36
12.58
15.43
14.61
9.45
0.25
-11.76
-24.57
-35.84
-43.44
-45.97
-43.01
-35.28
-24.28
-11.74
0.92
12.99
24.39
35.29
45.57
54.53
60.96
63.63
61.82
55.68
46.08
34.18
20.97
7.16
-6.60
-19.26
-29.29
-35.06
-35.55
-30.98
-22.92
-13.65
-5.16
1.72
7.41
13.05
19.35
25.86
30.74
31.48
25.95
13.41
-5.20
-27.42
-50.03
-69.79
-83.90
-90.32
-87.88
-76.43
-56.99
-31.80
-3.88
23.56
47.89
67.51
81.82
90.84
94.76
93.67
87.74
77.55
64.22
49.21
33.96
19.48
6.32
-5.14
-14.40
-20.73
-23.40
-22.04
-16.86
-8.67
1.33
11.69
20.75
26.68
27.59
22.10
9.97
-7.35
-26.73
-44.18
-56.04
-60.21
-56.80
-47.83
-36.27
-24.77
-14.84
-6.52
0.84
7.81
14.06
18.24
18.60
13.91
4.16
-9.32
-24.35
-38.74
-50.88
-60.02
-66.04
-69.04
-69.20
-66.71
-62.05
-56.00
-49.67
-44.05
-39.72
-36.65
-34.24
-31.61
-27.99
-22.98
-16.61
-9.31
-1.66
5.77
12.48
18.10
22.47
25.61
27.73
29.23
30.42
31.48
32.36
32.83
32.65
31.70
30.08
28.04
25.92
23.97
22.35
21.07
20.02
19.09
18.18
17.24
16.33
15.52
14.93
14.60
14.48
14.42
14.22
13.72
12.83
11.63
10.25
8.83
7.48
6.21
4.95
3.64
2.22
0.71
-0.82
-2.34
-3.89
-5.56
-7.44
-9.48
-11.47
-13.00
-13.60
-12.96
-10.97
-7.85
-4.00
0.08
3.94
7.31
10.11
12.37
14.18
15.65
16.81
17.68
18.32
18.79
19.22
19.66
20.15
20.58
20.83
20.76
20.38
19.85
19.37
19.12
19.11
19.20
19.19
18.92
18.37
17.58
16.63
15.57
14.39
13.08
11.71
10.37
9.14
8.05
7.04
6.07
5.11
4.21
3.43
2.83
2.45
2.22
2.08
1.94
1.73
1.40
0.99
0.59
0.41
0.67
1.51
3.00
5.02
7.35
9.75
12.04
14.11
15.87
17.24
18.09
18.35
18.02
17.21
16.14
15.02
14.05
13.30
12.75
12.34
11.99
11.64
11.28
10.89
10.39
9.71
8.76
7.49
5.86
3.88
1.62
-0.84
-3.29
-5.46
-7.10
-8.09
-8.55
-8.82
-9.33
-10.37
-11.83
-13.32
-14.24
-14.08
-12.67
-10.26
-7.37
-4.63
-2.50
-1.17
-0.50
-0.09
0.57
1.92
4.25
7.58
11.65
16.02
20.12
23.55
26.27
28.94
32.93
39.90
51.06
66.19
83.16
98.18
107.01
106.53
95.86
76.64
52.24
26.46
2.38
-18.11
-34.15
-45.55
-52.49
-55.49
-55.43
-53.49
-50.84
-48.23
-45.86
-43.39
-40.17
-35.46
-28.48
-18.65
-5.75
9.64
25.91
40.55
50.70
54.11
49.83
38.51
21.93
2.32
-18.28
-38.21
-56.14
-70.85
-81.36
-87.13
-88.34
-85.89
-80.96
-74.55
-67.20
-59.07
-50.34
-41.72
-34.46
-30.02
-29.51
-33.10
-39.83
-47.84
-54.89
-59.03
-59.10
-55.02
-47.71
-38.79
-29.95
-22.48
-16.94
-13.14
-10.40
-7.95
-5.16
-1.72
2.48
7.41
12.96
18.92
24.94
30.50
35.02
37.94
38.95
38.09
35.84
32.93
30.16
28.19
27.32
27.47
28.25
29.17
29.86
30.26
30.61
31.35
32.86
35.28
38.42
41.85
45.11
47.97
50.48
52.90
55.57
58.79
62.80
67.93
74.65
83.32
93.90
105.52
116.34
123.79
124.97
117.29
99.06
69.76
30.30
-17.06
-68.66
-119.54
-163.60
-194.36
-206.45
-197.27
-168.36
-125.54
-77.26
-31.94
4.63
30.64
47.54
58.14
64.55
67.14
64.79
56.14
40.53
18.54
-8.18
-37.08
-64.75
-87.10
-99.92
-100.07
-86.93
-63.07
-33.75
-5.18
17.52
31.72
37.38
36.03
29.33
18.11
2.25
-18.64
-44.15
-72.48
-100.30
-123.46
-138.15
-142.02
-134.95
-118.99
-97.68
-74.82
-53.50
-35.39
-20.83
-9.47
-0.93
4.85
7.81
8.22
6.99
5.55
5.40
7.32
11.03
15.31
18.62
19.80
18.64
15.98
13.24
11.69
11.97
13.78
16.21
18.20
19.04
18.60
17.27
15.64
14.25
13.34
12.88
12.63
12.33
11.77
10.89
9.76
8.49
7.24
6.11
5.16
4.40
3.76
3.18
2.59
1.92
1.14
0.21
-0.90
-2.23
-3.78
-5.47
-7.13
-8.46
-9.14
-8.92
-7.71
-5.62
-2.94
-0.00
2.88
5.48
7.69
9.46
10.77
11.65
12.16
12.35
12.32
12.11
11.76
11.34
10.88
10.47
10.19
10.11
10.23
10.51
10.85
11.08
11.07
10.66
9.81
8.56
7.08
5.61
4.38
3.51
3.03
2.85
2.82
2.82
2.74
2.49
2.02
1.30
0.38
-0.57
-1.35
-1.82
-2.05
-2.29
-2.87
-3.94
-5.51
-7.32
-9.03
-10.37
-11.20
-11.46
-11.14
-10.21
-8.62
-6.47
-3.95
-1.39
0.92
2.80
4.28
5.50
6.59
7.56
8.31
8.66
8.53
7.95
7.09
6.17
5.39
4.87
4.63
4.68
4.93
5.27
5.56
5.66
5.44
4.92
4.23
3.59
3.26
3.34
3.77
4.36
4.85
5.04
4.84
4.30
3.52
2.62
1.70
0.85
0.14
-0.36
-0.66
-0.84
-0.99
-1.20
-1.43
-1.61
-1.66
-1.60
-1.63
-2.02
-3.01
-4.66
-6.77
-8.94
-10.64
-11.44
-11.09
-9.66
-7.41
-4.76
-2.09
0.35
2.49
4.39
6.17
7.90
9.55
11.05
12.31
13.23
13.77
13.85
13.39
12.31
10.68
8.65
6.53
4.61
3.12
2.08
1.44
1.04
0.77
0.59
0.51
0.55
0.75
1.07
1.54
2.21
3.11
4.25
5.55
6.83
7.90
8.68
9.10
9.22
9.07
8.68
8.11
7.47
6.95
6.71
6.87
7.42
8.26
9.31
10.59
12.20
14.29
16.87
19.80
22.74
25.27
27.01
27.74
27.46
26.33
24.63
22.57
20.27
17.66
14.58
10.83
6.33
1.20
-4.21
-9.54
-14.44
-18.76
-22.53
-25.93
-29.14
-32.20
-35.04
-37.45
-39.14
-39.83
-39.24
-37.22
-33.88
-29.63
-25.22
-21.45
-18.99
-17.98
-18.04
-18.41
-18.25
-17.08
-14.87
-12.09
-9.38
-7.24
-5.85
-5.10
-4.79
-4.77
-5.00
-5.54
-6.37
-7.35
-8.21
-8.55
-7.98
-6.17
-2.96
1.60
7.23
13.42
19.52
24.95
29.24
32.17
33.76
34.32
34.53
35.49
38.62
45.35
56.53
72.02
90.47
109.70
127.42
142.06
153.18
161.51
168.31
174.77
181.40
187.90
193.44
197.20
198.89
199.06
199.02
200.41
204.69
212.48
223.30
235.47
246.17
251.79
248.55
233.80
207.48
173.19
137.84
109.76
95.52
97.33
112.10
132.70
150.98
160.62
158.77
145.78
123.83
95.45
62.97
28.76
-4.41
-33.52
-56.07
-71.10
-79.64
-84.28
-88.21
-93.98
-102.70
-113.91
-126.07
-137.39
-146.68
-153.68
-158.91
-163.12
-166.81
-169.91
-172.15
-173.32
-173.70
-174.28
-176.42
-181.59
-191.50
-208.24
-234.19
-271.00
-318.09
-371.21
-422.53
-462.40
-482.34
-477.58
-448.09
-397.56
-331.94
-258.24
-184.28
-118.94
-71.74
-51.33
-62.73
-104.89
-169.82
-244.27
-313.32
-364.62
-391.48
-393.85
-377.39
-350.44
-320.91
-293.78
-270.35
-248.87
-226.31
-200.06
-168.90
-132.84
-92.70
-49.72
-5.46
38.17
79.04
115.55
147.21
175.39
203.21
234.17
269.96
308.61
343.84
366.38
366.88
339.34
283.86
207.38
122.26
43.18
-16.51
-47.76
-47.51
-18.80
30.58
90.05
148.66
196.80
227.28
235.64
220.01
181.50
124.85
58.51
-6.91
-61.44
-99.13
-119.61
-127.18
-127.63
-124.34
-116.30
-98.97
-67.61
-20.81
37.56
99.41
155.29
197.23
220.35
222.92
205.79
172.01
126.80
77.30
31.21
-4.52
-25.78
-31.88
-25.68
-12.62
1.13
10.77
14.87
15.99
19.55
30.61
50.65
75.57
96.76
104.71
93.12
61.30
13.26
-45.30
-109.94
-177.70
-245.48
-307.58
-355.36
-379.79
-375.40
-342.96
-289.42
-225.21
-160.76
-103.82
-58.48
-25.10
-1.18
17.72
36.54
58.90
85.72
114.64
141.48
162.58
176.92
186.24
193.30
199.39
203.03
200.54
188.43
165.89
135.69
102.97
72.69
47.59
27.74
12.20
1.25
-2.68
3.84
22.43
50.20
79.64
101.19
107.50
96.86
73.68
45.87
20.73
1.60
-12.64
-25.51
-40.02
-56.30
-71.26
-79.96
-77.95
-63.58
-39.31
-10.97
14.23
30.76
37.28
37.07
36.04
39.14
47.13
56.02
59.34
51.92
32.96
6.44
-20.79
-42.11
-53.13
-52.34
-40.71
-20.86
3.24
26.89
45.25
54.74
54.35
46.07
33.73
20.83
8.69
-3.82
-18.90
-37.58
-58.30
-76.99
-89.05
-91.68
-85.51
-74.24
-62.67
-54.02
-48.25
-42.21
-31.74
-14.29
9.55
36.17
61.01
80.73
94.41
103.21
108.83
112.10
112.47
109.25
102.80
95.50
91.03
92.58
100.73
112.37
121.46
121.45
108.10
81.46
46.07
9.25
-21.72
-42.19
-51.57
-53.02
-51.78
-52.97
-59.88
-73.17
-90.85
-108.88
-122.04
-125.25
-115.20
-91.90
-59.36
-25.02
2.68
17.35
17.17
5.44
-11.22
-26.27
-36.16
-41.34
-44.99
-50.49
-59.27
-70.06
-79.38
-82.96
-77.09
-59.96
-32.29
2.20
37.68
67.85
88.10
97.00
96.44
90.16
81.55
72.29
62.49
51.88
41.04
31.65
25.98
25.80
31.57
42.35
56.03
69.51
79.30
82.24
76.68
63.50
45.96
28.36
14.39
5.57
1.24
-0.26
-0.53
-1.04
-3.57
-10.87
-25.91
-50.05
-81.65
-116.26
-148.54
-174.92
-195.10
-211.16
-225.10
-236.36
-241.20
-234.48
-212.45
-174.82
-124.87
-68.11
-10.10
44.38
91.32
127.04
148.27
153.45
144.05
124.73
102.48
84.30
74.99
75.70
83.96
94.71
102.13
101.44
90.42
70.07
44.67
20.52
3.87
-1.44
4.30
16.86
29.88
37.65
37.24
28.96
15.25
-0.61
-15.15
-24.78
-25.92
-16.00
4.89
32.83
60.74
80.80
88.18
83.04
70.06
55.25
42.43
31.35
18.93
2.12
-19.47
-42.90
-63.11
-75.14
-75.65
-63.68
-40.78
-10.70
21.05
48.39
66.53
73.59
71.42
64.63
58.18
54.83
53.95
52.45
47.03
36.21
20.88
3.60
-12.33
-23.55
-26.75
-19.15
0.19
29.14
61.77
89.44
103.46
98.02
71.70
26.90
-31.76
-99.00
-168.99
-234.52
-286.60
-315.82
-315.33
-284.25
-229.04
-162.05
-97.12
-44.53
-7.74
16.52
34.98
53.03
71.77
87.54
94.87
90.27
74.73
53.51
33.38
19.32
12.31
9.99
8.95
7.01
4.25
2.35
3.11
7.05
13.10
18.83
21.36
18.06
7.74
-8.78
-28.36
-46.33
-57.87
-59.75
-51.51
-35.34
-14.91
6.13
25.13
40.34
50.79
55.89
56.06
53.14
50.33
50.95
56.75
66.59
76.68
82.37
80.45
70.82
56.37
41.52
30.08
23.90
22.63
24.39
26.75
27.06
22.56
10.66
-10.22
-39.87
-75.91
-114.31
-150.66
-181.53
-204.92
-219.88
-225.60
-220.61
-202.84
-170.51
-123.80
-66.30
-5.11
50.62
92.42
115.25
118.91
107.64
87.78
65.34
44.01
25.06
8.54
-5.27
-15.04
-18.84
-15.48
-5.67
7.80
21.35
32.42
40.58
47.02
52.91
57.71
58.46
50.93
32.34
3.78
-29.25
-58.65
-77.07
-81.00
-71.64
-53.43
-31.40
-9.07
12.03
31.42
48.73
62.95
72.92
77.94
78.29
75.17
70.57
66.51
64.47
64.78
66.27
66.52
62.81
53.41
38.64
21.33
6.29
-1.10
3.24
20.07
45.82
73.20
93.34
99.21
88.75
65.73
38.02
13.79
-2.27
-10.61
-15.40
-21.13
-29.68
-39.49
-46.90
-48.38
-41.88
-27.25
-5.99
18.64
41.47
55.82
55.37
36.61
1.28
-43.26
-86.32
-117.83
-132.18
-129.82
-116.12
-98.49
-83.19
-73.11
-67.40
-62.65
-54.98
-42.38
-25.99
-9.66
2.20
6.99
5.47
1.17
-1.91
-1.45
2.31
7.69
13.77
21.59
33.28
49.65
67.94
81.71
83.65
69.26
39.47
0.55
-38.46
-68.89
-84.86
-84.05
-67.43
-38.71
-3.67
30.52
56.77
70.06
68.97
55.82
35.35
12.42
-9.55
-28.94
-45.13
-57.46
-64.82
-65.67
-58.82
-44.00
-22.34
3.42
29.26
50.71
64.24
68.60
65.36
57.95
49.80
42.39
34.61
24.06
9.10
-9.41
-28.26
-43.44
-51.83
-52.36
-45.79
-33.97
-19.18
-3.86
9.70
19.67
25.21
26.89
26.19
24.56
22.37
18.65
11.69
0.44
-14.68
-31.61
-46.97
-56.91
-57.95
-48.11
-27.97
-1.43
25.29
45.44
54.56
52.49
43.23
32.70
25.45
22.36
20.59
15.82
5.15
-11.03
-29.42
-45.70
-56.37
-59.56
-54.73
-42.13
-22.74
0.95
24.84
43.68
52.87
50.50
38.27
20.70
2.92
-11.62
-22.26
-30.49
-38.31
-46.99
-56.26
-64.67
-69.90
-69.17
-59.80
-40.43
-12.51
18.97
46.56
62.94
64.14
51.62
31.50
11.77
-1.55
-6.77
-6.58
-5.90
-8.99
-17.83
-31.71
-47.92
-62.62
-71.38
-69.97
-55.57
-28.29
7.93
45.91
77.66
97.39
103.80
100.06
91.67
83.34
76.55
69.38
58.35
41.02
17.66
-8.43
-32.35
-49.08
-55.04
-49.17
-33.35
-11.98
8.95
23.88
29.62
26.53
18.19
9.38
3.62
1.40
0.29
-3.24
-11.41
-23.74
-37.60
-49.85
-58.27
-61.91
-60.25
-52.55
-38.11
-17.44
6.68
28.98
43.49
46.03
36.13
17.20
-5.19
-25.66
-40.93
-50.09
-53.99
-53.89
-51.02
-46.43
-40.94
-35.00
-28.21
-19.58
-8.13
5.96
21.17
34.78
44.22
48.39
47.98
44.98
41.22
37.45
33.09
26.99
18.56
8.44
-1.48
-9.06
-12.85
-12.65
-9.30
-3.90
2.89
11.02
20.50
30.75
40.12
46.29
47.42
43.25
35.45
26.76
19.63
14.79
11.19
6.83
0.61
-6.89
-13.51
-16.62
-14.48
-6.97
4.28
16.36
25.83
29.40
24.81
11.59
-8.38
-31.10
-51.55
-65.51
-71.18
-69.74
-64.48
-58.96
-55.44
-54.10
-53.42
-51.05
-44.74
-33.01
-15.81
5.04
26.17
43.17
52.28
51.90
43.43
30.64
17.93
8.40
2.56
-1.17
-4.93
-9.89
-15.46
-19.97
-21.68
-19.67
-14.00
-5.42
4.82
15.33
24.50
30.81
33.40
32.66
30.26
28.48
28.96
31.73
35.23
37.29
36.63
33.64
30.38
29.27
31.68
37.07
43.19
46.94
45.62
37.66
23.09
3.35
-19.01
-40.95
-59.44
-71.90
-76.81
-73.92
-64.27
-49.86
-33.46
-17.86
-5.21
3.81
10.40
17.08
26.36
38.98
53.03
64.27
68.04
61.27
44.13
20.02
-5.81
-28.06
-42.94
-48.61
-45.13
-34.13
-18.40
-1.65
12.32
21.03
24.27
24.06
23.59
25.49
30.47
37.07
42.20
42.38
34.81
17.97
-7.89
-40.43
-75.22
-106.33
-127.62
-134.47
-125.44
-103.03
-72.99
-42.67
-18.68
-4.75
-0.90
-3.73
-8.08
-9.37
-5.40
3.01
13.02
21.64
27.55
31.82
36.62
43.15
50.11
53.88
50.44
38.07
18.70
-3.04
-22.02
-35.12
-41.84
-43.13
-39.51
-30.05
-13.29
10.71
38.54
63.72
79.18
80.49
68.00
46.65
23.51
4.63
-7.06
-11.92
-12.27
-10.58
-8.00
-4.42
0.81
7.91
16.11
24.07
30.75
36.11
41.03
46.38
52.19
57.12
59.18
56.94
50.54
41.74
32.89
25.83
21.25
19.01
18.79
20.48
24.12
29.41
35.56
41.77
47.63
53.31
58.99
64.05
66.58
63.56
52.09
30.53
-1.05
-41.43
-89.18
-142.85
-200.26
-257.17
-306.56
-340.15
-350.86
-335.63
-296.63
-240.41
-175.42
-109.57
-48.80
2.85
42.38
67.33
76.06
68.62
47.50
17.86
-13.38
-38.99
-53.04
-52.13
-36.08
-7.82
27.70
64.90
98.72
125.36
142.46
149.02
145.43
133.52
116.15
96.39
76.62
57.66
39.13
20.32
1.42
-15.99
-29.17
-35.45
-33.29
-22.92
-6.39
12.95
31.36
45.57
53.69
55.59
52.76
47.31
40.93
33.90
25.39
13.99
-1.11
-19.30
-38.59
-56.15
-69.29
-76.09
-75.70
-68.17
-54.19
-34.86
-11.37
14.85
42.13
68.22
90.32
105.53
111.81
108.78
98.07
82.84
66.66
52.41
41.59
34.26
29.57
26.20
22.80
18.15
11.39
2.12
-9.12
-20.64
-29.78
-33.87
-31.14
-21.62
-7.12
9.35
24.43
34.84
37.63
30.31
11.38
-18.81
-57.30
-98.75
-136.64
-165.14
-180.70
-182.64
-172.29
-151.67
-122.58
-86.58
-45.66
-2.90
37.52
70.99
93.80
104.25
103.34
94.56
82.60
71.73
64.21
59.57
55.36
49.00
39.35
27.55
16.24
7.95
3.58
2.01
1.10
-0.97
-4.55
-8.59
-11.37
-11.62
-8.98
-4.22
1.26
6.14
9.50
11.14
11.29
10.46
9.10
7.54
5.97
4.48
3.19
2.12
1.12
0.01
-1.05
-1.25
0.76
6.74
17.88
34.10
53.40
72.23
86.61
93.80
93.80
89.62
86.02
86.91
92.85
99.95
101.06
88.57
57.82
9.26
-51.20
-113.55
-166.26
-199.05
-205.36
-184.29
-141.45
-88.19
-38.46
-4.25
8.76
2.99
-12.77
-28.04
-35.68
-34.49
-28.58
-23.59
-23.01
-26.42
-30.40
-31.10
-26.56
-17.37
-5.59
6.97
19.55
32.35
45.49
58.40
69.90
78.55
82.92
81.47
72.27
52.85
20.87
-24.43
-80.74
-142.08
-199.51
-243.38
-265.95
-263.41
-236.33
-188.81
-127.01
-57.63
12.50
76.76
128.88
163.62
177.80
171.42
148.12
114.23
77.24
43.98
19.22
5.20
1.77
7.39
20.06
38.08
60.18
85.05
110.63
133.67
150.36
157.77
155.56
146.40
135.11
126.48
123.00
123.89
125.82
125.02
119.61
110.81
102.39
98.89
103.40
115.97
133.33
149.81
159.46
157.79
143.21
117.21
83.39
46.10
8.71
-27.25
-62.01
-96.94
-133.86
-174.58
-220.41
-271.45
-325.53
-377.63
-420.30
-445.63
-447.89
-425.85
-383.16
-326.45
-262.43
-195.46
-127.23
-58.36
9.35
71.99
124.59
163.48
188.31
202.56
212.26
223.89
242.39
270.02
305.70
345.38
382.85
411.29
425.44
423.47
407.65
383.25
356.27
330.99
308.84
288.95
269.74
250.30
230.65
210.95
190.44
167.20
138.77
103.41
61.06
13.43
-36.52
-85.28
-129.12
-164.32
-187.69
-197.75
-195.78
-185.98
-174.14
-165.05
-160.07
-156.14
-147.03
-126.29
-90.43
-40.72
17.11
75.00
125.21
162.52
185.03
193.78
191.71
182.43
169.28
154.82
140.78
128.33
118.38
111.60
108.20
107.59
108.42
109.02
108.08
105.11
100.55
95.39
90.58
86.60
83.26
79.90
75.67
69.78
61.86
51.90
40.19
27.22
13.23
-1.89
-18.61
-37.05
-56.24
-73.75
-86.24
-90.95
-87.68
-79.23
-70.53
-66.58
-70.39
-81.83
-97.98
-115.37
-131.41
-145.52
-158.33
-170.57
-182.14
-191.87
-198.26
-200.11
-197.52
-191.56
-184.48
-178.35
-174.13
-171.58
-169.41
-165.90
-159.19
-148.93
-135.82
-123.67
-116.02
-115.13
-121.14
-131.82
-143.74
-152.02
-155.03
-153.24
-153.67
-163.50
-188.01
-228.87
-283.17
-345.34
-405.95
-461.01
-509.29
-559.59
-621.03
-701.13
-803.59
-926.72
-1064.73
-1203.54
-1333.40
-1444.20
-1536.03
-1609.55
-1666.33
-1708.82
-1738.64
-1758.68
-1766.42
-1768.19
-1702.63
-1526.56
-1218.98
-796.07
-309.78
175.73
566.78
855.27
1054.69
1183.29
1248.11
1255.47
1219.97
1154.84
1082.45
1019.43
980.23
961.19
952.54
938.00
907.22
857.12
789.56
711.32
629.87
557.56
498.81
455.75
424.14
397.08
370.14
340.00
306.59
271.48
241.15
217.96
203.32
195.24
190.80
186.87
180.06
168.91
153.49
138.14
124.62
115.40
111.83
113.96
120.46
128.39
134.86
137.63
137.75
137.20
139.09
146.21
159.61
178.18
198.58
217.14
230.98
240.96
250.35
264.10
287.10
322.83
373.12
438.02
515.98
592.66
651.64
675.40
651.35
577.54
464.59
331.87
200.04
84.46
-8.19
-77.39
-126.69
-159.86
-179.39
-186.90
-184.62
-176.31
-166.60
-159.65
-156.57
-156.06
-155.02
-150.21
-140.00
-125.07
-108.06
-92.11
-79.72
-71.20
-65.23
-59.34
-51.37
-40.42
-27.17
-13.84
-2.77
4.10
6.52
4.49
-0.77
-8.22
-17.14
-27.32
-39.17
-52.70
-67.59
-83.10
-98.44
-112.48
-124.99
-136.23
-144.53
-150.97
-156.23
-160.33
-162.97
-166.11
-168.51
-169.86
-170.33
-170.30
-170.12
-169.27
-166.91
-162.35
-155.40
-146.19
-135.96
-126.21
-117.96
-111.39
-105.31
-97.77
-86.87
-71.62
-52.08
-30.33
-10.12
4.07
8.09
0.38
-16.82
-37.27
-52.04
-50.74
-25.60
25.85
99.64
186.01
272.07
345.05
395.63
420.15
421.20
405.96
382.85
359.46
340.61
327.84
319.97
314.44
308.81
301.57
291.72
276.98
255.41
226.32
190.76
150.81
108.17
63.47
16.31
-33.53
-86.65
-139.98
-186.53
-217.76
-228.22
-219.74
-201.37
-185.91
-185.08
-208.83
-260.24
-335.06
-423.42
-512.83
-591.77
-651.24
-685.93
-676.06
-615.49
-515.00
-398.77
-291.36
-206.64
-147.12
-108.36
-84.09
-68.83
-61.43
-60.65
-63.56
-67.78
-67.72
-59.70
-42.32
-15.74
19.51
60.61
105.47
151.61
196.34
237.62
273.05
300.46
318.51
327.13
325.93
315.60
298.01
276.07
253.15
231.39
211.83
194.69
179.90
166.50
153.56
140.44
127.18
114.46
102.82
92.70
84.45
78.25
73.75
70.24
66.85
62.95
58.62
54.16
50.09
47.14
45.65
45.71
47.42
50.84
55.85
61.38
65.20
64.43
56.75
41.55
20.63
-2.60
-24.49
-42.43
-55.38
-63.39
-66.61
-65.02
-58.74
-48.57
-36.62
-25.78
-18.69
-16.54
-18.93
-24.12
-30.48
-37.27
-44.72
-54.02
-66.44
-82.02
-100.32
-120.25
-140.09
-157.63
-169.76
-173.01
-164.69
-144.35
-114.60
-80.89
-49.85
-26.15
-11.81
-5.79
-5.41
-7.90
-11.59
-15.56
-18.96
-20.18
-16.84
-6.65
11.63
37.38
67.39
96.33
117.56
126.00
120.13
102.93
80.92
61.41
49.63
46.47
48.96
52.64
54.20
52.90
50.06
47.12
44.31
40.22
32.75
20.94
5.85
-9.70
-22.35
-29.61
-31.17
-28.82
-25.53
-24.35
-26.87
-32.80
-40.56
-48.33
-54.87
-60.49
-66.61
-74.19
-84.92
-99.36
-117.06
-136.84
-156.34
-171.83
-179.00
-174.23
-156.47
-128.66
-96.97
-68.75
-49.63
-41.30
-41.39
-45.29
-48.71
-48.89
-45.34
-38.54
-28.75
-15.66
1.46
22.61
46.38
69.82
90.32
105.70
115.32
119.87
120.81
119.93
118.41
116.61
114.24
110.83
106.05
100.22
94.49
89.35
85.40
82.72
80.61
78.38
74.62
68.31
59.16
47.41
33.66
18.90
4.05
-10.15
-23.11
-34.39
-43.61
-50.43
-54.69
-56.37
-55.55
-52.49
-47.54
-41.15
-33.76
-25.78
-17.52
-9.45
-2.16
3.80
7.78
9.25
7.90
3.57
-3.55
-13.04
-24.33
-36.93
-50.10
-63.32
-76.06
-87.93
-98.66
-107.59
-114.20
-117.83
-118.20
-115.25
-109.42
-101.45
-92.33
-83.20
-74.56
-67.11
-61.23
-57.40
-55.99
-57.37
-61.75
-69.05
-78.88
-89.78
-100.45
-109.19
-114.75
-116.41
-114.03
-107.43
-95.52
-82.37
-68.97
-55.66
-41.13
-24.48
-6.04
12.52
29.20
42.74
52.85
60.98
68.80
80.65
99.27
124.12
151.39
176.22
195.02
206.35
211.39
212.49
216.73
229.25
250.42
275.82
299.74
318.39
331.05
339.78
347.63
363.27
392.87
437.25
491.87
550.00
605.08
650.56
679.54
649.94
541.17
365.68
164.58
-18.48
-158.46
-251.30
-305.98
-335.45
-350.47
-351.41
-336.61
-307.50
-270.57
-234.21
-204.76
-184.68
-173.35
-168.14
-161.86
-149.89
-132.70
-115.49
-104.60
-104.02
-113.24
-129.29
-148.13
-163.21
-169.99
-167.69
-159.08
-148.21
-138.17
-130.20
-124.34
-119.91
-114.67
-107.09
-97.06
-85.93
-75.44
-66.74
-60.14
-55.48
-52.43
-50.06
-47.61
-44.72
-41.45
-38.06
-34.79
-31.91
-29.82
-29.03
-29.83
-32.16
-35.42
-38.75
-41.33
-42.76
-43.34
-43.85
-45.49
-49.07
-54.66
-61.40
-68.01
-73.46
-77.27
-79.85
-82.03
-85.07
-89.91
-97.26
-107.56
-120.84
-135.87
-149.41
-157.51
-154.03
-135.36
-101.75
-57.78
-10.74
32.18
66.61
92.04
110.41
125.16
138.35
150.38
160.49
167.81
172.16
173.89
173.60
171.42
167.99
163.05
156.76
149.99
144.17
141.02
141.60
145.27
148.87
147.50
136.04
112.06
77.49
38.38
2.71
-22.95
-35.98
-37.99
-33.20
-25.94
-18.66
-11.70
-4.55
3.02
10.28
16.00
19.44
20.75
20.68
19.85
18.24
14.65
7.40
-4.86
-22.23
-42.91
-64.32
-83.38
-97.82
-106.78
-111.01
-112.56
-114.11
-118.46
-126.32
-136.34
-144.40
-144.84
-132.69
-106.42
-69.39
-29.18
5.40
27.92
36.48
34.17
26.53
18.85
14.33
13.88
17.02
22.81
29.76
35.46
37.04
32.33
21.54
8.05
-3.01
-6.83
-1.29
12.29
30.23
48.72
65.20
78.88
89.81
97.71
101.89
101.62
96.58
87.24
74.79
60.20
43.84
25.46
4.47
-19.10
-44.21
-68.71
-89.87
-104.86
-111.72
-109.97
-100.35
-84.32
-63.51
-39.53
-13.07
13.62
38.31
59.43
74.94
82.95
82.66
74.77
60.95
43.29
23.74
3.80
-15.86
-34.35
-51.92
-68.86
-85.53
-101.94
-117.24
-128.91
-132.91
-125.30
-104.60
-73.25
-37.25
-4.25
19.56
31.65
33.62
29.70
24.13
19.18
14.86
10.29
4.95
-0.53
-4.85
-7.04
-7.21
-6.56
-6.71
-9.25
-14.35
-21.22
-28.47
-34.75
-39.36
-42.39
-44.59
-46.79
-49.44
-52.17
-54.06
-54.03
-51.00
-44.61
-35.28
-24.13
-12.48
-1.53
7.96
15.64
21.51
25.76
28.52
29.89
29.93
28.74
26.62
24.00
21.33
18.98
17.16
15.89
15.06
14.42
13.78
13.12
12.53
12.05
11.70
11.44
11.19
10.83
10.09
8.90
7.55
6.32
5.32
4.45
3.48
2.05
-0.15
-3.72
-8.73
-14.58
-20.67
-26.65
-32.53
-38.50
-44.79
-51.49
-59.00
-66.81
-73.48
-77.38
-77.32
-72.62
-62.97
-48.39
-28.91
-5.43
17.82
38.70
56.10
69.43
78.81
85.05
88.96
95.47
102.38
105.67
101.92
90.13
72.18
52.59
37.03
30.14
33.94
47.10
67.74
90.35
112.06
130.92
145.06
152.36
151.21
142.14
128.33
115.80
110.62
115.91
129.48
145.00
155.46
156.87
149.75
137.63
124.52
112.42
101.25
89.61
76.97
64.53
54.35
47.71
43.97
40.65
35.30
27.47
18.68
11.64
8.48
9.48
12.96
16.39
16.88
12.38
2.02
-14.31
-36.23
-63.40
-95.19
-130.02
-164.71
-195.88
-220.51
-237.29
-247.55
-254.91
-263.87
-277.71
-296.86
-311.59
-311.39
-288.78
-243.62
-183.35
-118.50
-57.48
-4.00
41.90
81.76
115.83
142.92
161.46
170.60
171.28
165.85
157.10
147.05
137.07
127.07
115.99
102.72
86.69
68.28
48.70
29.68
11.78
-4.96
-18.38
-27.83
-33.42
-35.97
-36.61
-36.45
-36.29
-37.82
-42.44
-51.39
-65.96
-87.39
-116.87
-155.15
-202.29
-248.80
-286.76
-311.83
-324.16
-325.75
-316.53
-293.66
-253.94
-197.41
-129.23
-60.23
-1.97
37.79
57.49
61.18
55.52
46.81
39.24
34.87
33.46
33.74
35.88
40.64
48.45
59.29
72.98
89.31
108.64
131.32
158.16
188.05
219.35
248.26
268.37
272.55
256.05
219.67
170.07
117.81
73.22
42.66
26.64
21.08
20.54
21.23
22.19
24.33
28.46
33.95
39.07
41.99
41.92
39.71
37.24
36.55
38.43
42.26
45.37
44.86
38.66
26.50
10.17
-7.03
-21.54
-30.86
-34.31
-33.59
-31.46
-30.80
-33.45
-39.43
-46.67
-51.68
-50.74
-41.10
-23.11
-0.00
22.57
38.31
42.67
34.90
18.81
2.00
-6.93
-2.56
15.26
40.44
62.91
72.18
61.68
31.48
-11.93
-54.07
-80.28
-78.82
-44.62
18.97
100.98
185.62
256.53
301.45
315.92
304.12
277.96
252.45
239.82
245.27
265.52
291.07
311.24
318.78
311.80
293.30
267.90
239.14
208.46
176.13
142.96
111.16
84.02
63.76
50.20
40.42
29.96
15.20
-4.97
-28.58
-51.49
-69.31
-79.43
-81.98
-79.74
-76.74
-76.50
-80.67
-88.49
-97.39
-104.28
-107.05
-105.38
-100.94
-96.48
-94.52
-96.40
-101.66
-108.48
-114.91
-119.84
-123.57
-127.42
-132.65
-139.45
-146.77
-153.01
-156.92
-158.06
-156.53
-152.41
-145.52
-135.84
-124.29
-113.07
-105.13
-102.69
-106.24
-114.31
-124.61
-135.59
-147.60
-162.55
-182.23
-206.67
-233.50
-258.49
-277.06
-286.12
-285.04
-275.87
-262.75
-250.48
-242.76
-240.74
-242.59
-244.07
-239.97
-225.71
-199.13
-161.76
-118.46
-76.05
-40.68
-14.83
4.25
23.39
50.02
88.40
137.45
191.88
245.19
292.98
333.95
368.33
395.37
412.05
414.31
400.01
371.43
334.97
298.33
267.07
242.33
221.33
199.58
173.74
142.99
108.75
73.26
38.25
4.20
-29.92
-65.78
-104.63
-146.62
-190.70
-235.03
-277.86
-318.27
-356.50
-393.86
-432.33
-474.20
-521.57
-575.29
-633.85
-692.58
-743.82
-778.84
-790.65
-776.64
-739.61
-686.61
-626.15
-565.21
-507.64
-454.35
-404.81
-358.58
-315.93
-277.38
-242.93
-211.54
-181.61
-151.74
-121.54
-91.78
-64.08
-40.02
-20.44
-5.14
7.01
17.41
27.13
36.55
45.25
52.49
57.62
60.57
61.84
62.39
63.16
64.72
67.17
70.24
73.61
77.17
81.20
86.14
92.45
100.30
109.56
119.98
131.42
144.08
158.48
175.22
194.57
216.29
239.49
263.16
286.49
309.13
331.34
353.56
376.11
399.18
423.17
448.83
477.12
508.19
540.19
568.89
588.34
593.19
581.09
553.99
517.36
477.75
440.05
406.00
374.37
342.50
307.99
269.52
226.54
178.85
126.31
69.47
10.30
-47.55
-99.53
-141.66
-172.46
-194.37
-213.30
-236.34
-268.52
-309.76
-353.90
-390.90
-410.88
-408.51
-385.21
-347.90
-305.42
-264.49
-227.62
-193.79
-160.99
-128.59
-98.14
-72.14
-51.90
-36.30
-21.84
-3.97
21.39
56.68
101.95
154.46
208.79
257.31
291.89
306.12
297.86
270.31
231.02
189.26
152.74
125.53
107.64
96.61
89.67
85.33
83.54
84.50
87.48
90.71
92.86
94.87
100.47
114.65
140.38
175.34
211.17
235.96
239.02
215.19
166.72
101.50
29.43
-40.86
-102.91
-151.54
-181.85
-190.23
-176.73
-146.95
-111.56
-82.68
-68.97
-71.80
-85.32
-99.35
-104.09
-93.89
-68.01
-29.11
19.41
74.95
135.58
198.53
259.11
311.17
348.80
368.64
371.18
360.60
342.99
324.08
307.37
293.51
281.08
267.97
252.74
235.04
215.56
195.25
174.64
153.58
131.30
106.77
79.27
49.34
19.05
-8.10
-28.20
-38.65
-39.46
-33.67
-26.37
-22.84
-26.20
-36.49
-51.35
-67.73
-83.86
-100.33
-119.58
-143.92
-173.52
-205.35
-234.00
-253.61
-260.08
-252.42
-233.01
-206.89
-180.18
-158.17
-144.17
-139.30
-142.92
-153.40
-168.86
-187.26
-205.95
-221.38
-229.38
-225.65
-206.91
-172.03
-123.12
-65.82
-7.74
43.90
84.28
111.56
126.37
130.44
125.45
112.68
93.55
70.59
47.52
28.22
14.67
5.70
-2.80
-15.74
-35.82
-61.40
-86.81
-104.84
-110.03
-100.64
-79.24
-51.50
-24.52
-5.00
1.84
-6.90
-30.87
-65.56
-102.62
-132.15
-146.28
-142.73
-125.13
-100.46
-74.46
-48.53
-19.52
16.58
60.69
108.54
152.21
184.29
201.39
205.10
200.03
190.68
179.66
167.95
156.02
144.66
134.59
125.61
116.69
107.23
98.02
91.36
89.57
92.74
97.98
100.25
95.17
81.03
59.81
35.43
11.36
-11.46
-34.46
-59.55
-87.08
-115.00
-139.88
-159.12
-172.49
-182.06
-190.06
-196.88
-199.62
-193.40
-174.47
-143.34
-106.32
-73.53
-54.68
-54.61
-71.62
-99.01
-129.22
-157.40
-182.34
-204.48
-222.75
-233.44
-231.24
-213.31
-182.81
-149.39
-126.03
-123.81
-147.14
-192.56
-251.49
-314.76
-376.54
-435.10
-490.52
-541.60
-583.82
-610.41
-615.23
-596.28
-557.17
-505.83
-451.41
-400.87
-357.07
-319.05
-284.26
-250.70
-218.22
-188.14
-161.97
-140.11
-121.46
-104.15
-86.41
-67.48
-48.04
-29.55
-13.39
0.03
11.64
23.43
37.48
55.09
75.99
98.48
120.25
139.51
155.89
170.67
186.20
204.73
227.36
253.45
281.00
307.56
331.37
352.08
370.79
389.55
410.87
437.28
470.78
511.87
558.42
604.83
642.45
661.74
655.61
622.53
567.69
501.29
434.65
376.03
328.38
289.50
254.69
219.90
183.77
147.70
114.36
85.65
61.99
42.58
26.10
11.36
-2.57
-17.48
-36.90
-66.00
-109.75
-169.93
-242.43
-317.51
-382.45
-426.14
-443.17
-435.36
-410.18
-376.57
-341.09
-304.84
-265.46
-219.98
-167.14
-107.82
-43.52
25.16
98.83
177.77
261.55
345.45
421.02
478.89
512.88
522.36
511.26
485.16
448.57
407.62
367.84
335.01
315.14
312.50
326.74
350.87
372.73
379.22
365.35
332.07
284.92
231.33
178.71
133.37
99.72
80.13
50.41
-2.42
-78.33
-165.03
-248.23
-319.05
-374.67
-416.08
-445.72
-466.79
-478.00
-478.25
-467.51
-448.19
-424.21
-399.43
-377.73
-358.97
-341.68
-320.57
-291.61
-252.70
-205.20
-152.59
-98.78
-50.58
-11.64
16.57
36.29
50.05
60.48
68.24
72.57
72.51
67.63
58.82
47.04
37.69
30.62
26.24
23.78
21.61
18.24
13.07
6.84
0.42
-5.42
-9.62
-10.65
-8.84
-5.75
-2.87
-0.40
3.15
9.93
22.22
38.21
58.64
83.47
111.90
143.26
178.17
218.27
265.05
304.56
326.58
329.41
318.61
300.55
276.43
243.03
197.06
139.07
74.66
14.97
-29.11
-52.74
-58.62
-54.54
-49.17
-47.67
-51.80
-61.41
-74.21
-88.59
-104.89
-121.76
-139.04
-156.05
-171.25
-182.84
-189.83
-191.11
-186.72
-178.08
-167.47
-157.59
-150.07
-145.09
-141.93
-139.47
-136.17
-131.20
-124.63
-117.39
-111.07
-106.66
-104.50
-104.62
-107.32
-112.60
-119.54
-125.52
-126.21
-117.24
-96.14
-64.28
-27.10
7.58
32.87
45.58
46.91
41.09
32.79
24.98
18.36
12.27
5.72
-1.42
-8.40
-14.20
-18.13
-19.90
-19.39
-16.85
-11.62
-3.28
8.43
23.60
41.85
62.49
84.46
106.52
126.87
145.30
162.15
177.91
192.00
201.84
203.22
191.99
166.58
129.77
88.56
51.38
24.95
11.69
9.40
13.15
18.12
21.56
23.38
24.99
27.32
30.20
32.37
32.22
28.72
21.48
10.84
-2.20
-16.63
-31.77
-47.39
-63.45
-80.07
-96.66
-112.82
-127.99
-141.80
-154.55
-166.86
-178.56
-187.78
-191.05
-184.99
-167.42
-139.97
-107.87
-78.24
-57.14
-47.09
-46.57
-51.51
-57.53
-61.81
-63.53
-62.77
-59.35
-52.43
-40.92
-24.35
-3.59
19.30
41.84
61.20
76.40
87.52
95.39
101.03
105.09
107.65
108.29
106.94
103.07
97.13
90.09
83.06
77.00
72.31
68.84
66.02
63.14
59.66
55.60
51.29
47.18
43.69
41.03
39.16
37.83
36.68
35.43
34.09
32.71
31.39
30.19
29.05
27.77
26.44
24.43
21.43
17.36
12.32
6.57
0.47
-5.58
-11.19
-16.08
-20.21
-23.57
-26.20
-28.14
-29.32
-29.61
-28.90
-27.17
-24.63
-21.73
-19.01
-16.89
-15.49
-14.48
-13.24
-11.05
-7.45
-2.45
3.47
9.43
14.76
19.28
23.47
28.26
34.64
43.07
53.24
64.16
74.35
82.80
89.19
94.16
98.73
103.98
110.67
119.34
130.50
143.81
157.85
169.57
174.66
169.01
150.89
122.34
88.93
57.74
33.94
19.47
12.84
10.83
10.53
10.60
10.96
11.16
13.04
15.26
15.45
11.86
4.77
-3.49
-9.68
-11.44
-8.59
-3.06
1.67
3.10
0.76
-3.83
-8.33
-11.09
-11.94
-11.90
-12.02
-13.00
-14.43
-15.40
-15.39
-14.66
-13.98
-13.97
-14.64
-15.37
-15.67
-15.20
-14.02
-12.35
-10.55
-8.85
-7.50
-6.81
-7.15
-8.94
-12.13
-16.02
-19.24
-20.24
-17.79
-11.65
-2.75
6.93
15.01
19.63
20.12
17.20
12.56
8.07
4.88
3.14
2.12
0.80
-1.47
-4.77
-8.61
-12.45
-16.04
-19.68
-24.04
-29.48
-35.85
-42.36
-48.14
-52.71
-56.31
-59.54
-62.84
-65.87
-67.57
-66.86
-63.41
-58.18
-53.05
-49.92
-49.73
-52.16
-55.90
-59.54
-62.37
-64.49
-66.49
-68.96
-72.10
-75.83
-80.05
-84.71
-89.77
-95.08
-100.18
-104.44
-107.33
-108.56
-108.20
-106.67
-104.51
-102.23
-100.20
-98.49
-96.99
-95.44
-93.64
-91.43
-88.81
-85.82
-82.42
-78.49
-73.74
-68.00
-61.52
-55.00
-49.47
-45.75
-43.90
-43.21
-42.39
-40.17
-35.96
-30.08
-23.43
-16.95
-11.01
-5.28
0.76
7.27
13.77
19.38
23.28
25.35
26.08
26.22
26.33
26.40
26.09
25.23
23.97
22.78
22.09
21.96
22.03
21.88
21.36
20.62
19.98
19.47
18.86
17.86
16.41
14.74
13.32
12.36
11.70
10.86
9.42
7.47
5.66
4.67
4.64
5.04
4.93
3.64
1.22
-1.60
-3.88
-5.01
-4.95
-3.92
-2.10
0.54
4.12
8.46
12.96
16.70
18.95
19.61
19.27
18.89
19.12
19.88
20.62
20.65
19.69
18.04
16.43
15.51
15.47
15.94
16.21
15.66
14.19
12.20
10.31
9.04
8.49
8.33
8.15
7.62
6.70
5.57
4.47
3.47
2.52
1.56
0.51
-0.59
-1.78
-3.20
-5.13
-7.63
-10.46
-13.05
-14.81
-15.54
-15.47
-15.00
-14.37
-13.36
-11.59
-8.84
-5.38
-1.90
0.93
2.88
4.40
6.23
8.98
12.58
16.41
19.68
21.86
22.97
23.45
23.85
24.48
25.32
26.00
26.08
25.24
23.37
20.75
17.84
15.09
12.72
10.65
8.58
6.28
3.76
1.29
-0.75
-2.11
-2.84
-3.23
-3.63
-4.25
-5.13
-6.10
-7.09
-7.95
-8.78
-9.67
-10.71
-11.96
-13.24
-14.28
-14.72
-14.32
-13.04
-11.09
-8.79
-6.33
-3.80
-1.10
1.88
5.05
8.16
10.77
12.47
13.03
12.54
11.34
9.97
8.91
8.50
8.71
9.15
9.26
8.55
7.00
4.95
3.16
2.23
2.35
3.21
4.16
4.60
4.30
3.40
2.30
1.45
1.11
1.35
2.08
3.07
4.02
4.53
4.29
3.11
1.03
-1.63
-4.40
-6.79
-8.37
-8.94
-8.37
-6.71
-4.12
-0.97
2.34
5.38
7.88
9.72
10.87
11.43
11.53
11.39
11.29
11.44
11.89
12.37
12.41
11.53
9.65
7.18
4.83
3.26
2.61
2.43
1.94
0.61
-1.57
-4.01
-5.83
-6.41
-5.68
-4.20
-2.77
-2.02
-2.15
-2.95
-4.01
-4.94
-5.56
-5.75
-5.63
-5.43
-5.47
-6.04
-7.29
-9.03
-10.91
-12.58
-13.85
-14.74
-15.46
-16.03
-16.26
-15.74
-14.04
-11.03
-7.09
-2.81
1.25
4.68
7.39
9.40
10.82
11.77
12.45
13.08
13.75
14.35
14.48
13.69
11.80
9.31
7.40
7.30
9.69
13.92
18.06
19.68
17.01
9.80
-0.31
-10.23
-16.58
-16.54
-9.02
4.99
22.48
38.91
49.05
47.97
32.45
1.54
-42.95
-97.15
-156.27
-216.06
-273.83
-328.46
-379.07
-423.38
-456.71
-472.58
-465.18
-432.23
-376.65
-306.41
-231.57
-160.60
-97.90
-43.55
5.13
50.61
93.54
132.95
167.47
197.38
225.34
254.90
287.80
321.73
350.24
365.12
360.19
333.74
288.79
231.77
169.99
110.37
59.10
21.22
-0.35
-6.46
-3.09
-0.22
-7.95
-31.47
-67.73
-106.69
-135.95
-146.20
-134.10
-103.14
-61.00
-16.28
24.36
57.66
83.09
101.95
116.02
127.50
136.74
141.81
139.99
130.25
114.34
95.57
76.44
57.20
37.45
15.43
-10.17
-37.99
-62.31
-75.17
-70.66
-48.11
-11.86
33.67
84.33
136.27
186.03
230.58
266.31
288.14
291.06
259.59
192.74
108.94
35.01
-12.53
-33.41
-36.73
-32.50
-27.00
-22.05
-14.62
-2.47
13.08
28.03
39.06
45.32
47.73
48.33
48.13
48.96
50.94
51.62
47.26
35.35
15.83
-8.15
-32.96
-55.63
-73.15
-84.18
-89.58
-91.58
-92.12
-91.97
-91.00
-88.97
-85.79
-81.06
-74.88
-68.08
-61.85
-56.95
-53.34
-50.55
-48.13
-45.79
-43.22
-40.35
-37.43
-34.86
-32.90
-31.39
-30.22
-29.33
-28.69
-28.27
-28.08
-28.14
-28.51
-29.19
-30.06
-31.18
-32.60
-34.27
-36.05
-37.70
-38.90
-39.34
-39.75
-38.94
-36.48
-32.26
-26.26
-18.66
-9.75
0.12
10.47
20.91
31.16
40.79
49.48
57.05
63.40
68.45
72.26
74.77
75.98
76.06
75.01
72.93
70.03
66.66
63.23
60.23
57.91
56.50
56.27
57.22
59.25
62.12
65.70
69.83
74.59
79.66
84.93
90.40
95.89
101.25
106.24
110.83
115.06
119.23
123.16
126.77
129.92
132.08
132.46
130.05
123.70
111.95
97.87
82.81
67.74
53.17
39.03
24.74
9.50
-7.28
-25.59
-44.69
-64.00
-82.78
-100.47
-117.00
-132.81
-148.66
-165.52
-184.22
-205.25
-228.66
-253.06
-275.50
-292.10
-299.36
-295.36
-280.74
-258.19
-231.61
-204.71
-179.63
-156.92
-136.19
-117.22
-100.13
-85.30
-72.88
-62.24
-52.30
-41.78
-29.90
-16.52
-2.19
12.19
25.39
36.08
43.13
45.84
44.54
40.60
36.03
32.66
31.40
31.84
32.67
32.60
31.00
28.22
25.07
22.38
20.27
18.35
15.98
12.84
9.29
5.92
3.29
1.52
0.11
-1.91
-5.39
-10.84
-18.11
-26.35
-34.56
-41.73
-47.45
-51.85
-55.57
-59.25
-63.29
-67.71
-72.13
-76.24
-79.98
-83.78
-88.55
-95.36
-104.92
-117.37
-132.27
-148.74
-166.03
-183.59
-201.01
-218.04
-234.40
-250.05
-265.30
-280.79
-296.80
-312.73
-326.62
-335.47
-336.50
-328.26
-311.54
-288.99
-263.99
-239.23
-215.94
-193.98
-172.57
-151.34
-130.49
-110.74
-92.69
-76.45
-61.63
-47.74
-34.50
-22.02
-10.92
-1.72
5.26
10.15
13.51
16.11
18.62
21.37
24.36
27.19
29.45
30.89
31.55
31.75
31.88
32.36
33.26
34.56
35.95
37.19
38.07
38.66
39.21
39.94
41.14
42.95
45.38
48.35
51.77
55.59
59.78
64.36
69.22
74.25
79.17
83.75
87.84
91.48
94.92
98.54
102.79
107.92
114.01
120.87
128.10
135.38
142.45
149.39
156.52
164.28
173.04
182.95
193.99
205.66
217.55
229.22
240.52
251.78
264.03
278.53
296.51
318.21
342.27
365.89
385.37
397.21
399.03
390.21
372.07
347.38
319.98
293.57
271.05
253.53
240.45
230.02
219.93
208.41
194.46
178.26
160.43
142.00
123.85
106.84
92.05
80.26
71.90
66.44
62.49
57.81
50.20
37.68
19.26
-4.61
-32.08
-60.09
-85.33
-105.00
-117.84
-124.14
-125.46
-124.33
-123.42
-125.42
-132.33
-144.84
-161.43
-178.43
-191.13
-195.89
-192.29
-183.23
-173.70
-167.35
-164.19
-159.96
-148.39
-124.81
-88.73
-44.35
1.93
44.55
81.32
113.47
143.97
175.55
209.67
247.00
287.90
332.68
380.29
427.12
466.63
490.88
493.34
471.66
428.83
372.02
309.79
249.31
194.81
147.77
108.12
75.40
49.04
28.00
10.39
-6.31
-24.34
-44.62
-66.49
-88.13
-107.46
-123.43
-136.50
-148.43
-161.40
-176.92
-194.97
-214.25
-232.64
-248.34
-260.77
-270.82
-280.78
-293.90
-313.93
-344.07
-385.62
-436.45
-490.23
-537.36
-567.55
-573.46
-553.43
-512.14
-458.44
-401.79
-348.83
-301.95
-260.06
-220.63
-181.88
-143.46
-106.33
-71.39
-38.98
-8.61
20.58
49.34
78.33
107.91
138.94
172.18
208.01
245.46
281.53
311.45
329.86
332.78
319.18
291.88
256.64
220.48
189.39
166.65
152.54
144.67
139.70
134.50
127.35
117.90
106.95
95.36
83.11
69.29
52.44
32.23
9.89
-11.21
-27.05
-34.46
-32.44
-22.96
-9.50
3.78
13.66
18.50
18.57
15.03
9.26
2.03
-6.87
-17.83
-31.07
-45.73
-60.32
-72.99
-82.62
-89.48
-94.64
-99.30
-104.13
-109.41
-115.21
-121.77
-128.73
-135.09
-139.23
-139.02
-132.95
-120.36
-101.87
-78.71
-51.98
-21.65
12.29
48.85
86.30
123.10
159.00
194.40
229.10
260.88
288.76
310.17
321.52
320.01
305.77
282.52
256.07
231.68
212.34
205.29
213.98
236.73
267.41
299.04
326.98
349.65
367.51
382.06
406.22
449.26
511.66
582.99
647.50
691.65
709.21
702.70
681.97
674.38
701.52
770.09
868.73
976.92
1076.12
1155.83
1213.25
1161.57
956.92
612.97
198.95
-205.66
-549.84
-816.83
-1010.67
-1143.90
-1230.73
-1268.04
-1260.05
-1214.76
-1146.39
-1069.80
-994.55
-923.25
-854.58
-786.06
-708.69
-619.42
-522.58
-429.35
-350.98
-293.66
-257.07
-237.57
-230.95
-226.97
-218.04
-201.22
-179.20
-156.86
-138.12
-124.00
-114.22
-108.48
-103.43
-96.25
-85.85
-73.48
-58.52
-44.08
-31.58
-21.80
-15.52
-12.40
-11.47
-11.72
-12.35
-12.54
-11.81
-9.37
-5.22
-0.14
4.58
8.53
11.95
15.80
21.64
30.96
45.88
68.42
99.96
136.02
171.69
200.35
215.25
211.99
190.22
154.80
113.89
76.02
47.07
29.40
21.46
19.62
20.16
20.48
19.52
17.09
13.25
8.06
2.33
-2.81
-5.92
-5.62
-1.24
6.87
17.36
28.32
38.03
45.67
50.99
54.09
54.87
52.87
47.28
37.45
23.16
5.05
-15.33
-36.00
-54.80
-70.02
-80.68
-86.89
-89.36
-88.89
-85.81
-80.00
-71.38
-60.41
-48.24
-36.25
-25.31
-15.22
-4.81
7.27
21.79
38.61
57.02
76.25
95.84
115.24
133.39
148.35
157.75
159.64
153.31
139.62
119.94
95.91
68.62
38.62
6.56
-26.02
-56.20
-80.09
-94.28
-97.60
-91.49
-79.36
-65.30
-52.41
-42.06
-33.87
-26.78
-20.25
-15.67
-14.80
-18.25
-24.43
-30.00
-31.54
-27.40
-19.02
-10.87
-11.26
-26.80
-59.03
-103.85
-153.49
-200.01
-237.72
-264.26
-280.55
-294.46
-313.36
-340.85
-375.60
-413.06
-447.04
-470.43
-475.99
-458.10
-422.38
-377.22
-330.52
-288.32
-256.50
-240.91
-245.16
-268.20
-304.17
-354.04
-416.02
-483.98
-549.25
-605.94
-653.69
-696.14
-738.22
-723.23
-623.76
-453.19
-256.86
-75.47
76.26
203.07
314.34
414.62
502.08
561.95
584.30
571.07
535.38
493.05
454.97
425.19
403.30
387.38
368.35
340.66
304.99
267.18
233.32
206.36
186.11
171.47
161.84
152.14
138.94
122.20
104.83
89.83
78.17
68.98
61.73
55.81
48.29
37.23
22.81
7.22
-6.99
-18.33
-26.69
-30.97
-31.16
-29.03
-26.29
-23.19
-18.18
-8.61
8.16
30.52
59.00
92.60
128.59
163.72
195.91
224.83
251.70
278.56
307.62
343.99
389.83
442.34
493.76
533.82
553.09
546.05
513.44
443.75
341.51
223.56
111.50
20.80
-43.89
-85.68
-109.74
-119.92
-119.33
-108.13
-88.59
-65.22
-43.12
-25.47
-13.04
-4.56
2.34
8.74
17.00
27.50
38.85
48.92
56.62
62.05
65.44
69.89
76.31
85.93
98.36
111.50
122.21
131.05
137.94
140.66
142.63
144.07
145.55
147.28
148.85
149.83
150.17
149.79
144.90
140.66
137.29
134.95
133.59
132.85
132.32
131.67
130.29
122.19
113.05
102.38
89.66
74.35
55.85
33.72
7.68
12.09
3.02
-11.96
-31.74
-54.99
-80.25
-106.04
-130.97
-153.80
-173.71
-195.50
-212.67
-225.10
-232.80
-235.93
-234.72
-229.51
-220.60
-208.52
-198.02
-185.07
-170.38
-154.70
-138.61
-122.64
-107.10
-92.15
-77.77
-66.46
-55.07
-43.40
-31.34
-18.83
-6.02
6.83
19.29
30.85
39.72
46.92
52.09
55.12
56.09
55.19
52.78
49.24
44.95
39.80
34.59
29.52
24.77
20.46
16.63
13.27
10.31
7.59
5.01
2.39
-0.33
-3.16
-6.00
-8.75
-11.35
-13.79
-16.12
-18.38
-20.66
-22.92
-24.97
-26.54
-27.44
-27.66
-27.47
-27.45
-28.32
-30.74
-35.10
-41.29
-48.89
-57.27
-66.05
-75.24
-85.37
-97.17
-111.29
-127.80
-146.08
-165.01
-183.26
-200.12
-215.71
-231.10
-247.87
-267.36
-290.14
-315.57
-342.39
-368.96
-394.34
-418.49
-442.29
-467.22
-495.18
-528.20
-567.98
-614.95
-666.84
-718.02
-760.05
-784.00
-783.63
-757.80
-711.06
-651.69
-588.44
-527.60
-471.85
-421.06
-374.19
-330.80
-291.37
-256.53
-226.09
-198.70
-172.42
-145.75
-118.33
-91.08
-65.76
-43.92
-26.20
-12.13
-0.28
11.00
22.88
35.62
48.56
60.49
70.33
77.58
82.58
86.31
89.97
94.55
100.39
107.23
114.27
120.70
125.97
130.12
133.68
137.51
142.44
148.91
156.88
165.81
174.91
183.53
191.44
198.92
206.80
215.93
227.01
240.10
254.73
270.05
285.15
299.40
312.76
325.68
339.10
354.34
372.78
395.48
422.38
451.63
479.34
500.28
509.30
503.10
481.38
446.82
404.11
358.21
312.99
270.69
232.10
197.33
166.23
138.66
114.19
92.16
71.60
51.61
31.62
11.39
-8.76
-28.20
-46.13
-62.01
-75.77
-87.88
-99.45
-111.27
-123.52
-135.38
-145.04
-150.38
-150.05
-144.32
-135.21
-125.88
-119.26
-117.08
-119.42
-124.99
-131.87
-138.16
-142.17
-142.34
-137.16
-125.40
-106.54
-81.36
-51.75
-20.26
11.12
41.85
73.13
106.75
143.44
181.39
216.03
241.61
253.34
249.74
233.35
209.74
185.01
163.47
146.59
133.36
122.11
111.89
103.25
97.32
94.78
94.97
95.86
95.39
92.28
86.61
79.45
71.98
64.99
58.30
51.63
44.85
38.32
32.63
28.21
24.97
22.20
18.89
14.34
8.69
3.00
-1.21
-2.66
-1.01
3.09
7.95
11.97
14.17
14.68
14.44
14.67
15.72
16.58
15.43
10.34
0.86
-11.46
-23.47
-31.78
-34.38
-31.58
-26.21
-21.84
-21.18
-24.46
-29.41
-32.49
-30.77
-23.36
-11.40
2.86
17.46
31.21
43.41
53.14
58.73
58.35
50.70
36.17
17.04
-3.06
-20.45
-32.62
-38.71
-39.51
-36.67
-32.01
-26.91
-22.19
-18.14
-14.92
-12.54
-11.19
-11.19
-12.74
-15.76
-19.56
-23.12
-25.35
-25.61
-23.93
-20.83
-16.97
-12.65
-7.80
-1.92
5.28
13.59
22.10
29.37
33.88
34.48
30.66
22.80
11.84
-0.73
-13.18
-23.87
-31.44
-35.11
-34.98
-32.21
-28.85
-27.21
-28.98
-34.20
-41.14
-46.94
-49.00
-46.34
-40.27
-33.73
-29.84
-30.41
-34.94
-40.99
-45.45
-45.74
-40.66
-30.44
-16.03
1.35
20.29
39.02
55.25
66.66
71.46
69.51
62.47
53.27
44.95
39.56
37.67
38.52
40.96
44.15
47.86
52.48
58.20
64.69
71.07
76.33
79.67
81.12
81.43
81.80
83.47
87.01
91.92
96.88
100.31
101.00
98.83
94.80
90.48
87.94
89.31
96.59
111.08
132.53
158.21
182.82
199.68
202.72
188.95
159.49
119.24
75.02
33.30
-1.16
-25.83
-39.85
-43.73
-39.15
-29.25
-18.15
-10.16
-8.45
-13.90
-25.29
-39.91
-55.18
-69.31
-81.53
-91.69
-99.77
-105.96
-110.67
-114.49
-117.75
-120.12
-120.44
-117.27
-109.67
-97.81
-83.13
-67.86
-54.40
-44.58
-39.35
-38.70
-41.63
-46.54
-51.37
-54.44
-54.98
-53.49
-51.37
-50.20
-50.82
-52.82
-55.20
-56.85
-57.35
-57.13
-56.93
-57.27
-57.98
-58.36
-57.51
-54.94
-50.57
-44.64
-37.48
-29.28
-20.37
-11.27
-3.06
3.18
6.72
7.58
6.96
6.55
8.03
11.95
17.53
22.92
26.27
26.59
24.08
19.96
15.93
13.33
12.97
14.99
19.14
24.83
31.16
36.83
40.47
41.06
38.47
33.58
27.96
23.05
19.34
16.16
12.09
6.04
-2.27
-11.89
-21.28
-29.17
-35.24
-40.31
-45.48
-51.20
-56.67
-60.03
-59.55
-54.79
-47.11
-39.31
-34.03
-32.49
-33.76
-35.45
-34.89
-30.61
-22.89
-13.36
-4.13
3.15
7.81
10.10
10.55
9.92
8.81
7.70
7.14
7.56
9.16
11.46
13.27
13.20
10.53
5.78
0.98
-1.32
0.60
6.67
15.08
23.08
28.37
30.05
28.66
25.51
21.64
17.44
12.86
7.91
3.17
-0.56
-2.81
-4.08
-5.91
-10.09
-18.17
-30.55
-46.63
-65.06
-84.02
-101.39
-114.65
-121.36
-119.54
-108.58
-89.28
-64.12
-36.11
-8.11
17.75
40.09
57.83
69.89
75.16
73.07
64.30
51.17
36.85
24.39
15.70
11.02
9.42
9.43
9.99
10.81
12.26
14.67
17.89
21.01
22.80
22.38
20.00
16.75
14.23
13.50
14.57
16.48
18.03
18.18
16.54
13.40
9.32
5.01
1.26
-1.24
-1.97
-0.90
1.25
2.98
2.81
-0.26
-5.97
-12.70
-18.21
-20.59
-19.31
-15.46
-11.08
-8.15
-7.61
-8.83
-10.09
-9.73
-6.89
-2.31
2.27
4.99
4.85
1.91
-2.97
-8.94
-15.73
-23.33
-31.55
-39.31
-44.82
-46.32
-43.15
-36.25
-27.57
-19.72
-14.25
-11.36
-10.02
-8.46
-5.16
0.57
8.28
16.78
24.52
30.62
34.91
38.12
41.21
44.64
48.27
51.33
53.32
54.12
53.95
53.09
51.53
48.91
44.61
38.31
30.13
20.76
11.15
2.27
-5.15
-10.61
-13.71
-14.55
-13.54
-11.44
-9.04
-6.88
-5.12
-3.58
-2.15
-0.81
0.49
2.16
4.66
8.26
12.68
17.15
21.13
24.63
28.68
34.62
42.89
52.28
60.05
62.98
59.05
48.51
33.70
17.89
3.67
-7.72
-16.07
-21.28
-22.72
-19.46
-11.34
0.24
12.34
21.40
24.30
19.64
7.99
-8.20
-25.35
-39.50
-47.43
-47.50
-40.25
-28.39
-16.03
-7.41
-5.16
-9.41
-18.00
-27.42
-34.48
-37.67
-37.74
-36.96
-37.90
-41.96
-48.81
-56.95
-64.56
-70.54
-74.65
-76.96
-77.06
-73.61
-65.04
-50.64
-31.82
-12.01
4.30
13.62
14.94
10.04
2.64
-3.38
-5.36
-2.67
3.86
12.32
20.80
28.03
33.29
36.66
38.41
39.03
38.77
37.93
36.57
34.65
32.23
29.24
25.93
22.56
19.46
16.92
15.00
13.46
11.93
10.03
7.54
4.55
1.26
-2.01
-5.01
-7.58
-9.60
-10.96
-11.59
-11.78
-12.21
-13.86
-17.61
-23.61
-31.03
-38.08
-42.57
-42.79
-38.11
-29.34
-18.40
-7.71
0.67
5.60
7.30
7.09
6.84
8.23
11.96
17.61
23.84
29.07
32.32
33.56
33.65
33.70
34.46
35.90
37.31
37.81
36.77
34.27
30.77
27.04
23.53
20.46
17.75
15.30
13.10
10.94
8.42
4.94
0.13
-5.67
-11.28
-15.15
-15.93
-13.43
-8.70
-3.57
0.19
1.54
0.43
-2.63
-7.04
-12.37
-18.42
-24.73
-30.55
-35.02
-37.44
-37.62
-35.99
-33.10
-29.83
-26.78
-24.33
-22.44
-20.69
-18.33
-14.38
-8.24
0.12
9.94
19.90
28.63
35.18
39.17
40.88
40.86
39.46
37.03
33.77
29.94
26.03
22.66
20.18
18.64
17.39
15.43
12.03
6.92
0.76
-5.14
-9.34
-10.64
-8.44
-3.02
4.55
12.62
19.44
23.84
25.89
26.73
28.23
32.19
39.47
49.70
61.46
72.96
82.83
90.66
96.49
100.71
103.67
105.75
107.44
109.48
112.55
117.27
123.92
132.15
141.21
149.49
154.86
155.06
148.49
134.90
115.46
92.38
67.95
43.60
19.57
-4.97
-31.29
-60.30
-92.18
-125.95
-159.48
-189.72
-213.39
-227.76
-231.60
-225.60
-212.26
-195.08
-177.55
-162.23
-150.24
-141.61
-135.53
-130.86
-126.40
-120.86
-113.09
-102.38
-89.19
-75.18
-62.75
-53.68
-48.06
-43.78
-37.32
-25.77
-8.44
12.35
32.09
46.30
52.57
51.39
45.58
38.73
33.24
29.77
27.26
23.89
18.01
8.76
-3.77
-18.64
-34.12
-48.68
-60.97
-70.19
-76.10
-78.59
-77.85
-74.13
-68.34
-62.08
-57.28
-55.27
-56.11
-58.71
-61.37
-62.84
-62.58
-60.65
-57.14
-51.91
-44.82
-36.28
-27.74
-21.11
-17.86
-17.86
-19.38
-19.86
-17.59
-12.66
-6.80
-2.16
0.33
1.30
2.69
6.66
14.36
25.78
39.32
52.91
64.65
73.50
79.61
84.08
88.20
92.62
96.85
99.14
97.58
91.11
80.22
66.89
53.38
41.41
31.39
23.04
15.96
10.15
6.26
4.77
5.70
8.11
10.58
11.69
10.84
8.47
5.58
3.53
3.14
4.86
8.11
12.13
16.10
19.58
22.77
26.19
30.13
33.84
35.84
34.43
28.92
20.22
10.59
2.71
-1.57
-2.04
-0.34
1.18
0.64
-2.71
-8.15
-14.44
-20.44
-25.77
-30.52
-34.91
-38.89
-42.11
-44.56
-46.53
-48.71
-51.30
-54.34
-57.11
-58.73
-58.68
-56.68
-52.81
-46.91
-38.88
-28.97
-18.06
-7.51
1.42
8.07
12.73
16.42
20.30
25.03
30.82
37.50
44.70
51.82
58.00
62.11
63.16
60.79
55.64
49.08
42.67
37.29
32.90
28.87
24.57
19.70
14.38
9.08
4.34
0.86
-0.89
-0.65
1.41
4.48
7.44
9.25
9.40
7.90
5.25
1.91
-1.74
-5.54
-9.35
-13.04
-16.39
-19.23
-21.66
-23.83
-25.82
-27.43
-28.20
-27.67
-25.63
-22.53
-19.21
-16.61
-15.46
-15.77
-16.98
-18.04
-17.83
-15.31
-10.26
-3.20
4.52
11.18
15.23
16.04
14.10
10.56
6.66
3.29
0.70
-1.10
-2.02
-1.79
-0.13
2.99
6.80
10.15
12.07
12.30
11.41
10.51
10.41
11.16
12.14
12.45
11.60
9.79
7.72
6.08
5.20
4.89
4.37
2.89
-0.05
-4.17
-8.57
-12.05
-13.71
-13.35
-11.75
-10.08
-9.31
-9.80
-10.99
-11.84
-11.37
-9.22
-5.75
-2.12
0.22
0.06
-3.01
-8.34
-14.25
-18.77
-20.39
-18.79
-15.04
-11.03
-8.72
-9.42
-13.49
-20.40
-29.06
-38.22
-46.46
-52.49
-55.21
-54.01
-49.13
-41.64
-32.93
-24.31
-16.65
-10.33
-5.38
-1.57
1.41
3.90
6.16
8.17
9.76
10.66
10.92
10.58
9.78
8.56
6.70
4.17
1.20
-1.56
-3.31
-3.46
-2.11
0.04
2.19
3.87
5.31
7.06
9.34
11.72
13.20
12.87
10.54
7.23
4.62
4.36
7.26
12.88
19.87
26.60
31.91
35.26
36.87
37.16
36.65
35.43
33.52
30.94
27.82
24.73
22.18
20.57
19.69
18.85
17.43
15.51
13.99
13.95
16.09
19.87
23.88
26.45
26.68
25.02
22.89
22.00
23.14
26.14
29.89
33.00
34.50
33.98
31.62
27.54
21.90
14.96
7.91
2.34
0.19
2.50
8.19
14.54
17.51
14.10
3.54
-12.32
-29.67
-44.24
-53.10
-55.65
-53.25
-48.42
-43.10
-38.26
-33.85
-29.57
-25.66
-22.74
-21.78
-22.92
-25.35
-27.45
-27.65
-25.51
-21.84
-18.22
-15.66
-13.87
-11.34
-6.70
0.20
8.08
14.77
18.77
19.49
17.67
14.47
10.59
6.31
1.77
-2.80
-7.13
-11.08
-14.96
-19.02
-23.19
-26.90
-29.00
-28.61
-25.54
-20.84
-15.85
-11.86
-9.19
-7.30
-5.29
-2.49
0.77
3.30
3.87
2.12
-0.87
-2.96
-1.76
4.08
14.26
26.47
37.55
44.80
47.01
44.79
40.06
34.94
30.59
27.06
23.54
19.36
14.51
9.89
6.64
5.52
6.62
8.84
10.54
10.02
6.16
-1.14
-10.78
-20.97
-29.78
-35.90
-39.15
-40.15
-39.84
-38.83
-37.04
-34.02
-29.29
-23.18
-16.48
-10.37
-5.57
-2.03
0.94
4.13
7.53
10.40
11.55
10.38
7.05
3.05
0.24
0.07
3.02
8.43
14.87
20.70
24.64
25.90
24.33
20.09
13.76
6.23
-1.16
-7.12
-10.61
-11.30
-9.53
-6.23
-2.42
0.77
2.47
2.30
0.30
-2.91
-6.45
-9.38
-11.18
-11.72
-11.16
-9.84
-8.04
-6.15
-4.74
-4.28
-4.78
-5.60
-5.67
-4.15
-1.09
2.58
5.45
6.61
6.42
6.15
7.24
10.05
13.66
16.21
16.19
13.37
8.95
5.06
3.29
4.28
7.50
11.79
16.03
19.43
21.58
22.51
22.57
21.85
20.63
19.07
17.09
14.67
11.93
9.27
7.12
5.75
4.98
4.50
3.94
3.12
2.22
1.42
0.56
-0.93
-3.73
-8.18
-13.66
-18.89
-22.54
-23.74
-22.80
-20.73
-18.64
-16.95
-15.40
-13.14
-9.62
-5.06
-0.19
3.81
6.20
6.81
5.83
3.64
0.48
-3.32
-7.33
-10.73
-12.60
-12.10
-9.15
-4.75
-0.70
1.12
-0.22
-4.39
-9.56
-13.65
-14.91
-12.95
-8.61
-3.51
0.44
1.84
0.10
-4.13
-9.46
-13.94
-15.82
-14.30
-9.77
-3.72
2.12
6.54
9.36
11.16
12.48
13.37
13.40
12.17
9.99
7.95
7.38
9.02
12.46
16.42
19.56
20.94
20.46
18.75
16.67
14.85
13.54
12.56
11.69
10.78
9.91
9.27
8.96
8.84
8.49
7.53
5.87
3.93
2.43
2.10
3.07
4.48
4.95
3.13
-1.29
-7.32
-13.03
-16.74
-17.66
-16.37
-14.34
-12.90
-12.37
-12.09
-11.32
-9.91
-8.81
-9.18
-11.43
-14.61
-16.59
-15.37
-10.28
-2.54
5.32
10.78
12.59
11.32
8.79
7.20
7.81
10.45
13.75
15.92
15.73
13.14
9.21
5.35
2.73
1.39
0.58
-0.63
-2.61
-4.81
-6.09
-5.47
-2.96
0.51
3.21
3.58
0.94
-4.13
-10.00
-14.62
-16.51
-15.36
-12.27
-9.15
-7.71
-8.51
-10.74
-12.74
-13.09
-11.42
-8.42
-5.19
-2.40
0.05
2.87
6.50
10.67
14.53
17.13
18.00
17.50
16.45
15.75
15.90
16.67
17.38
17.17
15.46
12.12
7.54
2.53
-1.95
-5.10
-6.54
-6.42
-5.25
-3.96
-3.43
-4.32
-6.77
-10.35
-14.09
-16.77
-17.28
-15.21
-11.12
-6.28
-2.20
0.08
0.51
-0.10
-0.57
-0.13
1.22
3.00
4.81
6.51
8.34
10.33
12.28
13.49
13.56
12.71
11.97
12.36
14.17
16.38
17.18
14.84
8.88
0.37
-8.32
-14.79
-17.52
-16.40
-12.17
-6.20
-0.09
4.47
5.89
3.29
-2.99
-11.19
-18.72
-23.16
-23.30
-19.89
-14.87
-10.53
-8.17
-7.59
-7.40
-6.13
-3.30
0.36
3.39
4.69
4.05
2.21
0.24
-1.07
-1.32
-0.94
-0.18
0.87
2.45
4.96
8.45
12.60
16.47
18.96
19.27
17.43
14.43
11.90
11.25
12.90
16.26
19.51
21.30
21.15
19.91
19.33
20.94
25.23
31.15
36.96
41.02
42.89
42.88
41.82
40.28
38.10
34.72
29.31
21.49
11.26
-0.81
-13.64
-26.06
-36.46
-43.45
-46.19
-44.58
-39.44
-32.32
-25.30
-20.41
-19.25
-22.17
-28.53
-36.46
-43.46
-47.36
-47.09
-43.11
-36.94
-30.56
-25.21
-20.98
-16.98
-12.33
-6.83
-1.15
3.54
6.29
6.80
5.52
3.35
1.24
0.06
0.03
0.95
2.26
3.24
3.56
3.27
3.04
3.59
5.38
8.35
11.84
15.06
17.08
17.34
15.48
11.85
7.13
2.69
-0.15
-0.44
2.18
7.13
13.19
18.70
22.01
21.88
17.84
10.37
0.65
-9.56
-18.73
-25.86
-30.85
-34.20
-36.65
-38.60
-39.69
-39.64
-38.00
-35.01
-31.37
-27.69
-23.99
-19.74
-14.27
-7.49
-0.34
5.84
9.81
11.48
12.07
13.42
16.86
22.08
27.40
30.55
29.96
25.78
19.58
13.26
7.73
2.44
-4.09
-12.92
-23.56
-34.09
-41.97
-45.42
-44.30
-40.35
-35.97
-32.97
-31.67
-30.76
-28.27
-22.49
-13.06
-1.11
11.27
21.88
29.37
33.24
33.84
31.91
28.46
24.29
20.30
17.41
16.40
17.84
21.46
26.42
31.44
35.24
37.08
36.98
35.54
33.27
30.27
26.14
20.38
12.93
4.54
-3.43
-9.42
-12.25
-11.99
-9.38
-5.74
-2.11
1.05
3.90
6.66
9.10
10.43
9.59
6.34
1.41
-3.45
-6.70
-7.78
-7.36
-6.91
-7.53
-9.35
-11.49
-12.84
-12.57
-10.74
-7.99
-4.88
-1.70
1.56
4.87
7.86
9.94
10.67
10.19
8.69
6.30
2.64
-2.92
-10.93
-21.24
-33.23
-45.69
-57.27
-66.75
-72.91
-75.00
-72.68
-66.28
-56.80
-45.55
-33.88
-22.58
-11.89
-1.71
8.02
17.11
24.98
30.57
32.97
31.74
27.50
21.82
16.93
14.78
16.14
20.30
25.11
28.00
27.04
21.73
13.24
3.78
-4.42
-10.09
-13.17
-14.53
-15.11
-15.26
-14.68
-12.73
-9.24
-4.66
-0.53
1.78
1.60
-0.47
-2.63
-3.16
-1.12
2.76
6.23
6.86
3.59
-2.73
-9.69
-14.57
-15.94
-14.12
-10.89
-8.25
-7.11
-6.76
-5.46
-1.80
4.46
12.01
18.82
23.57
26.12
27.49
28.69
29.79
29.85
27.82
23.32
17.12
10.80
5.79
3.04
2.26
3.09
5.35
9.17
14.60
21.04
27.05
30.64
30.39
26.05
18.74
10.54
3.40
-1.38
-3.46
-3.25
-1.89
-0.67
-0.50
-1.76
-3.71
-5.35
-5.68
-4.57
-2.88
-1.99
-2.84
-5.17
-7.93
-9.86
-10.49
-10.10
-9.72
-10.06
-11.07
-12.13
-12.43
-12.03
-11.53
-11.92
-13.69
-16.28
-18.35
-18.37
-16.04
-12.36
-9.46
-9.24
-12.47
-18.12
-23.74
-26.80
-25.33
-19.31
-10.16
-0.51
7.00
10.79
11.02
9.52
8.61
10.21
14.71
21.36
29.02
37.19
46.41
57.72
71.67
86.83
100.34
108.68
109.44
102.64
90.45
76.13
62.17
49.55
37.76
26.24
14.78
4.17
-4.31
-9.64
-11.36
-10.35
-8.13
-6.55
-7.24
-11.20
-18.54
-28.40
-39.31
-49.49
-57.35
-61.90
-62.84
-60.61
-56.20
-50.73
-45.01
-39.76
-35.13
-30.90
-26.73
-22.32
-17.67
-13.44
-10.76
-10.93
-14.63
-21.24
-29.14
-36.02
-39.94
-40.11
-36.61
-30.39
-22.64
-14.56
-7.42
-2.56
-0.94
-2.53
-5.97
-8.93
-9.09
-5.59
0.63
7.60
13.75
19.40
26.48
36.91
50.73
65.86
78.99
87.90
92.69
95.61
99.29
104.55
109.83
112.14
108.88
99.40
85.13
68.70
52.75
39.09
28.29
19.92
12.67
5.00
-4.80
-17.82
-34.17
-53.10
-72.92
-91.70
-107.47
-119.00
-126.01
-128.85
-127.96
-123.14
-113.92
-100.05
-82.39
-62.91
-44.24
-28.31
-15.27
-3.28
10.37
27.20
46.49
64.97
77.92
81.05
72.30
52.40
24.93
-4.62
-30.04
-45.58
-47.95
-37.48
-18.43
2.26
17.57
22.84
17.54
5.01
-9.04
-18.87
-20.59
-13.09
2.00
21.44
41.50
59.17
72.59
81.22
85.44
86.28
84.97
82.09
77.59
70.96
61.75
50.20
37.44
24.84
13.51
3.91
-4.29
-11.34
-17.04
-20.62
-21.15
-18.31
-12.90
-6.48
-0.67
3.58
6.43
8.74
11.25
14.14
16.85
18.48
18.26
15.87
11.40
5.10
-2.56
-10.71
-18.01
-22.90
-24.08
-21.10
-14.46
-5.37
4.75
14.91
24.39
32.55
38.48
41.26
40.30
35.82
28.70
20.20
10.78
-0.53
-15.81
-37.09
-64.40
-94.65
-121.96
-139.97
-144.87
-137.85
-125.11
-115.38
-115.81
-128.63
-150.08
-172.52
-188.15
-192.53
-186.21
-173.49
-159.64
-147.91
-138.17
-127.35
-111.38
-87.23
-54.24
-14.43
28.23
68.45
100.20
117.45
115.30
91.92
50.11
-2.20
-53.47
-91.42
-106.78
-95.98
-62.12
-13.67
38.20
82.33
110.02
116.38
101.33
69.32
28.44
-11.82
-42.85
-59.13
-59.59
-47.27
-28.05
-8.89
3.62
4.69
-7.21
-30.13
-58.33
-84.12
-100.31
-102.95
-92.69
-74.39
-54.91
-39.86
-31.80
-29.64
-30.08
-29.48
-25.79
-19.01
-10.39
-1.63
6.53
14.14
21.54
28.53
34.37
37.63
36.89
31.45
21.78
9.86
-1.17
-7.66
-6.78
2.62
19.41
40.23
60.91
77.51
87.18
88.07
79.01
59.37
29.76
-6.95
-44.96
-76.54
-94.38
-94.27
-76.31
-44.24
-3.29
41.26
84.53
121.63
147.59
158.27
152.37
133.02
107.33
83.81
69.19
66.13
73.03
85.74
99.55
110.87
117.65
119.10
115.39
107.78
98.62
91.04
87.65
89.24
94.10
98.72
99.59
94.91
85.32
72.73
58.80
43.73
26.59
6.61
-15.44
-36.92
-54.34
-64.73
-67.13
-62.00
-50.36
-32.99
-10.60
15.31
41.22
61.94
72.16
68.70
52.34
27.51
0.57
-22.68
-38.77
-46.78
-47.35
-41.22
-28.33
-8.54
17.31
46.26
73.41
93.15
101.17
96.01
79.53
56.07
30.81
8.37
-8.04
-16.72
-17.73
-12.31
-2.55
9.13
20.42
29.59
35.25
36.18
31.50
20.79
4.86
-13.97
-32.44
-47.16
-55.81
-57.72
-54.00
-46.57
-37.55
-28.77
-21.75
-17.67
-17.37
-21.24
-28.93
-39.20
-49.92
-58.52
-63.01
-62.73
-58.98
-54.57
-53.06
-57.03
-66.97
-81.05
-95.85
-108.11
-116.03
-120.08
-122.41
-125.23
-129.25
-132.89
-132.84
-125.52
-108.76
-82.57
-49.49
-13.53
21.07
50.98
74.37
90.70
100.38
104.24
103.38
98.94
92.33
85.00
78.33
73.32
70.45
69.80
70.82
72.55
73.86
73.55
70.78
65.23
57.17
47.51
37.46
28.22
20.40
14.02
8.54
3.56
-1.03
-4.78
-7.02
-7.39
-6.11
-4.01
-1.84
0.02
1.93
4.68
8.72
13.98
19.54
24.20
27.05
27.84
26.97
25.29
23.64
22.22
20.57
17.71
12.59
4.75
-5.48
-17.05
-28.39
-38.05
-45.44
-50.92
-55.65
-60.69
-66.32
-71.72
-75.56
-76.54
-74.17
-69.03
-61.99
-53.72
-44.24
-33.12
-20.44
-7.30
3.85
10.05
9.13
0.91
-12.51
-27.30
-39.58
-46.68
-48.02
-44.97
-39.70
-33.97
-28.45
-23.06
-17.62
-12.43
-8.10
-5.11
-3.16
-1.15
2.11
7.14
12.87
17.06
17.35
12.48
3.11
-8.36
-19.02
-26.76
-31.13
-33.28
-35.09
-37.84
-41.79
-45.95
-48.81
-49.16
-46.74
-42.26
-36.84
-31.39
-25.93
-19.82
-12.56
-4.38
3.60
9.82
13.47
14.97
15.97
18.63
24.53
33.65
44.34
54.04
60.48
62.74
61.66
59.14
57.14
56.86
58.19
60.07
61.19
60.48
57.39
51.84
44.31
35.29
25.95
17.82
12.57
11.38
14.26
19.82
25.59
28.88
27.99
22.99
15.38
7.34
0.44
-4.88
-9.09
-13.21
-18.18
-24.46
-31.85
-39.48
-45.88
-49.45
-48.83
-43.56
-34.44
-23.75
-13.93
-6.20
0.25
7.76
18.85
34.25
52.36
69.90
82.89
89.81
92.36
94.45
99.11
106.79
115.35
121.99
125.13
123.52
118.10
111.63
107.40
106.68
108.20
108.73
104.56
92.62
68.69
31.46
-15.71
-65.85
-112.13
-150.82
-181.97
-208.19
-233.24
-263.82
-304.96
-356.97
-415.35
-473.34
-524.24
-562.57
-585.51
-567.60
-498.29
-391.73
-278.60
-184.49
-118.44
-76.86
-52.17
-37.83
-32.87
-34.08
-37.68
-37.81
-27.80
-3.25
36.48
89.06
151.00
216.39
279.64
335.86
383.32
423.40
458.41
489.42
515.02
531.53
516.00
455.45
352.23
224.68
96.58
-14.52
-101.19
-164.25
-207.75
-238.81
-258.69
-267.30
-264.98
-253.48
-236.22
-216.34
-197.25
-181.65
-171.22
-164.00
-158.16
-153.03
-149.47
-149.34
-153.59
-162.65
-176.35
-194.19
-213.49
-231.94
-248.18
-262.08
-274.22
-283.01
-287.15
-286.26
-281.12
-272.10
-259.43
-243.26
-223.74
-201.10
-171.05
-130.50
-79.12
-19.65
44.25
109.64
174.86
239.15
302.05
370.11
447.52
533.63
622.80
707.62
782.43
844.64
894.05
931.72
968.16
1010.92
1061.10
1113.20
1158.98
1192.22
1210.30
1213.25
1145.62
980.66
727.28
427.99
133.32
-122.79
-328.01
-484.48
-600.52
-685.55
-738.78
-760.49
-755.47
-733.13
-704.34
-677.38
-655.68
-639.52
-627.78
-612.20
-587.02
-551.64
-510.32
-469.40
-433.11
-402.85
-378.08
-357.41
-334.83
-305.42
-269.88
-231.06
-192.81
-156.71
-122.84
-90.75
-60.31
-29.85
1.35
32.67
62.69
89.62
114.36
138.39
162.80
187.59
212.54
236.93
259.79
280.46
298.42
316.10
335.86
358.86
384.51
410.78
435.28
456.04
471.95
465.83
427.30
354.24
254.19
140.74
27.31
-76.97
-167.82
-244.37
-307.62
-356.65
-391.04
-411.58
-420.68
-421.62
-418.22
-413.22
-408.21
-403.99
-398.88
-391.14
-380.02
-366.13
-350.97
-336.13
-322.45
-309.90
-297.58
-284.88
-270.71
-254.56
-236.82
-218.49
-200.68
-184.07
-168.79
-154.62
-140.54
-125.44
-108.76
-90.68
-71.85
-53.07
-34.94
-17.70
-1.37
14.30
29.59
44.33
57.97
69.75
79.16
86.20
91.55
96.35
101.85
109.20
118.96
131.10
145.20
160.77
177.54
195.58
215.19
236.78
260.88
287.88
317.76
349.56
380.88
407.99
426.57
433.04
425.94
406.54
378.36
345.79
312.55
280.69
250.77
222.48
195.68
170.69
148.10
128.30
111.10
95.77
81.47
67.67
54.21
41.37
29.62
19.30
10.64
3.65
-1.82
-6.06
-9.44
-12.36
-15.12
-17.87
-20.74
-23.81
-27.25
-31.23
-35.81
-40.79
-45.74
-50.05
-53.18
-54.83
-55.06
-54.23
-52.83
-51.29
-49.78
-48.21
-46.27
-43.64
-40.20
-36.13
-31.91
-28.17
-25.45
-24.09
-24.11
-25.22
-27.00
-28.99
-30.79
-32.09
-32.65
-32.30
-31.00
-28.89
-26.27
-23.68
-21.65
-20.57
-20.54
-21.28
-22.19
-22.60
-21.95
-20.00
-16.89
-13.09
-9.17
-5.66
-2.91
-1.06
-0.13
-0.03
-0.66
-1.86
-3.46
-5.29
-7.20
-9.11
-10.93
-12.56
-13.87
-14.68
-14.88
-14.53
-13.88
-13.26
-12.87
-12.69
-12.63
-12.58
-12.69
-13.29
-14.66
-16.94
-19.92
-23.30
-26.77
-29.94
-32.29
-33.05
-31.43
-26.99
-20.16
-12.24
-4.98
0.19
2.71
3.00
1.90
0.11
-2.17
-5.09
-8.69
-12.52
-15.73
-17.38
-17.04
-15.03
-12.15
-9.24
-6.88
-5.14
-3.86
-2.85
-2.05
-1.58
-1.46
-1.58
-1.57
-1.07
0.22
2.18
4.29
5.88
6.39
5.66
3.99
1.88
-0.18
-1.96
-3.50
-4.98
-6.48
-7.91
-9.08
-9.84
-10.37
-11.02
-12.12
-13.76
-15.55
-16.78
-16.67
-14.74
-10.86
-5.38
1.25
8.64
16.53
24.82
33.41
42.03
50.25
57.44
62.78
65.46
64.83
60.64
53.16
43.10
31.47
19.34
7.65
-2.85
-11.57
-18.06
-21.97
-23.27
-22.29
-19.84
-16.96
-14.67
-13.69
-14.17
-15.86
-18.18
-20.38
-21.78
-21.89
-20.64
-18.48
-16.33
-15.29
-16.20
-19.29
-23.90
-28.70
-32.10
-32.83
-30.33
-24.82
-17.19
-8.64
-0.41
6.38
10.86
12.55
11.35
7.72
2.52
-3.16
-8.21
-11.80
-13.51
-13.42
-12.00
-10.04
-8.33
-7.50
-7.80
-9.02
-10.66
-12.03
-12.59
-12.09
-10.55
-8.26
-5.65
-3.18
-1.28
-0.33
-0.54
-1.79
-3.63
-5.40
-6.38
-6.17
-4.88
-3.06
-1.59
-1.25
-2.51
-5.41
-9.63
-14.69
-20.01
-24.84
-28.29
-29.42
-27.60
-22.91
-16.22
-8.90
-2.18
3.35
7.90
12.05
16.09
19.65
21.76
21.39
18.18
12.73
6.41
0.80
-2.98
-4.56
-4.29
-2.82
-0.88
1.08
2.84
4.32
5.45
6.09
6.12
5.54
4.53
3.45
2.75
2.63
3.07
3.72
4.16
4.10
3.52
2.66
1.92
1.70
2.23
3.59
5.65
8.12
10.58
12.59
13.69
13.58
12.16
9.54
6.00
2.05
-1.74
-4.73
-6.39
-6.45
-5.06
-2.77
-0.34
1.50
2.29
1.95
0.76
-0.89
-2.58
-3.96
-4.73
-4.68
-3.71
-2.00
0.00
1.65
2.40
2.04
0.81
-0.73
-2.02
-2.70
-2.67
-2.06
-1.02
0.28
1.67
2.91
3.70
3.72
2.85
1.17
-1.06
-3.54
-6.02
-8.29
-10.13
-11.36
-11.86
-11.73
-11.22
-10.71
-10.40
-10.29
-10.03
-9.19
-7.42
-4.55
-0.70
3.85
8.61
13.04
16.49
18.40
18.49
16.85
13.94
10.41
6.84
3.60
0.79
-1.59
-3.57
-5.17
-6.37
-7.25
-8.03
-8.97
-10.27
-11.86
-13.36
-14.15
-13.60
-11.45
-7.87
-3.53
0.63
3.80
5.52
5.85
5.29
4.45
3.79
3.48
3.37
3.23
2.80
2.02
1.03
0.13
-0.26
0.17
1.49
3.50
5.71
7.47
8.17
7.48
5.55
2.99
0.80
0.03
1.33
4.59
8.86
12.48
13.80
11.82
6.75
-0.01
-6.36
-10.40
-11.10
-8.69
-4.40
0.17
3.60
5.27
5.29
4.41
3.49
3.20
3.79
5.02
6.31
6.97
6.52
4.81
2.05
-1.29
-4.63
-7.58
-9.89
-11.40
-12.05
-11.88
-11.04
-9.99
-9.25
-9.30
-10.25
-11.79
-13.23
-13.84
-13.30
-11.81
-10.00
-8.44
-7.22
-5.92
-3.94
-0.92
2.93
6.91
10.27
12.48
13.48
13.53
12.88
11.59
9.56
6.72
3.29
-0.11
-2.80
-4.22
-4.29
-3.39
-2.22
-1.46
-1.50
-2.34
-3.53
-4.53
-4.96
-4.74
-4.07
-3.24
-2.45
-1.75
-1.09
-0.37
0.38
1.13
1.80
2.41
3.02
3.63
4.11
4.10
3.22
1.18
-1.94
-5.64
-9.09
-11.33
-11.71
-10.08
-6.96
-3.46
-0.94
-0.56
-2.83
-7.41
-13.09
-18.28
-21.56
-22.26
-20.65
-17.75
-14.78
-12.63
-11.52
-11.13
-10.92
-10.44
-9.56
-8.36
-6.84
-4.97
-2.66
0.07
2.95
5.52
7.37
8.33
8.57
8.56
8.85
9.85
11.67
14.06
16.47
18.26
18.97
18.42
16.81
14.55
12.15
10.02
8.38
7.22
6.33
5.37
3.98
2.02
-0.39
-2.87
-4.76
-5.52
-4.80
-2.59
0.64
4.19
7.32
9.44
10.29
9.92
8.56
6.57
4.31
2.03
-0.12
-2.06
-3.75
-5.20
-6.35
-7.14
-7.44
-7.11
-6.12
-4.60
-2.87
-1.31
-0.22
0.30
0.33
0.05
-0.44
-1.17
-2.10
-3.12
-3.94
-4.21
-3.73
-2.60
-1.20
-0.02
0.52
0.24
-0.85
-2.51
-4.39
-6.11
-7.28
-7.65
-7.20
-6.19
-5.04
-4.21
-3.97
-4.23
-4.61
-4.65
-3.97
-2.51
-0.50
1.64
3.53
5.03
6.18
7.17
8.10
8.95
9.54
9.71
9.38
8.59
7.50
6.20
4.78
3.33
2.03
1.09
0.66
0.63
0.61
0.18
-0.98
-2.79
-4.81
-6.46
-7.29
-7.21
-6.44
-5.35
-4.26
-3.36
-2.70
-2.31
-2.26
-2.53
-3.02
-3.55
-3.86
-3.81
-3.42
-2.86
-2.39
-2.22
-2.36
-2.71
-2.98
-2.90
-2.28
-1.07
0.62
2.56
4.46
6.11
7.35
8.11
8.32
7.93
6.91
5.32
3.39
1.43
-0.30
-1.59
-2.46
-2.97
-3.20
-3.19
-2.89
-2.40
-1.93
-1.74
-2.03
-2.76
-3.64
-4.34
-4.59
-4.40
-3.98
-3.59
-3.37
-3.29
-3.12
-2.60
-1.61
-0.23
1.29
2.64
3.65
4.26
4.51
4.51
4.31
3.85
3.04
1.81
0.24
-1.48
-3.02
-4.02
-4.15
-3.26
-1.39
1.17
3.98
6.49
8.23
8.96
8.65
7.48
5.72
3.68
1.66
-0.11
-1.46
-2.36
-2.85
-3.08
-3.17
-3.26
-3.43
-3.71
-4.12
-4.62
-5.07
-5.34
-5.36
-5.18
-5.02
-5.10
-5.53
-6.18
-6.77
-6.98
-6.64
-5.77
-4.56
-3.27
-2.14
-1.33
-0.90
-0.82
-0.95
-1.04
-0.87
-0.30
0.61
1.67
2.60
3.18
3.29
2.95
2.23
1.24
0.14
-0.82
-1.34
-1.14
-0.16
1.45
3.25
4.77
5.73
6.07
5.95
5.58
5.12
4.57
3.84
2.86
1.61
0.23
-1.04
-1.99
-2.45
-2.35
-1.82
-1.03
-0.22
0.41
0.81
1.00
1.09
1.11
1.06
0.81
0.28
-0.54
-1.47
-2.24
-2.59
-2.46
-2.07
-1.79
-2.00
-2.82
-4.02
-5.15
-5.78
-5.69
-5.06
-4.27
-3.66
-3.45
-3.53
-3.75
-3.99
-4.25
-4.54
-4.77
-4.66
-3.89
-2.26
0.15
2.97
5.63
7.67
8.90
9.34
9.15
8.46
7.35
5.94
4.39
2.90
1.70
0.82
0.16
-0.48
-1.25
-2.11
-2.81
-3.06
-2.70
-1.82
-0.75
0.13
0.59
0.60
0.27
-0.30
-1.08
-2.08
-3.25
-4.38
-5.16
-5.25
-4.57
-3.37
-2.16
-1.45
-1.54
-2.26
-3.14
-3.68
-3.51
-2.57
-1.11
0.55
1.98
2.88
3.07
2.50
1.30
-0.27
-1.79
-2.85
-3.07
-2.32
-0.77
1.19
3.15
4.74
5.81
6.37
6.41
5.93
4.93
3.43
1.61
-0.22
-1.76
-2.85
-3.52
-3.88
-3.99
-3.73
-2.93
-1.46
0.50
2.58
4.27
5.21
5.31
4.76
3.84
2.82
1.81
0.77
-0.40
-1.75
-3.25
-4.76
-6.04
-6.87
-7.10
-6.72
-5.88
-4.80
-3.66
-2.56
-1.50
-0.53
0.28
0.78
0.81
0.36
-0.44
-1.28
-1.87
-2.05
-1.86
-1.49
-1.17
-0.96
-0.73
-0.23
0.72
2.17
3.91
5.59
6.90
7.64
7.77
7.39
6.59
5.41
3.84
1.88
-0.28
-2.36
-3.93
-4.63
-4.29
-3.01
-1.18
0.64
1.93
2.42
2.17
1.53
0.96
0.78
1.01
1.40
1.48
0.88
-0.42
-2.10
-3.58
-4.39
-4.43
-4.04
-3.76
-4.00
-4.82
-5.82
-6.52
-6.60
-6.10
-5.35
-4.69
-4.30
-4.06
-3.83
-3.45
-2.94
-2.36
-1.72
-1.00
-0.09
1.06
2.45
3.97
5.48
6.79
7.77
8.27
8.18
7.49
6.17
4.40
2.40
0.54
-0.81
-1.35
-1.02
-0.08
1.00
1.72
1.86
1.55
1.16
1.07
1.41
2.11
2.90
3.62
4.20
4.66
5.00
5.12
4.88
4.20
3.21
2.11
1.23
0.89
1.24
2.30
3.92
5.80
7.55
8.89
9.59
9.64
9.13
8.25
7.18
6.09
5.14
4.32
3.56
2.56
1.02
-1.19
-3.84
-6.38
-8.18
-8.76
-8.15
-6.81
-5.46
-4.79
-5.14
-6.48
-8.50
-10.85
-13.24
-15.45
-17.32
-18.74
-19.72
-20.33
-20.72
-20.97
-20.99
-20.55
-19.37
-17.29
-14.38
-10.97
-7.45
-4.24
-1.57
0.39
1.47
1.60
0.85
-0.38
-1.45
-1.64
-0.48
2.05
5.44
8.87
11.52
12.84
12.76
11.58
9.80
7.90
6.22
4.89
3.85
2.93
1.94
0.79
-0.47
-1.70
-2.71
-3.44
-3.87
-4.11
-4.22
-4.26
-4.20
-4.00
-3.70
-3.39
-3.18
-3.13
-3.22
-3.30
-3.11
-2.37
-0.85
1.55
4.75
8.45
12.28
15.78
18.56
20.35
21.09
20.88
19.96
18.55
16.80
14.69
12.20
9.31
6.20
3.17
0.61
-1.20
-2.19
-2.59
-2.72
-2.95
-3.53
-4.48
-5.65
-6.80
-7.65
-8.00
-7.80
-7.07
-5.97
-4.71
-3.56
-2.82
-2.72
-3.36
-4.50
-5.66
-6.23
-5.73
-4.04
-1.45
1.44
4.01
5.83
6.77
6.98
6.68
6.20
5.76
5.55
5.47
5.38
5.00
4.15
2.84
1.31
-0.14
-1.29
-2.15
-2.92
-3.77
-4.68
-5.46
-5.89
-5.91
-5.71
-5.61
-5.79
-6.21
-6.52
-6.37
-5.59
-4.36
-3.16
-2.55
-2.90
-4.17
-5.85
-7.24
-7.71
-6.98
-5.26
-3.13
-1.20
0.19
1.12
2.11
3.74
6.34
9.82
13.82
17.95
21.92
25.51
28.40
30.00
29.62
26.84
21.85
15.56
9.24
3.93
0.02
-2.79
-5.21
-7.73
-10.37
-12.78
-14.55
-15.50
-15.83
-15.87
-15.79
-15.48
-14.63
-12.91
-10.23
-6.87
-3.40
-0.41
1.68
2.78
3.08
2.84
2.31
1.52
0.40
-1.12
-3.00
-4.97
-6.60
-7.47
-7.40
-6.46
-5.11
-3.92
-3.43
-3.96
-5.37
-7.24
-8.91
-9.80
-9.55
-8.26
-6.35
-4.46
-3.16
-2.72
-3.01
-3.56
-3.74
-3.02
-1.16
1.71
5.09
8.40
11.14
13.07
14.25
14.92
15.36
15.70
15.89
15.67
14.84
13.28
11.05
8.34
5.39
2.29
-1.00
-4.50
-8.12
-11.52
-14.26
-15.91
-16.24
-15.46
-14.04
-12.57
-11.52
-11.04
-10.97
-11.01
-10.94
-10.66
-10.23
-9.67
-8.91
-7.84
-6.40
-4.75
-3.28
-2.42
-2.33
-2.79
-3.19
-2.87
-1.51
0.70
3.07
4.85
5.56
5.35
4.87
5.01
6.43
9.20
12.84
16.48
19.24
20.51
20.11
18.21
15.21
11.66
8.08
4.96
2.62
1.10
0.25
-0.42
-1.56
-3.81
-7.52
-12.48
-17.68
-21.57
-22.61
-20.03
-14.33
-7.10
-0.45
3.98
5.53
4.50
1.71
-2.10
-6.53
-11.36
-16.22
-20.33
-22.55
-21.82
-17.49
-9.69
0.69
12.18
22.95
31.22
35.69
35.85
32.26
26.22
19.37
13.13
8.33
5.12
3.23
2.23
1.78
1.84
2.38
3.33
4.32
4.72
3.73
0.72
-4.33
-10.72
-16.98
-21.43
-22.88
-21.16
-17.27
-12.87
-9.52
-7.96
-7.91
-8.43
-8.53
-7.81
-6.42
-4.84
-3.36
-1.94
-0.21
2.13
5.12
8.43
11.51
13.88
15.11
15.09
13.87
11.76
9.17
6.69
4.82
3.84
3.69
3.96
4.04
3.41
1.81
-0.64
-3.46
-6.06
-7.92
-8.73
-8.45
-7.22
-5.24
-2.77
-0.12
2.40
4.42
5.63
5.81
4.87
2.97
0.41
-2.33
-4.75
-6.47
-7.40
-7.64
-7.48
-7.20
-6.87
-6.41
-5.59
-4.30
-2.57
-0.70
0.97
2.12
2.50
1.96
0.46
-1.86
-4.59
-7.13
-8.88
-9.46
-8.90
-7.68
-6.45
-5.77
-5.82
-6.41
-7.02
-7.10
-6.28
-4.43
-1.72
1.56
5.07
8.58
12.05
15.69
19.76
24.59
30.30
36.72
43.27
48.91
52.27
52.06
47.59
39.14
28.05
16.34
5.99
-1.78
-6.84
-9.91
-12.04
-13.92
-15.65
-16.93
-17.40
-17.14
-16.58
-16.24
-16.37
-16.72
-16.74
-15.95
-14.24
-12.03
-10.09
-9.05
-9.12
-10.03
-11.10
-11.73
-11.57
-10.63
-9.28
-7.97
-7.12
-6.87
-7.16
-7.64
-7.96
-7.84
-7.23
-6.26
-5.11
-3.82
-2.29
-0.29
2.29
5.26
8.20
10.62
12.23
12.97
12.98
12.39
11.11
9.00
6.02
2.41
-1.31
-4.54
-6.82
-8.04
-8.44
-8.36
-8.14
-7.97
-7.89
-7.89
-7.98
-8.07
-7.96
-7.35
-6.00
-3.79
-0.88
2.32
5.32
7.67
9.12
9.66
9.49
8.94
8.32
7.81
7.33
6.69
5.59
3.86
1.57
-1.05
-3.68
-6.08
-8.20
-10.11
-11.85
-13.36
-14.45
-14.97
-14.93
-14.60
-14.42
-14.79
-15.75
-16.87
-17.34
-16.41
-13.72
-9.57
-4.74
-0.25
3.13
5.13
5.90
5.84
5.38
4.82
4.32
4.07
4.26
5.03
6.38
8.10
9.74
10.86
11.13
10.41
8.82
6.64
4.26
2.11
0.49
-0.41
-0.58
-0.20
0.39
0.85
0.91
0.53
-0.06
-0.46
-0.28
0.62
1.99
3.22
3.60
2.68
0.50
-2.34
-4.85
-6.04
-5.35
-2.87
0.69
4.34
7.15
8.60
8.72
8.00
7.13
6.81
7.54
9.52
12.67
16.58
20.69
24.32
26.85
27.95
27.73
26.74
25.63
24.82
24.21
23.15
20.85
16.81
11.21
4.87
-1.16
-6.12
-9.85
-12.74
-15.27
-17.65
-19.54
-20.39
-19.80
-17.87
-15.24
-12.77
-11.21
-10.88
-11.66
-13.12
-14.76
-16.17
-17.12
-17.46
-17.18
-16.30
-14.89
-13.03
-10.74
-8.09
-5.19
-2.25
0.45
2.60
4.06
4.93
5.46
5.93
6.51
7.03
7.14
6.40
4.62
1.89
-1.29
-4.26
-6.40
-7.41
-7.31
-6.47
-5.35
-4.30
-3.56
-3.23
-3.35
-3.80
-4.27
-4.30
-3.45
-1.59
0.92
3.41
5.17
5.81
5.42
4.46
3.41
2.45
1.54
0.48
-0.65
-1.52
-1.73
-1.13
-0.02
0.90
0.91
-0.39
-2.77
-5.64
-8.12
-9.55
-9.73
-8.87
-7.48
-6.01
-4.70
-3.53
-2.30
-0.84
0.89
2.69
4.22
5.09
5.01
3.87
1.78
-0.95
-3.83
-6.38
-8.17
-8.96
-8.72
-7.64
-5.99
-4.17
-2.66
-1.93
-2.30
-3.66
-5.40
-6.61
-6.41
-4.39
-0.80
3.60
7.98
11.64
14.23
15.58
15.59
14.38
12.20
9.77
7.95
7.41
8.31
10.20
12.33
14.06
15.22
15.97
16.52
16.71
16.19
14.31
10.90
6.22
1.01
-3.87
-7.91
-10.80
-12.38
-12.55
-11.12
-8.18
-4.40
-0.99
0.83
0.51
-1.36
-3.34
-3.96
-2.53
0.33
3.24
4.82
4.61
3.08
1.25
-0.16
-1.11
-2.04
-3.37
-4.99
-6.43
-6.95
-6.36
-4.98
-3.58
-3.01
-3.73
-5.71
-8.34
-10.58
-11.41
-10.29
-7.38
-3.61
-0.33
1.29
0.83
-1.18
-3.54
-4.98
-4.76
-2.93
-0.23
2.45
4.47
5.67
6.28
6.63
6.85
6.82
6.27
5.01
3.03
0.65
-1.69
-3.56
-4.65
-4.82
-4.13
-2.76
-1.06
0.53
1.61
1.90
1.42
0.48
-0.49
-1.14
-1.37
-1.35
-1.40
-1.74
-2.39
-3.21
-3.93
-4.36
-4.51
-4.41
-4.24
-4.16
-4.35
-4.92
-5.99
-7.56
-9.44
-11.14
-11.89
-10.84
-7.31
-1.27
6.47
14.30
20.32
23.04
22.12
18.44
13.66
9.45
6.68
5.27
4.49
3.63
2.51
1.47
1.03
1.29
1.76
1.68
0.45
-1.79
-4.24
-5.85
-5.93
-4.43
-2.03
0.27
1.61
1.65
0.52
-1.24
-2.98
-4.18
-4.67
-4.59
-4.30
-4.32
-4.91
-6.08
-7.56
-8.93
-9.65
-9.28
-7.53
-4.32
-0.15
4.03
6.91
7.45
5.36
1.57
-2.10
-3.74
-2.25
1.95
7.19
11.40
13.21
12.52
10.34
8.10
6.75
6.36
6.29
5.81
4.55
2.82
1.33
0.60
0.70
1.14
1.16
0.23
-1.57
-3.66
-5.22
-5.62
-4.85
-3.43
-2.27
-2.17
-3.44
-5.80
-8.63
-11.30
-13.49
-15.17
-16.45
-17.31
-17.56
-16.97
-15.49
-13.41
-11.19
-9.25
-7.74
-6.46
-5.17
-3.63
-1.86
-0.07
1.50
2.72
3.60
4.24
4.76
5.23
5.73
6.36
7.15
8.09
9.10
10.02
10.71
11.11
11.21
11.10
10.82
10.45
9.97
9.36
8.56
7.46
5.98
4.13
2.05
0.03
-1.57
-2.44
-2.50
-1.92
-1.09
-0.47
-0.34
-0.70
-1.34
-1.93
-2.26
-2.31
-2.19
-2.06
-2.01
-2.00
-2.01
-2.00
-2.04
-2.20
-2.45
-2.64
-2.60
-2.18
-1.40
-0.45
0.34
0.76
0.69
0.33
-0.02
-0.03
0.53
1.71
3.41
5.40
7.45
9.26
10.60
11.29
11.32
10.91
10.43
10.26
10.60
11.33
12.02
12.17
11.39
9.68
7.43
5.22
3.70
3.31
4.16
5.97
8.21
10.19
11.29
11.18
9.90
7.96
6.13
5.09
5.20
6.11
6.77
5.69
1.40
-6.97
-19.28
-34.32
-49.97
-63.77
-73.52
-77.81
-76.23
-69.32
-58.37
-45.08
-31.19
-18.20
-7.13
1.59
8.02
12.61
15.88
18.25
19.98
21.16
21.83
21.95
21.55
20.65
19.22
17.31
15.05
12.69
10.55
8.91
7.94
7.60
7.74
8.06
8.27
8.09
7.38
6.18
4.75
3.44
2.59
2.31
2.47
2.77
2.88
2.66
2.20
1.74
1.60
2.04
3.20
5.13
7.70
10.60
13.32
15.26
15.87
14.95
12.68
9.58
6.20
2.92
-0.26
-3.44
-6.71
-9.81
-12.21
-13.29
-12.72
-10.65
-7.61
-4.38
-1.59
0.49
1.89
2.86
3.58
4.08
4.27
4.00
3.22
2.01
0.60
-0.77
-1.91
-2.72
-3.21
-3.35
-3.15
-2.67
-1.95
-1.19
-0.59
-0.28
-0.29
-0.52
-0.85
-1.26
-1.81
-2.59
-3.58
-4.61
-5.30
-5.33
-4.60
-3.33
-2.00
-1.06
-0.72
-0.80
-0.92
-0.65
0.12
1.12
1.79
1.55
0.17
-2.07
-4.43
-5.97
-5.90
-3.96
-0.53
3.48
6.93
8.92
9.10
7.71
5.49
3.29
1.75
1.10
1.19
1.66
2.16
2.48
2.65
2.74
2.82
2.83
2.64
2.17
1.44
0.60
-0.16
-0.70
-1.08
-1.46
-1.99
-2.65
-3.23
-3.38
-2.94
-1.99
-0.88
-0.00
0.41
0.38
0.14
-0.06
-0.17
-0.25
-0.42
-0.70
-0.97
-1.05
-0.90
-0.68
-0.65
-1.06
-1.88
-2.79
-3.29
-2.96
-1.66
0.34
2.54
4.35
5.37
5.54
5.00
4.04
2.90
1.72
0.56
-0.58
-1.64
-2.56
-3.21
-3.51
-3.43
-2.94
-2.07
-0.89
0.55
2.11
3.61
4.84
5.54
5.55
4.85
3.58
2.04
0.61
-0.43
-1.03
-1.27
-1.35
-1.39
-1.42
-1.43
-1.47
-1.67
-2.19
-3.10
-4.26
-5.40
-6.18
-6.34
-5.88
-5.07
-4.29
-3.93
-4.10
-4.58
-4.94
-4.62
-3.29
-0.99
1.90
4.74
7.00
8.38
8.97
9.03
8.83
8.56
8.26
7.88
7.37
6.63
5.60
4.22
2.53
0.72
-0.91
-2.05
-2.48
-2.26
-1.63
-1.03
-0.78
-0.99
-1.47
-1.89
-1.99
-1.68
-1.18
-0.81
-0.81
-1.19
-1.69
-1.95
-1.73
-1.08
-0.31
0.17
0.13
-0.47
-1.35
-2.21
-2.77
-2.98
-2.98
-3.00
-3.24
-3.74
-4.31
-4.55
-4.03
-2.55
-0.22
2.51
5.08
7.05
8.36
9.26
10.04
10.77
11.20
10.93
9.66
7.45
4.74
2.17
0.23
-0.84
-1.14
-1.03
-0.85
-0.98
-1.76
-3.35
-5.75
-8.60
-11.28
-13.08
-13.57
-12.75
-11.11
-9.30
-7.83
-6.86
-6.24
-5.69
-4.99
-4.11
-3.11
-2.14
-1.19
-0.24
0.69
1.57
2.25
2.63
2.67
2.38
1.83
1.03
0.04
-1.06
-1.96
-2.25
-1.49
0.56
3.75
7.44
10.79
12.94
13.41
12.23
9.88
7.05
4.37
2.27
0.84
-0.08
-0.76
-1.49
-2.42
-3.48
-4.42
-4.92
-4.74
-3.86
-2.47
-0.94
0.38
1.26
1.67
1.77
1.73
1.71
1.70
1.59
1.25
0.65
-0.12
-0.84
-1.29
-1.41
-1.37
-1.46
-1.94
-2.77
-3.67
-4.19
-3.97
-3.00
-1.55
-0.12
0.81
0.90
0.07
-1.50
-3.39
-5.03
-5.78
-5.16
-3.05
0.30
4.16
7.68
10.03
10.77
9.88
7.77
5.09
2.54
0.63
-0.46
-0.86
-0.94
-1.13
-1.67
-2.50
-3.22
-3.39
-2.72
-1.31
0.43
2.03
3.26
4.17
4.99
5.89
6.71
7.11
6.72
5.43
3.52
1.48
-0.22
-1.44
-2.38
-3.42
-4.81
-6.50
-8.17
-9.44
-10.05
-9.98
-9.46
-8.80
-8.22
-7.80
-7.39
-6.78
-5.71
-4.08
-1.88
0.75
3.57
6.27
8.48
9.98
10.60
10.40
9.53
8.22
6.61
4.86
3.10
1.53
0.42
-0.06
0.15
0.81
1.55
2.00
1.99
1.62
1.11
0.64
0.18
-0.43
-1.38
-2.67
-4.06
-5.24
-5.88
-5.91
-5.46
-4.80
-4.23
-3.90
-3.87
-4.10
-4.47
-4.81
-4.96
-4.71
-3.94
-2.66
-1.08
0.41
1.36
1.40
0.53
-0.94
-2.33
-2.99
-2.48
-0.78
1.73
4.49
6.96
8.76
9.69
9.76
8.97
7.42
5.27
2.77
0.29
-1.75
-2.96
-3.09
-2.17
-0.52
1.23
2.44
2.67
1.95
0.73
-0.31
-0.66
-0.22
0.62
1.19
0.89
-0.49
-2.69
-5.15
-7.25
-8.59
-9.04
-8.69
-7.80
-6.72
-5.92
-5.80
-6.62
-8.13
-9.73
-10.53
-9.78
-7.32
-3.64
0.28
3.44
5.37
6.27
6.84
7.84
9.68
12.15
14.68
16.48
17.00
16.05
13.80
10.81
7.74
5.14
3.15
1.62
0.15
-1.56
-3.54
-5.52
-7.08
-7.90
-7.97
-7.55
-7.04
-6.77
-6.89
-7.33
-8.02
-8.74
-9.22
-9.14
-8.17
-6.13
-3.01
0.87
5.16
9.37
13.12
16.01
17.54
17.24
14.84
10.56
5.19
0.08
-3.38
-4.19
-2.30
1.34
5.08
7.14
6.33
2.60
-2.96
-8.43
-11.87
-12.11
-9.24
-4.44
0.49
4.01
5.42
4.99
3.62
2.23
1.41
1.13
1.13
1.01
0.55
-0.20
-1.07
-1.85
-2.38
-2.52
-2.25
-1.59
-0.69
0.26
0.99
1.33
1.16
0.55
-0.37
-1.42
-2.41
-3.23
-3.80
-4.09
-4.08
-3.77
-3.26
-2.67
-2.21
-2.04
-2.20
-2.51
-2.70
-2.53
-1.96
-1.20
-0.61
-0.54
-1.11
-2.21
-3.58
-4.87
-5.86
-6.36
-6.31
-5.61
-4.20
-2.08
0.63
3.62
6.45
8.65
9.89
10.07
9.29
7.81
5.92
3.88
1.93
0.28
-0.92
-1.55
-1.61
-1.23
-0.59
0.10
0.74
1.31
1.80
2.15
2.32
2.26
2.04
1.80
1.64
1.59
1.54
1.34
0.93
0.44
0.05
-0.05
0.13
0.34
0.30
-0.19
-1.04
-1.90
-2.30
-1.97
-0.89
0.62
2.03
2.98
3.28
3.11
2.83
2.84
3.46
4.97
7.59
11.42
16.19
21.12
24.98
26.53
25.03
20.70
14.68
8.54
3.51
0.08
-2.13
-3.85
-5.74
-8.02
-10.45
-12.71
-14.53
-15.88
-16.77
-17.20
-17.03
-16.10
-14.47
-12.35
-10.22
-8.53
-7.59
-7.36
-7.54
-7.70
-7.52
-6.93
-6.12
-5.39
-4.96
-4.85
-4.87
-4.80
-4.45
-3.73
-2.74
-1.54
-0.26
0.96
1.94
2.48
2.47
1.93
1.06
0.16
-0.53
-0.91
-1.08
-1.20
-1.28
-1.19
-0.71
0.35
1.95
3.82
5.57
6.87
7.55
7.66
7.39
6.93
6.41
5.85
5.13
4.10
2.69
0.97
-0.83
-2.40
-3.41
-3.73
-3.47
-2.97
-2.61
-2.62
-2.91
-3.22
-3.26
-2.89
-2.23
-1.59
-1.27
-1.48
-2.25
-3.47
-4.96
-6.53
-7.99
-9.26
-10.31
-11.19
-12.02
-12.92
-13.93
-14.91
-15.66
-15.97
-15.79
-15.29
-14.82
-14.68
-15.06
-15.89
-16.84
-17.54
-17.45
-16.11
-12.97
-7.63
0.13
10.14
21.74
33.81
44.99
54.03
60.00
62.36
60.96
55.91
47.65
36.91
24.87
12.98
2.68
-5.02
-9.76
-11.86
-12.13
-11.49
-10.71
-10.17
-9.96
-9.94
-9.98
-10.03
-10.16
-10.52
-11.18
-12.00
-12.59
-12.44
-11.21
-8.89
-5.97
-3.24
-1.51
-1.26
-2.42
-4.42
-6.46
-7.80
-8.05
-7.33
-6.06
-4.91
-4.33
-4.60
-5.60
-6.95
-8.14
-8.58
-7.90
-6.00
-3.09
0.35
3.73
6.63
8.86
10.44
11.61
12.62
13.68
14.92
16.32
17.70
18.79
19.30
18.95
17.64
15.45
12.64
9.54
6.46
3.65
1.28
-0.58
-1.98
-3.07
-4.06
-5.16
-6.39
-7.64
-8.73
-9.54
-10.11
-10.56
-10.96
-11.29
-11.43
-11.32
-11.05
-10.79
-10.72
-10.78
-10.70
-10.01
-8.36
-5.72
-2.49
0.57
2.63
3.11
1.91
-0.49
-3.21
-5.20
-5.69
-4.37
-1.58
1.81
4.73
6.26
5.98
4.04
1.11
-1.86
-3.98
-4.64
-3.63
-1.11
2.49
6.58
10.49
13.67
15.76
16.74
16.87
16.56
16.18
15.83
15.34
14.37
12.61
9.93
6.44
2.44
-1.69
-5.64
-9.22
-12.26
-14.63
-16.16
-16.69
-16.24
-14.97
-13.28
-11.61
-10.32
-9.55
-9.15
-8.83
-8.27
-7.24
-5.72
-3.89
-2.04
-0.49
0.55
1.01
1.00
0.77
0.61
0.77
1.37
2.46
4.00
5.91
7.98
9.88
11.19
11.45
10.42
8.18
5.10
1.80
-1.19
-3.43
-4.81
-5.39
-5.38
-4.99
-4.32
-3.41
-2.29
-1.09
0.06
0.98
1.58
1.89
2.05
2.22
2.42
2.56
2.44
1.97
1.17
0.21
-0.73
-1.50
-2.04
-2.42
-2.70
-2.94
-3.16
-3.34
-3.50
-3.64
-3.82
-4.07
-4.45
-4.92
-5.36
-5.57
-5.23
-4.07
-1.93
1.03
4.38
7.56
10.05
11.60
12.22
12.18
11.75
11.15
10.40
9.42
8.13
6.52
4.73
2.99
1.51
0.43
-0.30
-0.84
-1.41
-2.15
-3.02
-3.83
-4.30
-4.26
-3.77
-3.13
-2.72
-2.82
-3.46
-4.36
-5.14
-5.52
-5.45
-5.12
-4.78
-4.61
-4.70
-4.97
-5.32
-5.62
-5.82
-5.92
-5.88
-5.68
-5.30
-4.80
-4.27
-3.77
-3.28
-2.60
-1.43
0.43
2.92
5.65
7.98
9.35
9.46
8.47
6.84
5.06
3.43
2.00
0.64
-0.72
-1.96
-2.84
-3.11
-2.63
-1.41
0.44
2.89
5.90
9.46
13.43
17.43
20.90
23.11
23.31
21.10
16.46
9.98
2.60
-4.57
-10.63
-15.11
-17.93
-19.33
-19.66
-19.29
-18.55
-17.80
-17.30
-17.17
-17.18
-16.83
-15.52
-12.87
-8.92
-4.12
0.88
5.46
9.24
12.10
14.02
15.00
14.92
13.67
11.29
8.07
4.53
1.31
-0.96
-1.91
-1.46
0.14
2.43
4.86
6.90
8.14
8.35
7.54
5.88
3.62
1.06
-1.49
-3.69
-5.21
-5.78
-5.26
-3.78
-1.63
0.76
3.00
4.75
5.80
6.02
5.39
4.02
2.10
-0.09
-2.30
-4.33
-6.16
-7.84
-9.42
-10.85
-11.92
-12.33
-11.83
-10.23
-7.49
-3.85
0.24
4.15
7.22
9.01
9.40
8.63
7.16
5.47
3.91
2.66
1.79
1.34
1.34
1.77
2.48
3.27
3.81
3.91
3.50
2.72
1.71
0.66
-0.31
-1.12
-1.66
-1.94
-1.98
-1.96
-2.12
-2.68
-3.77
-5.24
-6.72
-7.74
-7.95
-7.29
-6.03
-4.62
-3.46
-2.75
-2.38
-2.11
-1.66
-1.00
-0.28
0.20
0.17
-0.41
-1.39
-2.43
-3.26
-3.62
-3.40
-2.56
-1.14
0.73
2.85
4.96
6.79
8.03
8.54
8.31
7.45
6.20
4.76
3.20
1.55
-0.21
-1.95
-3.32
-3.94
-3.56
-2.24
-0.43
1.28
2.41
2.86
2.86
2.78
2.87
3.04
3.06
2.66
1.80
0.69
-0.36
-1.13
-1.58
-1.89
-2.27
-2.78
-3.35
-3.75
-3.83
-3.52
-2.94
-2.24
-1.57
-1.00
-0.54
-0.21
-0.11
-0.32
-0.89
-1.65
-2.27
-2.30
-1.39
0.56
3.21
6.00
8.25
9.49
9.55
8.67
7.29
5.87
4.67
3.63
2.54
1.19
-0.48
-2.22
-3.65
-4.38
-4.19
-3.11
-1.47
0.22
1.53
2.20
2.34
2.41
2.96
4.38
6.60
9.03
10.89
11.54
10.96
9.75
8.81
8.86
9.97
11.53
12.57
12.31
10.54
7.74
4.76
2.40
1.08
0.72
0.82
0.70
-0.32
-2.76
-6.81
-12.27
-18.48
-24.53
-29.52
-33.00
-35.27
-37.32
-40.47
-45.80
-53.57
-63.03
-72.60
-80.33
-84.51
-84.13
-79.04
-69.81
-57.39
-42.69
-26.39
-8.95
9.26
27.67
45.31
60.83
72.83
80.20
82.52
80.38
75.34
69.65
65.70
65.21
68.54
74.43
80.35
83.39
81.35
73.45
60.41
43.94
25.91
7.88
-9.01
-23.77
-35.28
-42.35
-44.12
-40.70
-33.26
-23.93
-15.11
-8.79
-5.94
-6.38
-8.95
-12.01
-13.99
-13.88
-11.38
-6.97
-1.60
3.57
7.56
9.64
9.57
7.49
3.97
-0.18
-4.07
-6.96
-8.39
-8.31
-7.02
-5.07
-3.09
-1.68
-1.27
-1.99
-3.61
-5.62
-7.37
-8.32
-8.33
-7.58
-6.53
-5.65
-5.31
-5.66
-6.73
-8.40
-10.38
-12.21
-13.32
-13.28
-11.95
-9.67
-7.13
-5.08
-3.97
-3.83
-4.26
-4.68
-4.61
-3.90
-2.71
-1.47
-0.64
-0.54
-1.20
-2.22
-2.77
-1.95
0.88
5.75
11.89
17.96
22.45
24.27
23.05
19.31
14.09
8.60
3.81
0.21
-2.19
-3.70
-4.75
-5.73
-6.80
-7.93
-8.92
-9.53
-9.57
-9.01
-7.90
-6.46
-4.94
-3.58
-2.63
-2.26
-2.48
-3.12
-3.84
-4.25
-4.08
-3.36
-2.39
-1.63
-1.53
-2.32
-4.00
-6.35
-8.98
-11.52
-13.58
-14.88
-15.38
-15.31
-15.16
-15.49
-16.74
-18.93
-21.60
-23.97
-25.30
-25.24
-24.03
-22.42
-21.30
-21.36
-22.73
-24.99
-27.48
-29.63
-31.29
-32.82
-34.97
-38.42
-43.40
-49.40
-55.25
-59.60
-61.45
-60.66
-58.02
-55.00
-53.14
-53.57
-56.65
-61.96
-68.14
-72.84
-72.85
-64.78
-46.39
-17.89
17.38
53.67
84.62
105.54
114.81
113.96
106.36
95.60
84.24
73.62
64.42
57.27
52.89
51.75
53.58
57.18
60.78
62.69
61.85
58.22
52.59
46.23
40.39
35.87
32.85
30.90
29.29
27.26
24.40
20.82
17.05
13.81
11.58
10.35
9.64
8.73
7.06
4.53
1.58
-1.12
-3.00
-3.90
-4.11
-4.19
-4.63
-5.56
-6.79
-7.85
-8.37
-8.24
-7.66
-6.93
-6.33
-5.96
-5.70
-5.38
-4.81
-3.85
-2.43
-0.66
1.07
2.03
1.47
-0.99
-4.91
-8.94
-11.31
-10.56
-6.31
0.45
7.83
13.85
17.30
18.16
17.26
15.67
14.04
12.43
10.38
7.46
3.70
-0.32
-3.63
-5.29
-4.79
-2.32
1.35
5.16
8.11
9.61
9.58
8.33
6.43
4.39
2.55
0.96
-0.51
-1.96
-3.38
-4.57
-5.28
-5.41
-5.04
-4.48
-4.02
-3.71
-3.44
-2.91
-2.04
-1.00
-0.24
-0.15
-0.94
-2.40
-4.11
-5.63
-6.74
-7.44
-7.86
-7.97
-7.58
-6.41
-4.26
-1.29
2.06
5.23
7.76
9.46
10.45
10.86
10.71
9.98
8.66
7.12
6.15
6.62
9.02
13.11
17.86
21.93
24.44
25.35
25.55
26.32
28.61
32.44
36.93
40.71
42.65
42.29
39.89
36.15
31.78
27.16
22.43
17.54
12.51
7.49
2.80
-1.51
-5.58
-9.87
-15.09
-21.63
-29.56
-38.34
-47.07
-54.73
-60.55
-64.27
-66.13
-66.72
-66.63
-66.19
-65.33
-63.62
-60.44
-55.26
-47.88
-38.55
-28.11
-17.64
-8.31
-0.99
3.96
6.82
8.28
9.18
10.13
11.27
12.34
12.91
12.63
11.53
9.89
8.09
6.40
4.94
3.70
2.84
2.66
3.59
5.91
9.59
14.10
18.65
22.48
25.00
25.98
25.53
24.01
21.93
19.90
18.47
18.09
18.92
20.77
23.17
25.47
27.07
27.57
26.79
24.75
21.56
17.39
12.53
7.40
2.51
-1.76
-5.29
-8.32
-11.39
-15.05
-19.59
-24.94
-30.66
-36.12
-40.69
-43.88
-45.41
-45.18
-43.26
-39.91
-35.54
-30.67
-25.83
-21.44
-17.74
-14.82
-12.56
-10.77
-9.29
-8.02
-7.01
-6.37
-6.22
-6.61
-7.40
-8.39
-9.32
-10.01
-10.38
-10.50
-10.59
-10.88
-11.56
-12.62
-13.86
-14.90
-15.28
-14.64
-12.85
-10.08
-6.73
-3.24
0.09
3.23
6.40
10.12
14.93
21.27
29.23
38.44
48.00
56.66
63.03
66.05
65.26
60.95
54.09
45.90
37.53
29.63
22.33
15.44
8.71
2.18
-3.86
-8.89
-12.49
-14.46
-14.95
-14.36
-13.15
-11.82
-10.75
-10.27
-10.52
-11.48
-12.95
-14.60
-16.04
-16.90
-16.96
-16.19
-14.75
-13.02
-11.48
-10.50
-10.19
-10.40
-10.67
-10.57
-9.75
-8.21
-6.27
-4.51
-3.55
-3.83
-5.39
-7.77
-10.15
-11.57
-11.24
-8.95
-5.08
-0.51
3.74
6.90
8.69
9.26
9.02
8.38
7.56
6.53
5.17
3.45
1.53
-0.14
-1.05
-0.84
0.48
2.48
4.56
6.15
7.14
7.84
8.75
10.26
12.35
14.59
16.35
17.07
16.48
14.67
11.90
8.43
4.36
-0.29
-5.45
-10.87
-16.03
-20.24
-22.83
-23.36
-21.84
-18.74
-14.95
-11.60
-9.71
-9.94
-12.36
-16.50
-21.37
-25.74
-28.30
-27.95
-24.00
-16.35
-5.70
6.59
18.68
28.87
36.01
39.75
40.50
39.01
36.04
32.05
27.24
21.75
15.87
10.13
5.21
1.68
-0.26
-0.73
-0.25
0.63
1.41
1.78
1.63
0.98
-0.17
-1.82
-3.94
-6.38
-8.82
-10.78
-11.85
-11.89
-11.14
-10.17
-9.60
-9.86
-10.90
-12.27
-13.32
-13.57
-12.83
-11.29
-9.29
-7.15
-5.17
-3.61
-2.72
-2.64
-3.29
-4.17
-4.46
-3.35
-0.38
4.24
9.66
14.77
18.61
20.72
21.26
20.66
19.38
17.67
15.45
12.56
8.97
4.93
0.95
-2.38
-4.65
-5.85
-6.26
-6.35
-6.53
-6.93
-7.37
-7.52
-7.03
-5.73
-3.69
-1.21
1.34
3.57
5.27
6.35
6.81
6.60
5.63
3.74
0.85
-2.79
-6.68
-10.07
-12.34
-13.17
-12.73
-11.55
-10.26
-9.37
-9.17
-9.70
-10.88
-12.45
-14.00
-14.90
-14.46
-12.08
-7.55
-1.17
6.23
13.57
19.80
24.28
26.87
27.91
27.98
27.58
27.04
26.32
25.18
23.26
20.29
16.22
11.15
5.40
-0.62
-6.35
-11.18
-14.49
-15.84
-15.16
-12.81
-9.53
-6.22
-3.63
-2.20
-1.92
-2.40
-3.04
-3.29
-2.83
-1.69
-0.15
1.36
2.39
2.71
2.37
1.69
1.05
0.84
1.22
2.12
3.39
4.76
6.04
7.06
7.73
8.12
8.49
9.31
11.18
14.55
19.47
25.54
31.91
37.52
41.42
42.86
41.39
36.84
29.24
18.89
6.39
-7.47
-21.74
-35.41
-47.57
-57.38
-64.13
-67.28
-66.66
-62.56
-55.82
-47.62
-39.16
-31.44
-25.03
-20.06
-16.37
-13.67
-11.66
-10.11
-8.79
-7.52
-6.15
-4.58
-2.88
-1.22
0.17
1.12
1.59
1.68
1.63
1.67
1.95
2.47
3.13
3.78
4.33
4.74
5.03
5.23
5.38
5.52
5.66
5.79
5.86
5.77
5.42
4.71
3.62
2.23
0.66
-0.91
-2.35
-3.56
-4.47
-4.99
-5.01
-4.45
-3.24
-1.37
1.19
4.44
8.39
12.97
18.01
23.16
27.93
31.81
34.31
35.14
34.19
31.58
27.63
22.76
17.46
12.12
6.96
2.03
-2.73
-7.34
-11.72
-15.61
-18.68
-20.63
-21.35
-20.96
-19.76
-18.16
-16.48
-14.99
-13.75
-12.66
-11.50
-10.02
-8.01
-5.49
-2.66
0.17
2.69
4.75
6.38
7.69
8.75
9.53
9.88
9.64
8.78
7.43
5.82
4.22
2.84
1.87
1.40
1.45
1.93
2.57
3.05
3.07
2.44
1.17
-0.54
-2.50
-4.54
-6.60
-8.64
-10.60
-12.36
-13.76
-14.67
-15.07
-15.02
-14.64
-14.04
-13.27
-12.33
-11.13
-9.65
-7.88
-5.99
-4.24
-2.93
-2.26
-2.29
-2.76
-3.23
-3.19
-2.25
-0.30
2.50
5.79
9.13
12.13
14.53
16.18
17.04
17.15
16.68
15.77
14.64
13.39
11.99
10.41
8.64
6.85
5.25
4.03
3.20
2.54
1.78
0.67
-0.81
-2.48
-3.97
-4.99
-5.46
-5.49
-5.39
-5.41
-5.71
-6.25
-6.87
-7.41
-7.71
-7.74
-7.55
-7.28
-7.02
-6.82
-6.62
-6.37
-6.00
-5.52
-4.96
-4.42
-4.05
-4.01
-4.40
-5.26
-6.36
-7.32
-7.57
-6.58
-4.10
-0.32
4.14
8.44
11.89
14.13
15.25
15.54
15.23
14.29
12.48
9.59
5.64
1.09
-3.33
-6.80
-8.64
-8.55
-6.65
-3.44
0.27
3.61
5.82
6.58
6.06
4.85
3.67
3.02
2.97
3.25
3.42
3.13
2.33
1.19
-0.04
-1.21
-2.34
-3.50
-4.68
-5.75
-6.45
-6.63
-6.30
-5.70
-5.10
-4.80
-4.95
-5.51
-6.20
-6.60
-6.19
-4.54
-1.60
2.29
6.36
9.71
11.64
11.98
11.06
9.52
7.95
6.61
5.46
4.31
3.06
1.78
0.70
0.04
-0.09
0.22
0.80
1.51
2.26
2.98
3.64
4.13
4.32
4.06
3.26
1.94
0.25
-1.57
-3.21
-4.43
-5.10
-5.37
-5.51
-5.85
-6.59
-7.63
-8.63
-9.12
-8.80
-7.69
-6.13
-4.62
-3.61
-3.23
-3.35
-3.67
-3.83
-3.67
-3.14
-2.30
-1.18
0.20
1.91
3.97
6.26
8.52
10.39
11.51
11.70
11.01
9.62
7.75
5.48
2.80
-0.25
-3.42
-6.14
-7.64
-7.35
-5.22
-1.90
1.52
3.87
4.52
3.54
1.73
0.09
-0.58
-0.08
1.17
2.46
3.11
2.85
1.75
0.08
-1.80
-3.63
-5.20
-6.33
-6.86
-6.67
-5.81
-4.52
-3.20
-2.26
-2.01
-2.54
-3.75
-5.37
-7.00
-8.15
-8.35
-7.30
-4.93
-1.55
2.28
5.94
8.90
10.91
11.94
12.13
11.63
10.54
8.94
6.97
4.85
2.85
1.21
0.04
-0.69
-1.08
-1.22
-1.07
-0.43
0.84
2.68
4.63
5.95
5.83
3.93
0.54
-3.31
-6.27
-7.24
-5.85
-2.80
0.44
2.13
1.11
-2.61
-7.61
-11.49
-11.75
-6.83
3.10
16.01
28.62
37.58
40.61
37.30
29.19
19.36
11.61
9.62
15.89
30.70
51.20
71.43
83.65
80.95
60.04
23.10
-22.70
-67.78
-103.58
-125.41
-133.02
-129.28
-117.80
-101.31
-81.20
-58.54
-35.17
-13.99
1.92
10.63
12.36
9.36
4.71
0.98
-0.85
-1.45
-2.26
-4.41
-7.85
-11.34
-13.07
-11.68
-7.04
-0.38
6.14
10.53
11.72
10.03
6.85
4.00
2.80
3.53
5.42
7.14
7.53
6.15
3.57
1.08
0.12
1.67
5.72
11.33
16.92
21.05
22.86
22.41
20.40
17.77
15.33
13.45
12.22
11.55
11.36
11.48
11.59
11.19
9.76
6.99
3.10
-1.18
-4.79
-6.72
-6.41
-3.98
-0.25
3.48
5.90
6.09
3.97
0.25
-3.85
-7.13
-8.86
-8.98
-7.92
-6.32
-4.76
-3.54
-2.83
-2.72
-3.21
-4.12
-5.11
-5.68
-5.36
-4.02
-1.91
0.39
2.27
3.39
3.91
4.36
5.45
7.65
10.84
14.41
17.42
19.14
19.36
18.44
17.07
15.82
14.80
13.60
11.59
8.41
4.22
-0.33
-4.41
-7.43
-9.18
-9.81
-9.54
-8.46
-6.60
-3.90
-0.59
2.90
5.89
7.81
8.34
7.52
5.65
3.07
0.11
-2.97
-5.95
-8.52
-10.34
-11.13
-10.81
-9.58
-7.82
-5.93
-4.16
-2.58
-1.20
-0.06
0.63
0.63
-0.22
-1.74
-3.39
-4.43
-4.09
-2.02
1.56
5.87
9.87
12.65
13.72
13.20
11.62
9.70
7.96
6.67
5.80
5.26
4.99
4.95
5.09
5.21
5.03
4.28
2.89
1.07
-0.74
-2.02
-2.39
-1.75
-0.34
1.31
2.60
2.99
2.25
0.46
-1.94
-4.36
-6.25
-7.31
-7.53
-7.19
-6.74
-6.56
-6.88
-7.59
-8.43
-9.06
-9.26
-8.99
-8.40
-7.74
-7.23
-7.07
-7.37
-8.12
-9.10
-9.87
-9.83
-8.48
-5.65
-1.65
2.78
6.76
9.62
11.18
11.71
11.67
11.47
11.24
10.85
10.13
8.91
7.24
5.25
3.22
1.45
0.20
-0.37
-0.30
0.21
0.86
1.37
1.57
1.49
1.21
0.84
0.42
-0.15
-0.99
-2.16
-3.56
-4.97
-6.04
-6.47
-6.14
-5.20
-4.02
-3.07
-2.68
-2.98
-3.76
-4.63
-5.16
-5.08
-4.47
-3.68
-3.21
-3.42
-4.41
-5.92
-7.46
-8.53
-8.71
-7.80
-5.80
-2.85
0.76
4.62
8.29
11.26
13.15
13.84
13.46
12.32
10.77
9.02
7.16
5.19
3.21
1.45
0.19
-0.41
-0.42
-0.13
0.06
-0.09
-0.53
-1.01
-1.22
-0.99
-0.45
0.11
0.37
0.19
-0.31
-0.92
-1.52
-2.14
-2.96
-4.15
-5.65
-7.20
-8.37
-8.77
-8.31
-7.25
-6.06
-5.18
-4.81
-4.80
-4.82
-4.53
-3.84
-2.87
-1.83
-0.76
0.53
2.31
4.67
7.32
9.65
11.03
11.18
10.43
9.52
9.16
9.59
10.39
10.65
9.49
6.61
2.56
-1.48
-4.21
-4.86
-3.54
-1.20
0.87
1.63
0.80
-1.09
-3.06
-4.17
-3.92
-2.30
0.38
3.71
7.23
10.33
12.29
12.32
10.07
5.93
1.15
-2.55
-3.67
-1.59
3.17
9.24
14.90
18.73
19.98
18.64
15.24
10.70
6.04
2.24
0.06
-0.06
1.92
5.56
10.02
14.16
16.85
17.34
15.44
11.71
7.13
2.81
-0.48
-2.56
-3.79
-4.85
-6.38
-8.76
-11.98
-15.66
-19.24
-22.00
-23.40
-23.17
-21.50
-19.01
-16.45
-14.38
-12.94
-11.89
-10.81
-9.42
-7.83
-6.39
-5.45
-5.10
-5.04
-4.73
-3.86
-2.45
-0.98
0.00
0.17
-0.43
-1.38
-2.24
-2.81
-3.25
-3.89
-5.04
-6.79
-8.93
-11.11
-12.97
-14.28
-14.95
-15.05
-14.62
-13.75
-12.51
-10.88
-8.84
-6.45
-3.88
-1.50
0.20
0.87
0.45
-0.78
-2.35
-3.86
-5.18
-6.45
-7.87
-9.38
-10.52
-10.46
-8.41
-4.02
2.37
9.77
16.95
22.84
26.84
28.79
28.89
27.49
25.02
21.91
18.58
15.35
12.37
9.61
6.93
4.24
1.63
-0.65
-2.35
-3.37
-3.95
-4.47
-5.31
-6.59
-8.03
-9.19
-9.68
-9.35
-8.43
-7.31
-6.44
-6.13
-6.49
-7.40
-8.57
-9.59
-9.89
-8.94
-6.35
-2.11
3.31
9.04
14.03
17.41
18.70
18.01
15.82
12.83
9.75
7.10
5.07
3.63
2.56
1.58
0.56
-0.52
-1.54
-2.34
-2.86
-3.07
-3.04
-2.77
-2.23
-1.36
-0.20
1.02
1.99
2.31
1.78
0.38
-1.63
-3.84
-5.78
-7.08
-7.59
-7.43
-6.98
-6.60
-6.57
-6.92
-7.43
-7.77
-7.61
-6.93
-5.93
-5.05
-4.63
-4.78
-5.19
-5.31
-4.60
-2.76
0.12
3.64
7.29
10.62
13.36
15.36
16.53
16.72
15.85
13.92
11.13
7.87
4.61
1.77
-0.34
-1.56
-1.86
-1.35
-0.38
0.69
1.45
1.65
1.30
0.60
-0.07
-0.48
-0.54
-0.44
-0.47
-0.94
-1.98
-3.47
-5.13
-6.59
-7.64
-8.21
-8.47
-8.60
-8.66
-8.51
-7.91
-6.78
-5.31
-4.03
-3.53
-4.15
-5.76
-7.67
-8.91
-8.58
-6.28
-2.26
2.70
7.67
11.87
14.91
16.73
17.48
17.28
16.19
14.30
11.75
8.84
5.96
3.41
1.44
0.12
-0.52
-0.47
0.19
1.27
2.44
3.32
3.69
3.52
2.99
2.31
1.59
0.80
-0.16
-1.32
-2.48
-3.34
-3.68
-3.51
-3.10
-2.87
-3.16
-4.02
-5.23
-6.37
-7.08
-7.18
-6.71
-5.97
-5.37
-5.26
-5.82
-7.00
-8.49
-9.80
-10.42
-9.95
-8.20
-5.26
-1.47
2.66
6.59
9.87
12.28
13.92
15.04
15.94
16.77
17.45
17.62
16.94
15.27
12.87
10.30
8.28
7.39
7.92
9.78
12.50
15.39
17.74
18.96
18.84
17.57
15.65
13.63
11.79
10.07
8.14
5.62
2.45
-1.04
-4.32
-6.93
-8.76
-10.04
-11.24
-12.72
-14.61
-16.76
-18.90
-20.82
-22.46
-23.90
-25.22
-26.46
-27.57
-28.39
-28.70
-28.28
-26.92
-24.49
-20.99
-16.51
-11.25
-5.54
0.28
5.83
10.74
14.66
17.37
18.76
18.86
17.79
15.73
12.93
9.68
6.37
3.36
1.00
-0.50
-1.11
-0.99
-0.38
0.50
1.49
2.48
3.40
4.07
4.31
3.93
2.87
1.31
-0.46
-2.07
-3.23
-3.79
-3.80
-3.43
-2.89
-2.36
-2.01
-1.94
-2.19
-2.71
-3.26
-3.54
-3.24
-2.19
-0.54
1.30
2.75
3.36
3.09
2.40
2.16
3.34
6.56
11.81
18.29
24.71
29.73
32.41
32.52
30.50
27.17
23.37
19.75
16.73
14.45
12.73
10.81
7.37
0.81
-10.07
-25.23
-42.93
-60.15
-73.52
-80.69
-81.13
-76.09
-67.82
-58.39
-49.01
-39.95
-30.98
-22.10
-13.66
-6.34
-0.68
3.27
6.00
8.24
10.62
13.29
15.93
17.94
18.76
18.23
16.59
14.41
12.23
10.41
9.01
7.96
7.23
6.92
7.22
8.29
10.08
12.33
14.70
16.82
18.45
19.44
19.79
19.52
18.68
17.37
15.65
13.59
11.25
8.69
6.12
3.81
2.06
1.12
1.01
1.51
2.22
2.76
2.90
2.61
2.00
1.27
0.52
-0.16
-0.77
-1.29
-1.71
-2.04
-2.37
-2.83
-3.57
-4.64
-5.94
-7.22
-8.17
-8.55
-8.34
-7.70
-6.97
-6.48
-6.51
-7.15
-8.31
-9.73
-11.09
-12.02
-12.16
-11.26
-9.20
-6.11
-2.31
1.74
5.55
8.69
10.90
12.09
12.34
11.86
10.88
9.60
8.10
6.39
4.46
2.37
0.26
-1.60
-2.97
-3.69
-3.78
-3.42
-2.83
-2.16
-1.45
-0.73
-0.03
0.49
0.64
0.28
-0.53
-1.63
-2.80
-3.85
-4.81
-5.76
-6.89
-8.28
-9.90
-11.52
-12.86
-13.62
-13.65
-12.99
-11.90
-10.78
-10.07
-10.02
-10.58
-11.41
-11.90
-11.48
-9.75
-6.70
-2.69
1.68
5.77
9.06
11.35
12.68
13.29
13.47
13.56
13.82
14.39
15.35
16.64
18.17
19.80
21.48
23.18
24.92
26.64
28.21
29.49
30.36
30.86
31.10
31.14
30.97
30.35
28.94
26.40
22.53
17.28
10.87
3.72
-3.56
-10.16
-15.26
-18.31
-19.24
-18.55
-17.27
-16.47
-16.93
-18.84
-21.77
-24.98
-27.75
-29.74
-31.00
-31.89
-32.74
-33.58
-34.14
-33.79
-31.97
-28.40
-23.30
-17.33
-11.43
-6.50
-3.06
-1.17
-0.47
-0.34
-0.17
0.55
2.20
5.01
9.06
14.26
20.12
25.78
30.01
31.58
29.70
24.25
15.94
5.98
-4.30
-13.84
-21.99
-28.33
-32.48
-33.88
-32.11
-27.24
-20.14
-12.57
-6.67
-4.15
-5.58
-10.07
-15.58
-19.75
-20.89
-18.52
-13.40
-6.99
-0.78
4.33
8.00
10.23
10.94
9.86
6.72
1.66
-4.37
-9.80
-12.82
-12.26
-8.09
-1.52
5.44
10.89
13.77
14.19
13.15
11.84
11.09
10.98
11.03
10.52
8.98
6.41
3.30
0.41
-1.45
-1.64
0.06
3.43
7.81
12.28
15.90
18.07
18.62
17.87
16.41
14.85
13.68
13.09
12.98
12.95
12.52
11.25
8.96
5.83
2.33
-0.96
-3.59
-5.36
-6.40
-6.97
-7.37
-7.76
-8.24
-8.85
-9.57
-10.25
-10.55
-9.91
-7.67
-3.44
2.52
9.13
14.77
17.86
17.59
14.31
9.42
4.81
1.99
1.58
3.08
5.31
7.02
7.35
6.24
4.19
1.95
0.18
-0.82
-1.17
-1.28
-1.64
-2.67
-4.51
-7.08
-10.08
-13.07
-15.47
-16.69
-16.32
-14.22
-10.75
-6.63
-2.80
-0.05
1.30
1.56
1.55
2.30
4.52
8.24
12.69
16.62
18.79
18.59
16.20
12.43
8.30
4.48
1.12
-1.89
-4.53
-6.38
-6.80
-5.35
